1592752730.00
64.000000
-0.00
-0.00
-0.00
-0.00
-0.00
-0.00
-0.00
-0.00
-0.00
-0.00
0.00
0.01
0.01
-0.00
-0.03
-0.05
-0.05
0.00
0.13
0.36
0.66
1.01
1.37
1.72
2.06
2.40
2.79
3.24
3.80
4.42
5.06
5.66
6.20
6.68
7.15
7.68
8.31
9.14
10.09
11.04
11.88
12.56
13.14
13.76
14.65
15.96
17.91
20.32
22.90
25.38
27.58
29.57
31.68
34.32
37.81
42.54
48.15
54.10
59.83
64.97
69.58
74.14
79.34
85.71
93.76
103.00
112.62
121.73
129.77
136.75
143.30
150.75
157.77
166.64
177.95
191.79
206.97
220.57
228.25
225.36
208.53
176.87
132.76
80.05
23.07
-34.94
-92.44
-149.16
-205.23
-260.37
-313.74
-363.87
-409.83
-450.91
-486.50
-515.74
-537.23
-549.22
-549.96
-538.37
-514.21
-478.67
-433.88
-382.45
-327.02
-269.84
-212.63
-156.66
-102.95
-52.37
-5.90
35.58
71.43
101.35
125.50
144.38
158.69
169.15
176.37
180.75
182.57
182.07
179.51
175.23
169.65
163.18
156.15
148.81
141.30
133.69
126.02
118.33
110.69
103.16
95.80
88.68
81.82
75.25
68.97
62.98
57.28
51.87
46.75
41.92
37.39
33.19
29.31
25.77
22.53
19.57
16.85
14.36
12.08
10.04
8.27
6.76
5.52
4.49
3.61
2.81
2.05
1.31
0.63
0.07
-0.30
-0.48
-0.53
-0.58
-0.76
-1.16
-1.75
-2.42
-2.97
-3.25
-3.22
-2.98
-2.79
-2.93
-3.53
-4.56
-5.75
-6.75
-7.24
-7.16
-6.70
-6.31
-6.44
-7.36
-8.99
-10.92
-12.59
-13.58
-13.76
-13.35
-12.82
-12.65
-13.15
-14.53
-16.91
-20.25
-24.03
-27.00
-27.39
-23.56
-14.99
-2.86
10.11
20.71
26.65
27.63
25.28
22.18
20.43
20.65
22.01
22.92
22.09
19.15
14.61
9.48
4.89
1.80
1.03
2.97
7.42
13.46
19.52
23.91
25.55
24.43
21.70
19.13
18.51
20.93
26.39
33.80
41.26
46.46
47.40
43.24
34.38
23.04
12.42
5.33
2.90
3.98
5.81
5.60
2.00
-4.16
-10.39
-13.86
-12.77
-7.19
0.91
8.39
12.06
9.81
1.42
-11.16
-24.46
-34.74
-39.52
-38.67
-34.42
-30.12
-28.63
-30.95
-36.02
-41.83
-46.83
-50.82
-54.81
-59.98
-66.46
-72.81
-76.55
-75.14
-67.46
-54.43
-38.52
-22.79
-9.66
-0.14
5.97
9.35
10.61
9.57
5.80
-0.70
-8.86
-16.56
-21.30
-21.21
-15.94
-6.55
4.41
13.91
19.29
19.00
13.00
2.83
-8.58
-18.88
-24.56
-22.83
-12.62
4.79
26.05
46.66
62.40
70.75
71.61
67.49
62.02
58.69
59.65
65.20
74.10
84.41
94.47
103.37
110.93
116.77
119.75
118.10
110.22
95.86
76.96
57.45
41.95
34.14
34.90
41.86
50.25
54.63
50.83
37.00
13.75
-16.60
-50.75
-85.15
-116.30
-141.00
-156.89
-163.00
-160.26
-151.31
-139.66
-128.38
-119.16
-112.03
-105.79
-99.02
-90.78
-80.98
-70.05
-58.47
-46.36
-33.45
-19.40
-4.26
11.13
25.14
35.86
41.80
42.71
40.02
36.51
35.50
39.63
49.86
65.24
83.41
101.60
117.52
129.80
137.86
141.48
140.57
135.15
125.78
113.87
101.72
92.05
87.10
87.68
92.46
98.04
99.72
92.85
74.26
43.36
2.52
-43.31
-87.67
-124.07
-147.63
-156.38
-151.95
-139.04
-123.82
-111.68
-105.19
-103.43
-102.84
-99.34
-90.35
-75.85
-57.94
-39.58
-23.29
-10.56
-2.02
2.22
2.49
-0.20
-3.81
-5.53
-2.63
6.41
21.07
38.79
55.82
68.55
74.71
74.12
68.71
61.84
57.06
56.81
61.46
69.05
75.91
78.01
72.33
57.71
35.07
6.71
-24.60
-56.44
-87.08
-115.33
-140.17
-160.31
-174.08
-179.74
-176.23
-163.74
-144.19
-120.88
-97.75
-78.23
-64.24
-55.72
-50.91
-47.27
-42.48
-35.16
-24.94
-12.14
2.78
19.34
36.88
54.13
69.08
79.55
84.20
83.54
80.22
78.39
82.01
93.19
111.33
133.40
155.12
172.35
182.19
183.45
176.60
163.39
146.27
127.69
109.48
92.37
76.08
59.63
41.80
21.60
-1.75
-28.73
-59.50
-93.71
-130.14
-166.70
-200.44
-228.12
-246.80
-254.57
-250.87
-236.69
-214.45
-187.65
-160.18
-135.52
-115.95
-102.15
-93.27
-87.47
-82.54
-76.50
-67.95
-56.27
-41.48
-24.17
-5.33
13.78
31.74
46.95
57.76
62.97
62.43
57.48
50.88
46.02
45.68
50.79
60.11
70.84
80.12
86.33
89.77
92.15
95.40
100.48
106.89
113.07
117.36
118.86
117.75
114.97
111.55
107.99
104.03
98.87
91.78
82.55
71.78
60.67
50.55
42.44
36.79
33.45
32.06
32.22
33.68
36.22
39.39
42.41
44.30
44.29
42.32
39.33
37.11
37.76
42.90
53.14
67.94
85.93
105.55
125.33
143.99
160.06
171.65
176.59
173.05
160.27
139.14
112.05
82.02
51.72
22.66
-4.84
-31.21
-56.83
-81.43
-104.14
-123.85
-139.79
-151.91
-160.82
-167.47
-172.72
-177.06
-180.53
-183.03
-184.36
-184.39
-182.80
-179.12
-172.62
-162.68
-149.19
-132.86
-115.19
-98.06
-83.17
-71.47
-62.96
-56.88
-52.15
-47.83
-43.40
-38.75
-34.01
-29.29
-24.65
-20.10
-15.76
-11.83
-8.56
-6.01
-3.91
-1.72
1.13
4.98
9.72
14.78
19.36
22.73
24.51
24.69
23.57
21.57
19.06
16.37
13.78
11.57
10.02
9.35
9.69
11.10
13.60
17.08
21.35
26.04
30.66
34.72
37.88
40.10
41.61
42.74
43.63
44.00
43.06
39.65
32.60
21.15
5.30
-14.05
-35.21
-56.05
-74.46
-88.80
-98.13
-102.34
-102.09
-98.62
-93.51
-88.39
-84.37
-81.80
-80.03
-77.73
-73.56
-67.06
-59.33
-52.93
-51.19
-56.88
-70.99
-92.20
-117.13
-141.29
-160.23
-170.64
-170.86
-161.04
-142.84
-119.02
-92.77
-67.09
-44.24
-25.33
-10.30
1.84
12.42
22.59
32.85
42.94
52.04
59.15
63.51
64.90
63.69
60.65
56.72
52.72
49.32
46.89
45.39
44.12
41.56
35.62
24.30
6.86
-15.44
-39.14
-59.64
-72.89
-77.10
-73.46
-65.57
-57.83
-53.49
-53.58
-56.89
-60.85
-62.59
-59.70
-50.56
-34.47
-11.89
15.23
43.27
67.45
83.36
88.68
84.40
74.56
64.75
59.76
62.06
70.87
82.79
93.36
98.68
96.75
87.73
73.76
58.20
45.13
37.67
36.94
41.87
49.81
57.66
62.69
63.14
58.45
50.20
40.48
31.05
23.09
17.36
14.44
14.22
15.86
18.07
21.34
26.31
33.24
42.06
52.76
65.79
81.38
99.08
118.09
139.77
164.96
192.72
220.09
242.83
257.31
261.01
252.94
221.91
166.24
95.79
26.99
-27.81
-65.87
-89.96
-104.43
-112.98
-118.18
-120.01
-119.39
-119.93
-125.27
-137.75
-155.38
-172.52
-182.08
-178.37
-157.75
-121.64
-75.90
-27.08
13.67
39.71
51.29
53.19
50.75
48.39
49.90
56.64
70.04
91.21
120.05
153.84
186.60
210.99
221.77
212.69
184.52
143.14
96.59
51.10
9.73
-28.28
-65.98
-106.62
-152.31
-202.82
-256.21
-308.68
-355.71
-391.18
-409.66
-408.64
-390.43
-361.31
-328.38
-296.93
-259.28
-212.65
-159.36
-106.99
-64.11
-36.07
-22.32
-14.96
-5.89
10.00
31.50
53.76
67.88
68.08
54.09
31.75
11.22
2.85
13.64
43.87
88.91
140.92
191.45
232.37
256.71
259.65
239.55
199.47
146.50
91.05
43.52
11.08
-4.80
-7.95
-4.82
-1.17
0.41
0.50
1.62
5.91
13.61
22.61
29.75
32.86
32.24
30.80
32.37
39.46
51.40
64.08
71.27
67.38
50.07
21.44
-12.85
-45.86
-72.27
-90.05
-100.43
-106.38
-110.45
-113.46
-114.21
-110.76
-101.84
-87.85
-70.92
-53.88
-39.10
-27.57
-18.85
-11.48
-3.71
5.97
18.53
34.31
52.92
73.21
93.38
111.36
125.31
134.04
137.21
135.56
130.82
125.61
122.88
125.26
134.30
150.12
171.46
196.11
221.38
244.23
261.65
270.74
269.18
255.99
231.83
198.51
157.83
110.68
57.45
-0.41
-58.48
-108.84
-141.67
-148.64
-126.63
-79.54
-17.26
47.90
105.38
148.97
176.94
190.48
191.69
182.33
163.45
136.17
102.16
63.69
22.81
-19.33
-61.87
-103.26
-140.11
-167.75
-181.67
-179.59
-162.57
-135.18
-104.53
-78.06
-61.45
-57.31
-65.47
-83.67
-108.53
-134.99
-155.18
-162.38
-155.09
-137.84
-116.84
-96.88
-79.99
-66.19
-54.10
-42.21
-30.39
-19.82
-12.93
-11.18
-15.68
-25.13
-37.38
-49.50
-58.98
-65.13
-69.29
-75.11
-85.79
-103.34
-127.38
-155.28
-181.47
-199.17
-203.44
-185.88
-145.62
-87.25
-20.80
40.57
83.56
100.31
91.27
64.80
33.96
10.78
3.51
13.46
37.91
67.41
91.05
103.75
108.38
111.07
115.01
120.22
123.67
123.98
119.63
111.17
100.39
88.52
75.40
59.21
38.98
13.77
-15.63
-46.69
-73.48
-90.14
-94.49
-89.36
-85.14
-86.08
-93.16
-105.07
-116.22
-122.66
-122.78
-117.67
-109.68
-100.58
-89.54
-75.12
-56.30
-34.00
-11.68
6.08
15.22
13.70
1.88
-17.85
-43.48
-73.47
-106.12
-138.83
-167.14
-185.14
-187.14
-169.75
-133.15
-82.28
-25.37
28.55
71.92
100.61
114.41
116.40
111.43
104.62
99.58
97.81
98.80
100.61
101.04
98.62
93.16
85.65
77.78
71.22
67.11
65.87
67.07
69.62
71.93
72.24
69.14
62.05
51.37
38.29
24.12
9.80
-4.29
-17.92
-30.50
-40.51
-45.63
-43.42
-32.40
-13.10
11.48
36.29
55.39
63.44
57.27
36.73
4.79
-33.21
-70.75
-101.47
-120.36
-124.44
-113.08
-88.04
-53.13
-13.58
24.97
57.63
81.19
94.57
98.68
95.67
88.16
78.55
68.72
59.97
53.08
48.41
46.01
45.76
47.39
50.37
53.74
55.95
55.12
49.68
39.31
25.53
11.57
1.21
-2.74
0.24
8.10
17.10
23.37
24.49
20.03
11.41
0.86
-9.42
-17.70
-22.71
-23.40
-19.08
-9.68
3.82
19.27
33.73
44.11
47.87
43.28
29.69
7.66
-20.60
-50.91
-77.36
-93.47
-94.13
-77.44
-45.54
-3.83
40.67
81.33
113.22
133.45
141.12
136.96
123.29
103.75
82.71
64.15
50.35
41.05
33.66
24.48
10.47
-9.12
-31.94
-53.09
-66.62
-67.70
-54.43
-28.64
4.54
38.37
66.61
85.23
93.06
91.43
82.88
70.10
55.28
40.30
27.07
17.62
13.38
14.29
18.08
20.44
16.09
0.53
-28.25
-68.95
-116.90
-165.16
-206.23
-233.91
-244.90
-239.70
-222.08
-197.56
-171.27
-146.28
-123.30
-101.54
-80.37
-60.39
-43.24
-30.50
-22.44
-17.77
-14.59
-11.83
-10.06
-11.08
-16.59
-26.70
-39.65
-52.74
-63.80
-72.24
-78.96
-85.22
-91.30
-95.99
-97.07
-92.65
-82.18
-66.65
-47.88
-27.60
-7.10
12.66
30.52
45.13
55.31
60.72
62.06
60.79
58.26
55.14
51.44
47.11
42.77
39.86
40.24
45.30
55.04
67.63
79.62
86.71
84.86
71.42
46.12
11.56
-27.14
-63.30
-90.34
-103.71
-102.26
-88.75
-69.06
-50.27
-38.18
-35.24
-39.61
-45.79
-46.51
-35.49
-9.92
28.13
71.61
110.11
132.70
131.45
104.61
58.11
4.36
-41.51
-66.59
-64.58
-37.38
6.38
55.14
98.35
129.14
144.79
145.90
135.11
116.12
93.22
70.85
52.96
42.09
38.96
42.58
51.03
62.19
74.14
84.97
92.59
94.74
89.53
76.22
55.57
30.10
3.49
-20.04
-36.56
-43.23
-39.16
-25.95
-7.59
10.42
22.94
27.30
24.65
19.78
19.01
27.07
44.51
66.86
86.22
94.43
86.29
61.05
21.99
-25.54
-75.80
-123.31
-162.19
-185.51
-185.99
-158.73
-104.39
-31.11
46.56
111.92
151.52
159.01
135.84
88.98
27.68
-38.71
-101.25
-150.72
-177.93
-175.96
-143.59
-87.72
-22.54
35.12
72.34
85.09
78.78
64.59
53.28
50.16
53.53
56.97
53.12
36.89
6.73
-35.65
-86.03
-138.50
-185.76
-220.02
-234.57
-225.50
-192.66
-139.55
-72.62
-0.35
67.75
122.52
157.01
168.49
159.46
136.73
108.69
81.91
59.22
39.77
21.00
0.83
-21.43
-45.19
-69.31
-92.58
-113.67
-131.04
-143.39
-150.55
-154.11
-156.68
-160.46
-165.95
-171.30
-173.56
-170.34
-161.10
-147.25
-131.20
-115.42
-101.86
-92.01
-86.84
-86.35
-88.72
-89.94
-84.39
-66.46
-32.64
16.87
77.55
141.34
198.22
238.46
254.96
245.47
213.62
168.78
123.49
89.48
73.75
76.82
93.70
116.93
139.52
156.78
167.11
171.60
173.50
177.30
187.44
206.39
232.89
261.19
281.95
286.13
268.88
231.64
181.27
127.09
77.28
36.15
3.58
-24.74
-52.49
-79.61
-102.24
-115.56
-117.41
-110.08
-99.46
-91.73
-92.34
-100.00
-107.28
-105.88
-93.00
-73.89
-58.73
-56.77
-71.36
-103.15
-146.54
-192.18
-232.03
-263.73
-290.64
-318.42
-351.39
-390.79
-440.83
-501.12
-565.28
-623.45
-667.24
-692.51
-699.19
-689.98
-631.64
-515.42
-361.82
-207.75
-81.29
8.79
66.66
100.76
119.09
127.88
125.97
113.69
94.98
75.72
60.20
49.74
43.86
42.13
45.01
49.47
50.71
48.90
46.96
47.41
51.05
58.09
68.69
83.07
98.37
112.28
124.74
136.68
148.68
160.49
173.01
187.37
204.43
222.94
241.46
259.32
275.97
290.53
302.13
313.29
327.15
346.72
374.16
410.87
456.61
507.33
554.33
585.89
594.61
575.56
528.36
458.57
378.05
302.60
247.34
222.21
229.35
267.82
327.70
392.28
443.51
468.61
463.80
433.40
386.30
299.88
172.27
21.03
-125.38
-244.58
-328.36
-379.25
-404.75
-413.85
-414.60
-407.56
-392.89
-372.04
-347.84
-322.83
-298.58
-276.25
-257.11
-242.27
-228.16
-212.21
-193.92
-174.59
-155.85
-138.50
-122.91
-109.61
-99.19
-89.52
-79.25
-68.43
-58.21
-50.01
-44.58
-41.66
-41.00
-42.24
-43.72
-44.12
-42.87
-39.96
-35.97
-30.82
-24.29
-16.35
-7.35
2.58
12.94
22.80
31.12
36.31
37.80
35.56
29.84
21.01
9.57
-4.02
-19.25
-31.55
-40.95
-47.73
-52.16
-54.46
-54.87
-53.69
-51.29
-48.06
-44.34
-40.97
-38.03
-35.33
-32.65
-29.85
-26.97
-24.21
-21.82
-19.95
-19.06
-18.85
-18.72
-18.16
-16.86
-14.99
-13.11
-11.90
-11.85
-13.30
-15.67
-17.98
-19.30
-19.17
-17.92
-16.53
-16.19
-17.75
-21.43
-26.33
-30.94
-34.02
-34.93
-34.04
-32.50
-31.70
-32.78
-36.59
-43.41
-52.77
-63.03
-70.93
-72.17
-62.96
-42.06
-12.01
21.31
50.74
71.51
82.24
85.13
84.07
82.30
80.81
78.72
74.72
68.79
62.71
58.94
59.27
63.58
69.80
74.96
76.62
73.99
68.36
62.28
58.29
57.97
61.64
68.67
77.70
86.58
92.25
91.03
79.67
56.87
24.52
-12.39
-47.42
-75.14
-93.21
-102.56
-106.03
-106.49
-105.49
-103.32
-100.01
-96.37
-93.95
-94.37
-97.93
-103.16
-107.38
-108.22
-104.68
-97.88
-90.98
-86.31
-85.16
-86.70
-88.31
-86.67
-79.32
-65.77
-47.85
-28.96
-12.86
-2.85
-0.75
-6.27
-16.57
-26.41
-29.24
-19.21
6.11
43.70
84.81
117.70
132.62
126.27
103.31
73.87
48.58
33.74
29.68
32.39
37.59
43.46
51.18
62.65
77.73
93.11
103.63
105.34
97.75
83.58
66.46
48.46
29.13
6.92
-18.41
-44.10
-64.85
-75.34
-73.15
-60.10
-41.35
-23.10
-10.26
-4.98
-6.81
-14.01
-24.98
-39.05
-56.07
-74.97
-94.62
-114.22
-133.01
-150.42
-165.48
-176.96
-183.67
-184.11
-177.37
-160.59
-130.76
-86.34
-29.00
35.54
98.35
149.45
179.70
186.34
173.72
150.08
122.59
94.03
63.45
30.72
-3.77
-36.29
-60.78
-72.72
-72.12
-63.41
-52.36
-41.75
-29.98
-12.83
13.79
50.52
91.89
129.56
156.25
166.89
163.44
153.03
143.44
139.15
139.68
140.68
137.63
128.47
114.28
98.45
83.87
71.45
60.36
49.15
36.89
23.83
11.27
0.64
-6.80
-10.88
-12.61
-13.60
-15.28
-18.34
-22.44
-26.56
-29.69
-30.99
-30.46
-28.83
-27.09
-26.11
-26.21
-27.09
-28.10
-28.62
-28.26
-27.05
-25.37
-23.71
-22.43
-21.64
-21.17
-20.72
-20.07
-19.10
-17.87
-16.51
-15.17
-13.97
-12.91
-11.97
-11.09
-10.27
-9.49
-8.79
-8.13
-7.47
-6.77
-5.99
-5.15
-4.29
-3.47
-2.57
-1.72
-0.89
0.02
1.04
2.26
3.61
5.03
6.40
7.64
8.73
9.80
11.05
12.63
14.61
16.90
19.24
21.38
23.05
24.27
25.32
26.66
28.69
31.60
35.16
38.84
42.03
44.18
45.26
45.71
46.20
47.21
48.72
50.00
49.75
46.58
39.49
28.33
13.97
-2.05
-18.32
-33.85
-48.46
-62.57
-76.10
-89.68
-103.54
-117.74
-132.02
-145.12
-154.36
-156.05
-147.26
-126.61
-96.61
-63.00
-32.66
-11.00
0.14
2.54
-0.01
-3.95
-7.44
-10.61
-14.25
-18.55
-22.78
-25.75
-26.77
-26.28
-25.63
-26.16
-28.82
-33.24
-38.08
-41.68
-42.67
-40.58
-35.72
-28.97
-21.05
-12.41
-2.50
9.47
24.10
41.38
60.48
79.85
97.46
111.21
119.37
121.25
117.26
109.00
98.49
87.38
76.44
65.44
53.65
40.64
26.90
13.64
2.29
-6.55
-13.50
-20.22
-28.29
-38.62
-50.79
-63.07
-73.41
-80.07
-82.64
-82.08
-79.97
-77.54
-75.19
-72.18
-66.46
-56.16
-40.06
-18.36
7.87
36.79
65.73
90.94
108.02
113.20
103.69
82.22
54.67
28.16
8.37
-2.51
-5.94
-5.12
-2.79
-0.04
3.87
9.44
15.98
21.53
23.55
20.19
11.02
-2.61
-17.78
-30.01
-34.79
-29.25
-13.28
9.74
33.78
52.43
61.49
60.59
52.90
42.87
33.98
27.43
22.34
17.31
11.93
7.22
4.91
6.15
10.52
16.19
20.92
22.86
21.60
18.11
14.12
11.28
10.36
10.86
11.21
10.01
6.23
-0.16
-8.18
-16.29
-23.01
-27.54
-29.96
-31.13
-32.14
-33.88
-36.53
-39.48
-41.61
-41.97
-40.21
-36.94
-33.48
-31.33
-31.51
-33.94
-37.45
-40.25
-40.86
-38.87
-35.23
-31.92
-31.01
-33.44
-38.68
-44.80
-49.14
-49.74
-46.15
-38.98
-29.23
-17.55
-4.41
9.46
22.13
30.70
32.48
26.64
15.11
1.84
-9.24
-16.26
-20.56
-25.02
-30.75
-35.32
-33.17
-18.83
8.64
43.52
74.85
91.20
86.41
62.77
29.87
-0.27
-17.76
-20.25
-12.32
-1.43
6.76
10.90
13.35
17.23
23.72
31.33
36.69
36.96
31.63
22.78
13.98
8.69
8.66
13.12
19.41
24.26
25.28
21.98
15.85
9.60
5.89
6.14
10.05
15.79
20.81
23.03
21.77
17.91
13.46
10.68
10.89
14.22
19.44
24.65
28.09
28.62
25.68
19.05
8.95
-3.48
-15.58
-23.69
-24.20
-15.50
0.63
19.27
34.23
40.60
37.09
26.23
12.43
-0.26
-9.91
-16.73
-21.96
-26.32
-29.47
-30.49
-28.81
-24.95
-20.30
-16.48
-14.77
-15.25
-17.05
-18.75
-19.10
-17.57
-14.54
-11.07
-8.32
-7.09
-7.40
-8.65
-9.88
-10.27
-9.50
-7.79
-5.81
-4.31
-3.74
-4.15
-5.13
-6.12
-6.59
-6.39
-5.69
-4.94
-4.68
-5.21
-6.50
-8.18
-9.69
-10.60
-10.79
-10.53
-10.44
-11.19
-13.15
-16.18
-19.66
-22.71
-24.63
-25.28
-25.16
-25.28
-26.77
-30.22
-35.41
-41.27
-46.39
-49.65
-50.83
-50.70
-50.78
-52.45
-56.35
-61.74
-66.85
-69.43
-67.44
-59.39
-44.46
-22.53
5.03
34.86
61.84
80.37
86.67
80.62
65.77
49.02
36.86
32.59
35.53
42.43
49.80
55.83
60.74
65.09
68.84
70.73
69.21
63.79
55.87
48.25
43.52
43.09
45.96
49.54
50.80
47.49
38.63
24.39
5.86
-15.24
-36.15
-53.22
-62.90
-63.13
-54.68
