1593708143.00
64.000000
-0.00
-0.00
-0.00
-0.00
-0.00
-0.00
-0.00
-0.00
-0.00
-0.00
0.00
0.01
0.01
-0.00
-0.03
-0.05
-0.05
0.00
0.13
0.36
0.66
1.01
1.37
1.72
2.06
2.40
2.79
3.24
3.80
4.42
5.06
5.66
6.20
6.68
7.15
7.68
8.31
9.14
10.09
11.04
11.88
12.56
13.14
13.76
14.65
15.96
17.91
20.32
22.90
25.38
27.58
29.57
31.68
34.32
37.81
42.54
48.15
54.10
59.83
64.97
69.58
74.14
79.34
85.71
93.76
103.00
112.62
121.73
129.77
136.75
143.30
150.75
157.77
166.64
177.95
191.79
206.97
220.57
228.25
225.36
208.53
176.87
132.76
80.05
23.07
-34.94
-92.44
-149.16
-205.23
-260.37
-313.74
-363.87
-409.83
-450.91
-486.50
-515.74
-537.23
-549.22
-549.96
-538.37
-514.21
-478.67
-433.88
-382.45
-327.02
-269.84
-212.63
-156.66
-102.95
-52.37
-5.90
35.58
71.43
101.35
125.50
144.38
158.69
169.15
176.37
180.75
182.57
182.07
179.51
175.23
169.65
163.18
156.15
148.81
141.30
133.69
126.02
118.33
110.69
103.16
95.80
88.68
81.83
75.25
68.95
62.95
57.25
51.86
46.78
42.03
37.59
33.45
29.61
26.07
22.81
19.83
17.11
14.67
12.48
10.54
8.84
7.35
6.06
4.97
4.04
3.27
2.64
2.12
1.68
1.30
0.94
0.63
0.35
0.16
0.05
0.02
0.06
0.11
0.11
0.02
-0.15
-0.37
-0.59
-0.74
-0.78
-0.74
-0.70
-0.74
-0.92
-1.22
-1.55
-1.74
-1.70
-1.39
-0.93
-0.54
-0.47
-0.84
-1.63
-2.59
-3.39
-3.71
-3.44
-2.75
-2.10
-1.99
-2.78
-4.44
-6.52
-8.30
-9.08
-8.59
-7.11
-5.52
-4.84
-5.79
-8.42
-11.99
-15.23
-16.92
-16.47
-14.24
-11.39
-9.48
-9.76
-12.90
-18.56
-25.30
-30.78
-32.40
-28.07
-17.32
-1.94
14.30
26.70
31.56
27.54
16.29
1.82
-10.96
-17.60
-15.56
-4.60
13.04
33.63
53.40
69.97
83.38
95.31
107.31
117.69
122.61
116.20
94.25
57.49
11.91
-33.20
-69.00
-90.52
-96.87
-90.35
-74.85
-54.38
-32.32
-11.67
5.03
16.34
22.94
27.12
31.57
37.45
42.56
43.33
35.17
15.52
-14.31
-48.87
-80.13
-100.22
-104.29
-92.28
-68.38
-39.49
-12.42
8.17
20.58
25.68
25.76
23.35
20.51
18.60
18.02
18.56
19.74
20.72
20.29
17.02
9.76
-1.31
-13.77
-23.24
-24.83
-15.53
3.67
27.47
48.18
59.03
57.01
44.08
25.58
7.46
-6.33
-14.85
-19.36
-21.64
-22.68
-22.36
-20.06
-15.62
-9.80
-3.97
0.43
2.59
2.60
1.23
-0.39
-1.19
-0.63
1.26
3.95
6.65
8.67
9.93
10.35
10.07
9.42
8.75
8.31
8.12
7.97
7.54
6.71
5.58
4.53
3.94
3.87
3.92
3.35
1.49
-1.90
-6.42
-11.14
-14.90
-16.65
-15.81
-12.47
-7.28
-1.30
4.22
8.09
9.44
7.88
3.64
-2.52
-9.49
-16.02
-21.04
-23.88
-24.46
-23.30
-21.37
-19.76
-19.29
-20.25
-22.25
-24.44
-25.83
-25.67
-23.65
-19.94
-15.00
-9.34
-3.36
2.70
8.73
14.71
20.65
26.49
31.97
36.59
39.62
40.29
38.16
33.30
26.36
18.46
10.82
4.50
0.20
-1.77
-1.48
0.71
4.07
7.66
10.45
11.56
10.60
7.68
3.43
-1.35
-5.97
-9.95
-13.05
-15.14
-16.09
-15.88
-14.70
-13.03
-11.65
-11.41
-12.87
-16.04
-20.32
-24.73
-28.20
-30.03
-29.96
-28.17
-25.05
-20.95
-16.10
-10.70
-5.02
0.55
5.53
9.50
12.24
13.80
14.32
13.92
12.52
9.96
6.11
1.08
-4.76
-10.87
-16.78
-22.18
-26.93
-30.85
-33.52
-34.20
-32.05
-26.48
-17.54
-6.14
6.08
17.16
25.40
29.87
30.67
28.81
25.80
23.09
21.54
21.34
22.05
23.02
23.66
23.60
22.74
21.14
19.11
17.14
15.90
15.95
17.42
19.85
22.31
23.87
24.10
23.34
22.57
22.86
24.78
28.15
32.14
35.70
37.91
38.16
36.17
31.89
25.49
17.47
8.68
0.26
-6.76
-11.74
-14.75
-16.42
-17.73
-19.46
-21.98
-25.10
-28.32
-31.15
-33.41
-35.35
-37.57
-40.67
-44.91
-49.89
-54.45
-56.92
-55.62
-49.55
-38.86
-24.92
-9.97
3.53
13.62
19.29
20.57
18.24
13.45
7.35
0.88
-5.23
-10.38
-14.10
-16.07
-16.29
-15.08
-13.03
-10.74
-8.53
-6.27
-3.46
0.46
5.67
11.71
17.43
21.37
22.23
19.38
13.06
4.31
-5.47
-14.94
-23.16
-29.71
-34.48
-37.47
-38.62
-37.68
-34.44
-28.85
-21.19
-12.22
-3.09
4.76
9.88
11.04
7.69
0.09
-10.64
-22.82
-34.77
-45.22
-53.64
-60.06
-64.72
-67.76
-68.95
-67.98
-64.80
-60.01
-54.87
-51.02
-49.89
-52.15
-57.52
-65.02
-73.51
-82.36
-91.66
-102.14
-114.50
-128.89
-144.53
-159.90
-173.37
-183.84
-191.22
-196.55
-201.61
-208.59
-219.81
-237.31
-262.45
-295.10
-333.00
-371.66
-405.21
-428.15
-437.16
-432.15
-416.04
-393.32
-368.10
-342.93
-318.53
-294.54
-270.51
-246.41
-222.54
-199.07
-175.72
-151.84
-126.94
-101.03
-74.75
-49.03
-24.64
-1.71
20.32
42.36
65.26
89.34
114.23
139.15
163.26
186.21
208.21
229.96
252.20
275.29
299.01
322.72
345.67
367.43
388.05
408.07
428.34
449.93
473.90
500.87
530.26
559.66
584.75
600.13
601.04
585.08
553.16
509.11
458.03
404.40
350.99
298.92
248.62
200.90
157.25
119.23
87.60
61.68
39.67
19.54
0.06
-18.75
-35.69
-49.10
-57.75
-61.38
-60.79
-57.45
-52.92
-48.34
-44.08
-39.81
-34.92
-28.96
-21.89
-14.26
-6.94
-0.77
3.71
6.51
8.08
9.06
10.08
11.40
12.97
14.48
15.56
15.98
15.72
14.92
13.80
12.47
10.93
9.14
7.08
4.89
2.79
1.06
-0.18
-0.99
-1.58
-2.19
-3.00
-4.03
-5.19
-6.33
-7.30
-8.09
-8.76
-9.50
-10.52
-11.97
-13.82
-15.80
-17.44
-18.24
-17.86
-16.34
-14.01
-11.39
-8.88
-6.62
-4.53
-2.41
-0.16
2.14
4.27
6.05
7.39
8.39
9.21
9.98
10.70
11.24
11.45
11.24
10.66
9.86
9.04
8.33
7.75
7.19
6.46
5.44
4.13
2.63
1.13
-0.21
-1.33
-2.29
-3.23
-4.32
-5.64
-7.18
-8.87
-10.63
-12.44
-14.38
-16.56
-19.02
-21.68
-24.26
-26.38
-27.70
-28.04
-27.48
-26.26
-24.66
-22.84
-20.85
-18.61
-16.15
-13.60
-11.22
-9.32
-8.06
-7.45
-7.39
-7.75
-8.42
-9.42
-10.74
-12.35
-14.16
-15.99
-17.62
-18.83
-19.41
-19.17
-18.02
-16.02
-13.31
-10.11
-6.55
-2.63
1.71
6.49
11.56
16.51
20.85
24.09
25.99
26.54
25.98
24.64
22.84
20.83
18.75
16.66
14.57
12.40
10.05
7.43
4.60
1.71
-0.95
-3.03
-4.27
-4.59
-4.07
-2.93
-1.40
0.33
2.15
4.03
5.91
7.68
9.19
10.24
10.77
10.80
10.49
10.06
9.64
9.29
8.93
8.45
7.79
7.00
6.23
5.69
5.50
5.68
6.12
6.60
6.97
7.11
7.00
6.63
6.01
5.17
4.19
3.29
2.71
2.60
2.88
3.16
2.93
1.76
-0.39
-3.18
-6.05
-8.51
-10.39
-11.85
-13.27
-14.87
-16.61
-18.14
-19.01
-18.89
-17.76
-15.84
-13.52
-11.14
-8.91
-6.85
-4.90
-3.02
-1.20
0.45
1.80
2.73
3.19
3.25
3.04
2.73
2.48
2.34
2.29
2.22
2.01
1.55
0.87
0.08
-0.63
-1.15
-1.42
-1.54
-1.62
-1.72
-1.85
-1.99
-2.15
-2.45
-3.08
-4.18
-5.76
-7.62
-9.43
-10.88
-11.82
-12.30
-12.55
-12.85
-13.43
-14.33
-15.49
-16.70
-17.73
-18.36
-18.42
-17.87
-16.72
-15.07
-13.06
-10.80
-8.41
-6.00
-3.66
-1.50
0.35
1.78
2.70
3.13
3.17
2.99
2.73
2.47
2.24
1.98
1.67
1.31
0.98
0.76
0.71
0.77
0.85
0.80
0.57
0.15
-0.38
-0.94
-1.46
-1.90
-2.25
-2.51
-2.69
-2.88
-3.22
-3.88
-5.00
-6.59
-8.54
-10.59
-12.49
-14.01
-15.07
-15.72
-16.09
-16.35
-16.55
-16.64
-16.47
-15.87
-14.77
-13.19
-11.32
-9.35
-7.41
-5.58
-3.83
-2.17
-0.65
0.63
1.58
2.16
2.41
2.42
2.28
2.06
1.79
1.48
1.13
0.75
0.37
0.03
-0.23
-0.37
-0.37
-0.31
-0.32
-0.56
-1.17
-2.19
-3.55
-5.09
-6.64
-8.08
-9.36
-10.56
-11.80
-13.22
-14.94
-16.97
-19.24
-21.61
-23.89
-25.95
-27.76
-29.41
-31.06
-32.91
-35.12
-37.74
-40.63
-43.51
-45.94
-47.43
-47.59
-46.20
-43.36
-39.45
-35.02
-30.68
-26.92
-24.05
-22.17
-21.18
-20.91
-21.12
-21.63
-22.26
-22.92
-23.57
-24.21
-24.87
-25.57
-26.29
-26.97
-27.51
-27.77
-27.60
-26.80
-25.15
-22.43
-18.43
-13.05
-6.33
1.46
9.89
18.42
26.56
33.90
40.23
45.46
49.55
52.53
54.45
55.39
55.51
54.99
53.94
52.34
50.11
47.13
43.38
39.03
34.30
29.47
24.79
20.43
16.50
13.08
10.17
7.71
5.51
3.36
1.12
-1.13
-3.15
-4.60
-5.25
-5.08
-4.24
-2.96
-1.46
0.12
1.67
3.05
4.09
4.65
4.69
4.31
3.72
3.18
2.93
3.10
3.73
4.76
6.03
7.33
8.41
9.06
9.13
8.54
7.30
5.46
3.11
0.38
-2.56
-5.45
-8.05
-10.05
-11.22
-11.40
-10.62
-9.04
-6.93
-4.61
-2.37
-0.49
0.82
1.47
1.47
0.98
0.27
-0.38
-0.77
-0.85
-0.67
-0.32
0.21
1.00
2.17
3.78
5.77
7.96
10.14
12.22
14.25
16.37
18.73
21.37
24.23
27.11
29.81
32.17
34.08
35.48
36.32
36.55
36.14
35.14
33.71
32.08
30.49
29.09
27.86
26.62
25.07
22.95
20.12
16.64
12.70
8.61
4.65
1.06
-2.03
-4.58
-6.71
-8.55
-10.24
-11.78
-13.08
-13.95
-14.23
-13.91
-13.14
-12.19
-11.25
-10.41
-9.63
-8.80
-7.85
-6.82
-5.81
-4.98
-4.43
-4.23
-4.34
-4.69
-5.10
-5.38
-5.34
-4.89
-4.09
-3.17
-2.39
-1.98
-2.01
-2.44
-3.14
-3.96
-4.79
-5.61
-6.44
-7.36
-8.46
-9.77
-11.22
-12.67
-13.85
-14.55
-14.63
-14.10
-13.11
-11.87
-10.60
-9.43
-8.49
-7.83
-7.56
-7.76
-8.46
-9.55
-10.76
-11.83
-12.46
-12.53
-12.08
-11.24
-10.21
-9.11
-7.99
-6.79
-5.49
-4.12
-2.79
-1.63
-0.75
-0.18
0.12
0.23
0.18
-0.00
-0.29
-0.62
-0.86
-0.90
-0.66
-0.15
0.47
1.00
1.28
1.24
0.96
0.62
0.37
0.31
0.39
0.47
0.37
0.01
-0.62
-1.42
-2.27
-3.10
-3.97
-4.94
-6.08
-7.32
-8.54
-9.56
-10.32
-10.87
-11.35
-11.92
-12.62
-13.30
-13.69
-13.56
-12.83
-11.68
-10.43
-9.39
-8.65
-8.05
-7.27
-6.10
-4.57
-2.95
-1.62
-0.80
-0.47
-0.41
-0.37
-0.31
-0.34
-0.67
-1.43
-2.55
-3.86
-5.19
-6.49
-7.83
-9.34
-11.09
-13.09
-15.27
-17.60
-20.05
-22.60
-25.24
-27.93
-30.67
-33.50
-36.44
-39.35
-41.99
-44.08
-45.45
-46.03
-45.97
-45.55
-45.11
-44.86
-44.70
-44.43
-44.00
-43.65
-43.89
-45.22
-47.93
-51.86
-56.39
-60.41
-62.98
-63.74
-62.92
-61.08
-58.67
-55.92
-52.87
-49.51
-45.02
-38.96
-31.51
-23.16
-14.01
-3.28
10.25
27.54
48.54
73.54
101.24
128.80
152.91
171.40
184.03
191.64
195.14
194.95
193.69
193.15
193.66
194.40
194.86
195.57
197.40
200.89
206.02
215.80
231.82
253.09
276.14
297.04
313.18
323.04
326.08
301.77
242.02
155.39
63.09
-16.43
-75.89
-116.29
-141.91
-156.82
-164.02
-162.33
-152.17
-136.23
-119.06
-105.85
-97.77
-94.36
-94.51
-96.98
-98.00
-95.89
-90.94
-85.45
-81.99
-81.88
-85.88
-94.62
-109.49
-124.53
-137.67
-148.94
-159.95
-172.31
-186.24
-200.82
-214.37
-224.97
-230.09
-228.77
-220.71
-206.23
-185.89
-160.26
-130.47
-98.39
-66.34
-36.20
-9.96
11.38
27.66
39.26
46.87
51.08
52.48
51.73
49.71
47.00
44.27
41.97
40.17
38.58
36.76
34.51
32.01
29.87
28.51
28.08
28.29
28.42
27.83
26.30
24.25
22.59
22.28
23.76
26.86
30.82
34.60
37.21
37.94
36.42
32.66
26.99
20.07
12.81
6.23
1.19
-1.80
-2.77
-2.27
-1.23
-0.70
-1.53
-4.09
-8.16
-13.04
-17.78
-21.53
-23.78
-24.40
-23.69
-22.10
-20.21
-18.63
-17.86
-18.24
-19.76
-21.99
-24.15
-25.33
-24.82
-22.38
-18.28
-13.19
-7.83
-2.75
1.75
5.57
8.64
10.79
11.74
11.22
9.11
5.65
1.42
-2.80
-6.29
-8.45
-9.21
-9.06
-8.93
-9.74
-11.75
-14.60
-17.54
-19.73
-20.45
-19.51
-17.54
-15.84
-15.90
-18.45
-23.25
-29.19
-34.85
-38.75
-40.51
-41.26
-43.36
-49.47
-60.50
-75.67
-92.80
-108.87
-119.57
-121.44
-113.78
-99.70
-86.14
-79.91
-87.15
-111.64
-152.96
-203.31
-251.40
-287.18
-305.57
-308.32
-297.72
-277.43
-251.57
-223.21
-189.89
-148.24
-98.12
-44.15
4.58
46.09
82.46
117.95
157.30
208.78
277.88
363.41
457.67
548.18
631.76
708.96
779.64
805.76
754.90
625.24
451.18
298.27
170.78
61.44
-36.23
-127.23
-208.14
-267.73
-294.83
-285.42
-246.26
-188.84
-126.53
-74.83
-43.76
-32.22
-27.83
-17.16
5.78
39.08
70.35
92.23
101.94
100.01
88.92
73.50
58.54
42.87
23.95
-2.87
-37.25
-75.45
-112.45
-144.17
-168.43
-185.00
-188.98
-178.81
-158.45
-133.43
-108.27
-85.29
-65.28
-48.88
-35.58
-24.53
-15.59
-9.26
-5.45
-3.69
-3.60
-5.34
-11.42
-22.28
-37.84
-57.41
-78.52
-96.50
-105.52
-100.79
-76.82
-39.48
1.59
36.89
60.41
71.39
73.43
71.74
70.58
71.69
73.89
76.10
77.20
76.40
73.31
68.66
62.61
56.13
50.43
46.10
44.06
44.40
46.74
50.55
55.11
59.33
61.88
61.12
55.32
44.17
28.22
9.24
-10.53
-29.01
-45.05
-58.49
-70.34
-82.81
-95.57
-109.29
-124.49
-141.33
-159.56
-178.63
-197.42
-214.19
-226.63
-232.09
-228.82
-216.48
-196.72
-172.82
-148.67
-127.07
-108.66
-91.70
-73.23
-51.00
-24.53
4.55
33.34
59.22
81.22
100.42
119.05
139.10
160.70
182.01
199.81
210.90
213.33
206.89
192.94
173.61
151.12
127.35
104.02
82.70
64.79
51.22
42.10
36.64
33.33
30.43
26.45
20.61
12.96
4.22
-4.54
-12.30
-18.46
-22.91
-25.94
-28.00
-29.33
-29.76
-28.80
-25.85
-20.64
-13.55
-5.55
2.00
7.73
10.61
10.27
7.07
2.10
-3.05
-6.83
-8.21
-7.20
-4.89
-3.08
-3.57
-7.42
-14.58
-23.96
-34.01
-43.28
-50.91
-56.72
-60.95
-64.03
-66.37
-68.42
-70.71
-74.00
-79.14
-86.87
-97.40
-110.38
-124.87
-139.69
-153.80
-166.64
-178.11
-188.43
-197.85
-206.52
-214.55
-222.26
-230.30
-239.58
-250.72
-263.35
-275.65
-284.29
-285.24
-275.03
-252.02
-217.01
-173.10
-124.47
-75.03
-27.27
18.03
61.47
104.15
147.03
190.80
236.01
283.03
331.36
378.73
420.68
451.34
465.37
460.38
438.21
404.37
365.71
327.69
292.68
260.27
229.05
198.54
170.00
145.63
127.02
113.97
104.58
96.44
88.11
79.77
72.76
68.53
67.32
67.79
67.62
64.60
57.76
47.73
36.32
25.65
17.20
11.32
7.30
3.90
-0.04
-5.09
-11.07
-17.20
-22.46
-26.10
-27.91
-28.38
-28.42
-28.95
-30.50
-32.99
-35.87
-38.44
-40.19
-40.89
-40.57
-39.23
-36.89
-33.69
-29.93
-25.98
-22.16
-18.62
-15.29
-12.00
-8.60
-5.13
-1.84
0.96
3.11
4.64
5.64
6.19
6.26
6.07
5.89
6.02
6.64
7.74
9.16
10.46
11.34
11.61
12.11
13.70
16.72
20.68
24.58
27.45
28.48
27.75
25.78
24.81
26.62
31.75
39.15
47.21
54.70
60.70
65.41
68.96
73.51
80.31
88.96
97.48
104.03
108.17
110.25
112.32
115.91
124.48
139.59
160.08
182.25
202.40
218.84
231.33
242.42
234.89
199.00
136.53
60.49
-15.40
-83.89
-138.55
-185.68
-227.89
-264.32
-289.62
-299.86
-292.43
-269.84
-238.07
-204.09
-175.03
-154.86
-145.43
-143.98
-146.31
-148.50
-148.96
-147.97
-147.13
-149.47
-157.06
-171.39
-191.02
-212.70
-231.90
-244.08
-245.02
-231.85
-204.66
-165.91
-120.53
-73.48
-28.90
10.47
42.62
65.91
78.80
80.14
70.67
53.33
33.09
15.16
3.10
-2.40
-2.90
-0.83
1.82
4.39
7.09
10.33
14.15
18.30
22.55
27.05
32.06
37.30
41.32
41.72
36.24
24.27
7.94
-8.20
-18.87
-20.49
-12.94
0.27
13.69
22.46
24.45
20.85
14.99
10.33
8.74
9.95
12.36
14.31
15.22
15.70
16.97
19.82
23.92
27.87
29.82
28.47
23.72
16.88
10.05
5.25
3.60
4.87
7.71
10.28
11.00
9.10
4.73
-1.25
-7.58
-12.93
-16.07
-16.05
-12.51
-5.90
2.42
10.46
16.13
18.08
16.09
11.19
5.17
-0.11
-3.29
-3.80
-1.78
2.20
7.36
12.88
18.00
22.02
24.46
25.18
24.45
23.00
21.76
21.61
23.03
25.91
29.53
32.82
34.70
34.41
31.80
27.30
21.79
16.31
11.75
8.60
6.83
5.93
5.09
3.51
0.63
-3.57
-8.54
-13.33
-16.87
-18.37
-17.56
-14.92
-11.56
-8.97
-8.56
-11.18
-16.75
-24.30
-32.18
-38.75
-42.82
-44.04
-42.81
-40.01
-36.57
-33.16
-30.18
-27.73
-25.82
-24.36
-23.21
-22.12
-20.78
-18.98
-16.70
-14.20
-11.88
-10.12
-9.03
-8.33
-7.43
-5.64
-2.36
2.77
9.84
18.62
28.44
38.01
45.53
49.04
47.30
40.38
29.77
17.80
6.63
-2.55
-9.73
-15.52
-20.36
-24.12
-26.27
-26.44
-24.86
-22.23
-19.16
-15.69
-11.23
-5.07
2.93
11.99
20.59
27.24
31.01
31.92
30.68
28.37
25.93
23.89
22.34
20.84
18.71
15.45
11.15
6.54
2.64
0.24
-0.71
-1.03
-1.76
-3.15
-4.03
-2.02
5.46
19.83
40.49
64.99
90.27
113.82
134.37
151.41
164.44
172.39
173.96
168.64
157.41
142.65
127.06
112.34
98.45
83.96
67.42
48.62
28.92
10.52
-4.75
-16.45
-25.56
-33.64
-41.84
-50.41
-58.85
-66.38
-72.47
-76.97
-80.01
-81.76
-82.38
-82.14
-81.54
-81.18
-81.36
-81.77
-81.43
-79.28
-74.77
-68.19
-60.68
-53.69
-48.36
-45.04
-43.45
-43.16
-44.26
-46.89
-50.49
-53.29
-52.72
-46.29
-32.71
-12.39
12.81
40.13
67.42
94.18
121.08
148.64
175.80
199.55
215.62
219.83
208.87
181.80
140.83
90.53
36.40
-16.66
-65.12
-107.05
-137.59
-153.30
-155.19
-147.93
-136.94
-125.98
-116.60
-108.51
-100.27
-90.65
-79.98
-69.86
-61.87
-56.93
-55.03
-55.58
-57.83
-60.97
-63.62
-63.81
-59.89
-48.76
-29.22
-3.00
25.43
51.01
70.82
85.60
98.70
113.65
131.35
148.26
157.85
154.05
135.50
107.16
78.25
57.63
49.59
52.15
58.36
61.12
54.90
38.49
15.37
-8.40
-27.26
-38.09
-40.41
-35.39
-24.53
-9.19
9.28
29.05
47.09
59.52
62.82
55.36
38.36
15.81
-7.03
-25.48
-37.34
-43.64
-47.73
-53.33
-62.47
-74.69
-87.62
-98.49
-105.38
-107.87
-107.06
-104.71
-102.51
-101.56
-102.22
-104.19
-106.70
-108.50
-108.08
-103.88
-94.60
-79.56
-59.07
-34.59
-8.52
16.30
37.24
52.50
61.28
63.83
61.16
54.78
46.45
37.91
30.55
25.06
21.56
19.44
17.70
15.56
12.77
9.61
6.44
3.39
0.12
-3.71
-8.51
-14.65
-22.48
-32.49
-45.63
-63.28
-86.86
-116.84
-151.50
-187.16
-218.89
-241.73
-252.13
-249.36
-236.06
-217.54
-200.14
-187.99
-183.86
-189.38
-205.15
-230.00
-260.73
-292.28
-318.40
-333.09
-329.28
-304.28
-261.21
-207.13
-148.95
-90.81
-33.92
22.21
77.80
136.51
198.78
260.72
316.53
362.67
399.32
429.52
457.65
487.66
528.15
582.63
646.06
706.65
751.99
773.64
769.11
741.73
662.33
527.54
362.86
206.42
82.30
-5.73
-64.41
-101.51
-122.79
-135.04
-138.04
-132.56
-122.55
-114.96
-112.90
-116.01
-122.05
-128.82
-138.67
-149.10
-157.94
-165.37
-174.02
-186.45
-204.27
-229.10
-255.55
-284.91
-314.98
-342.79
-366.33
-385.70
-401.34
-413.01
-419.19
-398.28
-343.55
-263.70
-178.54
-105.40
-52.27
-18.37
1.34
12.87
19.80
20.27
14.10
4.46
-2.71
-1.96
9.23
30.31
57.60
84.31
101.87
105.91
97.95
83.82
69.56
59.57
51.10
48.20
49.08
50.94
53.54
59.49
73.57
95.10
124.12
160.17
202.55
247.49
288.45
317.73
328.56
317.45
283.93
232.76
173.06
116.72
73.42
49.10
45.52
60.99
91.22
127.69
161.27
184.73
194.70
190.18
172.10
143.11
106.99
67.80
25.53
-21.39
-74.00
-131.59
-193.32
-258.78
-326.69
-394.03
-437.37
-436.59
-391.04
-320.62
-248.12
-186.91
-140.81
-107.45
-81.91
-59.57
-40.72
-27.86
-21.99
-22.42
-24.42
-24.53
-20.83
-12.73
-0.53
12.53
22.64
28.06
29.78
30.10
30.46
31.75
34.51
39.04
43.89
46.96
47.02
44.23
39.62
33.85
27.56
21.28
16.15
12.60
10.68
10.70
13.20
17.98
22.56
22.43
12.70
-8.63
-39.83
-76.23
-111.66
-140.72
-160.35
-170.12
-170.91
-163.26
-145.44
-115.41
-73.82
-24.46
26.27
72.00
108.79
136.22
148.04
141.13
119.09
90.48
63.83
42.24
24.44
7.90
-8.77
-22.93
-32.51
-35.20
-30.61
-18.95
-2.63
14.73
30.42
44.46
55.74
66.88
81.72
103.43
136.01
180.00
231.22
281.26
319.89
337.90
330.80
299.90
236.86
148.97
55.36
-24.45
-81.88
-119.91
-146.12
-166.32
-183.23
-199.22
-212.75
-223.09
-230.66
-235.71
-237.33
-234.22
-225.82
-213.67
-198.12
-180.55
-162.98
-146.97
-132.54
-117.87
-100.48
-78.84
-53.50
-26.94
-1.72
19.32
33.68
40.16
39.62
34.53
27.94
22.35
19.13
18.73
20.53
23.02
24.53
23.84
20.66
15.64
10.31
6.97
8.32
16.54
32.09
52.93
74.81
92.53
101.86
101.17
91.97
77.97
63.57
52.12
45.28
43.18
45.20
50.69
59.24
70.43
83.60
97.81
111.96
125.11
136.55
145.92
153.07
158.02
161.00
162.40
162.75
162.55
162.09
161.24
159.40
155.74
149.57
140.77
130.12
119.07
109.20
101.61
96.23
91.68
85.54
75.02
57.75
32.49
-0.35
-38.62
-78.94
-117.63
-151.82
-180.23
-203.06
-221.48
-236.52
-248.24
-255.27
-255.11
-244.89
-222.43
-187.08
-140.20
-85.06
-26.17
31.73
84.66
130.11
167.21
196.40
218.73
234.98
245.31
249.60
248.04
241.83
233.44
225.86
221.45
220.78
222.37
223.41
221.23
214.32
202.44
185.98
164.88
138.25
104.67
63.26
14.55
-39.19
-94.47
-147.41
-194.49
-233.02
-261.36
-278.96
-286.43
-285.43
-278.41
-268.07
-256.74
-245.78
-235.55
-225.47
-214.60
-202.17
-187.92
-172.21
-155.85
-139.77
-124.66
-110.88
-98.40
-86.98
-76.39
-66.59
-57.85
-50.65
-45.46
-42.54
-41.79
-42.78
-44.75
-46.77
-47.67
-46.14
-40.94
-31.33
-17.52
-0.82
16.69
32.88
46.52
57.76
68.04
79.55
94.30
113.27
135.92
160.03
181.98
197.38
202.16
193.84
172.73
142.28
108.13
76.12
49.95
29.80
12.71
-5.50
-27.70
-53.71
-80.41
-103.43
-119.58
-128.50
-133.02
-138.17
-149.47
-171.13
-204.55
-247.60
-294.59
-337.51
-368.01
-379.98
-371.22
-343.74
-302.34
-252.31
-197.72
-141.00
-83.80
-28.20
23.06
67.42
103.77
132.94
157.01
177.56
194.17
204.24
204.33
192.31
169.05
138.62
106.76
78.66
57.21
42.48
32.58
25.16
18.38
11.10
2.28
-9.90
-28.08
-54.89
-91.38
-135.93
-184.27
-230.79
-270.60
-301.08
-322.24
-335.80
-343.52
-345.91
-342.02
-330.16
-309.07
-278.82
-240.93
-197.91
-152.46
-106.86
-62.73
-21.06
17.47
52.41
83.48
110.72
134.49
155.51
174.56
192.14
208.27
222.57
234.53
243.99
251.41
257.91
264.85
273.31
283.64
295.47
308.00
320.49
332.61
344.56
356.81
369.83
383.84
398.76
413.99
428.23
439.24
443.91
438.73
420.90
389.29
345.03
291.28
232.11
171.14
110.48
50.65
-8.55
-66.69
-121.77
-170.30
-208.38
-233.46
-245.51
-247.19
-242.74
-236.32
-230.54
-226.14
-222.59
-219.19
-215.73
-212.39
-209.16
-205.27
-199.35
-190.14
-177.36
-162.10
-146.31
-131.98
-120.19
-110.81
-102.91
-95.48
-88.10
-81.10
-75.21
-71.06
-68.87
-68.27
-68.57
-68.93
-68.53
-66.52
-62.20
-55.40
-46.95
-38.79
-33.42
-32.69
-36.72
-43.54
-49.89
-52.71
-50.55
-43.94
-34.71
-24.58
-14.10
-2.62
10.91
26.66
43.35
58.64
70.21
76.88
78.91
77.63
74.62
71.17
68.14
66.16
65.78
67.26
70.15
72.92
73.29
68.97
58.75
43.17
24.43
5.58
-10.51
-22.06
-28.59
-30.73
-29.68
-26.80
-23.26
-20.02
-17.73
-16.76
-17.21
-18.88
-21.33
-23.96
-26.13
-27.34
-27.43
-26.57
-25.25
-23.96
-23.01
-22.37
-21.78
-20.96
-19.82
-18.56
-17.59
-17.33
-18.02
-19.63
-21.91
-24.44
-26.82
-28.71
-29.92
-30.42
-30.33
-29.74
-28.68
-26.96
-24.27
-20.31
-15.03
-8.70
-1.86
4.90
11.18
16.82
21.83
26.17
29.74
32.33
33.87
34.53
34.78
35.26
36.38
38.17
40.15
41.55
41.66
40.10
36.98
32.91
28.64
24.88
22.01
20.07
18.82
17.98
17.29
16.58
15.68
14.46
12.81
10.71
8.26
5.69
3.17
0.81
-1.47
-3.79
-6.21
-8.70
-11.10
-13.26
-15.11
-16.62
-17.70
-18.18
-17.83
-16.47
-14.14
-11.05
-7.53
-3.86
-0.19
3.41
6.80
9.76
11.94
13.11
13.24
12.57
11.46
10.23
8.98
7.65
6.06
4.12
1.85
-0.58
-2.95
-5.07
-6.87
-8.35
-9.55
-10.51
-11.28
-11.97
-12.69
-13.55
-14.61
-15.80
-16.93
-17.82
-18.34
-18.52
-18.56
-18.73
-19.26
-20.23
-21.54
-22.97
-24.22
-25.01
-25.10
-24.35
-22.74
-20.33
-17.26
-13.74
-9.95
-6.05
-2.21
1.44
4.75
7.64
10.01
11.89
13.32
14.41
15.29
16.04
16.73
17.33
17.80
18.05
18.01
17.70
17.22
16.68
16.21
15.84
15.56
15.29
14.97
14.57
14.06
13.39
12.51
11.38
10.03
8.59
7.20
6.01
5.03
4.14
3.12
1.75
-0.07
-2.33
-4.84
-7.30
-9.39
-10.86
-11.57
-11.54
-10.90
-9.83
-8.46
-6.85
-4.99
-2.90
-0.59
1.81
4.12
6.15
7.70
8.64
8.95
8.75
8.28
7.85
7.70
7.94
8.47
9.08
9.50
9.51
9.04
8.18
7.10
6.06
5.32
5.03
5.18
5.54
5.76
5.50
4.54
2.90
0.77
-1.63
-4.14
-6.76
-9.54
-12.51
-15.59
-18.58
-21.24
-23.36
-24.75
-25.30
-24.94
-23.66
-21.55
-18.79
-15.64
-12.33
-8.99
-5.57
-1.87
2.36
7.28
12.76
18.37
23.42
27.18
29.17
29.31
27.96
25.74
23.27
20.87
18.60
16.34
13.96
11.48
9.04
6.81
4.85
3.11
1.46
-0.20
-1.82
-3.25
-4.29
-4.79
-4.69
-3.99
-2.79
-1.24
0.53
2.32
4.00
5.45
6.67
7.65
8.44
9.03
9.36
9.37
8.96
8.17
7.11
6.01
5.11
4.59
4.45
4.52
4.55
4.30
3.65
2.64
1.43
0.22
-0.79
-1.42
-1.49
-0.90
0.37
2.13
4.10
5.98
7.60
8.96
10.16
11.31
12.38
13.34
14.27
15.45
17.34
20.30
24.36
29.05
33.53
36.91
38.60
38.47
36.76
33.96
30.52
26.88
23.40
20.38
17.99
16.12
14.35
12.11
8.95
4.79
0.13
-4.27
-7.70
-9.84
-10.89
-11.35
-11.69
-12.11
-12.48
-12.62
-12.52
-12.41
-12.73
-13.81
-15.73
-18.30
-21.19
-24.14
-27.11
-30.16
-33.30
-36.35
-38.98
-40.83
-41.73
-41.72
-40.95
-39.57
-37.55
-34.82
-31.37
-27.37
-23.14
-19.07
-15.34
-11.96
-8.84
-5.91
-3.30
-1.30
-0.20
-0.20
-1.32
-3.36
-6.00
-8.80
-11.28
-12.92
-13.29
-12.18
-9.65
-6.01
-1.70
2.88
7.49
12.04
16.45
20.54
24.05
26.64
28.09
28.39
27.75
26.54
25.21
24.18
23.81
24.41
26.22
29.36
33.80
39.18
44.93
50.32
54.71
57.79
59.65
60.73
61.55
62.42
63.22
63.40
62.24
59.26
54.47
48.47
42.20
36.52
31.96
28.53
25.88
23.61
21.40
19.14
16.82
14.43
11.97
9.41
6.83
4.41
2.34
0.80
-0.18
-0.67
-0.80
-0.67
-0.34
0.15
0.74
1.31
1.71
1.82
1.61
1.23
0.87
0.73
0.83
0.93
0.59
-0.67
-3.09
-6.46
-10.23
-13.76
-16.74
-19.44
-22.63
-27.25
-34.03
-43.25
-54.78
-68.22
-83.00
-98.23
-112.54
-124.05
-130.63
-130.42
-122.35
-106.39
-83.56
-55.80
-25.68
3.95
30.30
51.21
65.53
73.23
75.28
73.09
68.16
61.74
54.89
48.51
43.33
39.73
37.63
36.44
35.39
33.82
31.47
28.50
25.24
21.96
18.81
15.80
12.93
10.29
8.02
6.29
5.16
4.60
4.44
4.41
4.25
3.80
3.08
2.32
1.88
2.01
2.73
3.69
4.32
4.07
2.71
0.38
-2.38
-4.93
-6.75
-7.54
-7.36
-6.51
-5.39
-4.47
-4.10
-4.36
-4.99
-5.26
-4.15
-0.74
5.30
13.37
21.85
28.58
31.45
29.16
21.50
9.33
-5.89
-22.44
-38.67
-53.09
-64.39
-71.67
-74.74
-74.34
-72.05
-69.61
-68.31
-68.50
-69.69
-71.07
-72.10
-72.68
-72.81
-72.22
-70.06
-65.33
-57.50
-46.99
-35.15
-23.77
-14.40
-8.11
-5.62
-7.81
-15.79
-30.32
-50.68
-73.61
-93.34
-103.07
-97.39
-74.47
-36.84
9.62
58.01
102.79
141.10
172.61
198.66
220.85
240.30
257.33
271.38
280.88
283.04
274.51
252.93
219.02
177.65
136.99
105.67
89.25
87.85
96.42
107.42
114.65
115.99
113.12
109.04
105.33
100.77
92.03
75.54
49.53
14.90
-24.55
-64.50
-101.75
-134.77
-163.24
-187.55
-208.67
-228.13
-247.55
-266.27
-283.09
-297.35
-309.42
-319.87
-328.54
-334.18
-334.62
-327.28
-307.17
-271.47
-221.46
-162.07
-98.84
-35.35
27.21
88.84
149.19
210.57
273.28
334.52
389.28
433.36
465.16
485.12
494.24
469.98
400.82
294.19
174.44
66.14
-17.94
-76.54
-114.52
-138.43
-153.97
-161.22
-159.49
-149.91
-136.29
-123.00
-112.96
-107.18
-105.40
-106.58
-106.59
-102.21
-93.03
-81.51
-70.91
-63.34
-59.21
-57.76
-57.77
-56.29
-51.40
-43.29
-34.18
-26.63
-22.13
-20.47
-20.38
-20.24
-18.01
-12.84
-5.64
1.27
5.51
5.84
2.81
-1.87
-6.13
-8.12
-7.49
-4.98
-2.68
-3.09
-8.15
-18.52
-32.99
-48.16
-58.91
-59.73
-46.88
-20.43
15.59
51.69
78.00
87.22
77.07
50.75
15.34
-20.76
-50.45
-69.49
-76.94
-74.46
-65.40
-53.58
-42.23
-33.47
-28.22
-26.64
-28.94
-34.02
-40.25
-45.32
-46.68
-42.46
-32.19
-17.49
-1.26
12.39
20.56
22.12
17.53
8.79
-0.66
-6.33
-3.89
8.81
30.07
54.04
72.67
78.77
69.46
47.37
19.18
-7.58
-27.32
-37.63
-38.36
-30.44
-15.13
5.80
29.00
49.59
62.43
64.31
55.50
39.66
22.30
8.37
0.96
0.42
4.89
11.57
17.96
22.54
24.79
24.70
22.15
17.06
9.22
-1.24
-13.46
-25.85
-36.90
-46.17
-54.57
-64.00
-74.94
-85.82
-92.92
-91.71
-79.11
-55.37
-24.61
7.79
33.05
46.78
49.43
44.79
37.36
30.35
24.98
21.10
18.26
16.23
15.58
16.39
17.82
18.55
17.54
14.81
11.45
9.20
9.22
11.88
15.94
19.13
19.52
16.43
10.99
5.50
2.41
3.10
7.90
15.72
24.42
30.79
31.12
22.30
3.54
-21.98
-47.07
-62.75
-62.33
-45.14
-17.60
9.02
24.57
23.68
8.23
-14.17
-34.60
-47.04
-50.51
-48.09
-43.98
-40.73
-38.57
-36.08
-31.55
-24.37
-15.21
-5.34
3.98
11.94
18.24
23.03
27.08
31.59
37.47
44.69
51.89
56.60
56.48
50.82
41.17
30.23
22.44
20.72
25.33
33.91
42.26
46.10
42.37
30.43
12.90
-6.09
-21.58
-29.18
-26.56
-14.34
4.80
27.09
49.08
68.69
85.45
100.23
114.73
130.86
149.16
168.64
186.10
196.56
194.89
177.98
146.42
104.78
60.21
18.97
-14.93
-40.88
-61.08
-79.08
-98.31
-121.36
-150.28
-181.49
-212.69
-241.10
-263.83
-278.32
-283.08
-278.14
-264.88
-245.72
-223.57
-202.15
-184.58
-172.90
-167.67
-167.82
-171.23
-175.79
-180.36
-185.19
-191.99
-202.21
-216.12
-232.36
-248.03
-259.41
-262.87
-255.78
-237.17
-208.40
-172.37
-132.67
-92.38
-53.27
-15.75
20.42
55.28
88.30
118.63
145.91
170.55
193.23
214.11
232.26
246.05
254.27
256.99
255.74
252.91
250.65
250.56
254.06
263.31
281.42
311.18
352.77
401.63
448.37
481.44
491.83
477.28
443.87
403.51
368.50
345.82
334.37
326.37
311.97
284.52
243.22
192.18
136.85
80.35
22.21
-40.04
-107.64
-178.16
-245.27
-301.15
-339.90
-360.14
-365.38
-362.15
-357.05
-354.21
-354.31
-355.29
-354.08
-348.17
-336.73
-320.65
-302.09
-283.86
-268.94
-259.98
-258.56
-264.44
-274.88
-284.86
-288.50
-281.05
-260.66
-228.80
-189.17
-145.49
-99.67
-51.33
0.68
55.75
109.70
155.02
183.57
190.32
176.22
148.24
116.75
91.51
78.42
78.35
88.42
104.38
122.73
141.72
161.21
182.33
207.09
238.08
277.73
326.87
383.10
440.32
489.85
522.99
533.98
521.71
489.50
442.99
387.75
327.57
264.06
197.64
128.99
60.10
-5.56
-63.87
-111.72
-148.31
-175.76
-198.29
-220.35
-244.34
-269.27
-291.06
-304.76
-307.36
-299.87
-287.43
-277.00
-274.29
-281.20
-295.09
-310.11
-319.50
-317.30
-299.32
-263.58
-210.85
-145.48
-75.74
-12.83
32.28
53.07
50.55
33.67
16.52
13.20
32.81
76.55
137.76
204.54
263.55
303.62
318.29
306.80
273.54
226.08
172.77
120.47
73.39
33.57
1.80
-21.42
-35.67
-41.16
-39.35
-32.93
-25.00
-18.15
-13.87
-12.96
-16.10
-24.47
-39.15
-59.55
-82.07
-99.92
-105.09
-91.74
-59.53
-14.74
31.51
67.51
85.38
83.67
66.92
42.74
18.31
-1.93
-16.54
-25.89
-30.55
-30.84
-27.23
-21.06
-14.75
-11.19
-12.61
-19.47
-30.20
-41.70
-50.68
-54.94
-54.13
-49.65
-43.91
-39.17
-36.49
-35.27
-33.41
-28.80
-20.83
-11.23
-3.54
-1.68
-8.09
-22.55
-42.30
-62.58
-79.49
-91.73
-100.87
-110.05
-121.96
-137.49
-155.29
-172.24
-182.74
-182.12
-168.57
-143.93
-113.09
-82.68
-59.77
-50.25
-56.94
-75.56
-97.91
-114.61
-118.02
-103.85
-71.43
-23.18
36.76
104.04
177.79
256.01
333.43
401.75
453.21
484.20
496.36
494.91
465.38
400.94
307.14
201.34
101.93
19.95
-41.03
-82.28
-107.79
-122.77
-129.10
-128.18
-122.11
-114.05
-106.79
-101.47
-98.30
-97.42
-99.23
-101.31
-100.59
-94.77
-83.31
-67.44
-49.54
-32.27
-17.38
-4.70
8.15
22.50
36.39
44.56
41.51
25.55
0.81
-23.70
-38.17
-36.08
-17.75
9.63
35.47
50.76
51.49
39.29
19.58
-1.36
-18.68
-29.99
-35.26
-35.79
-33.15
-28.63
-23.20
-18.09
-13.95
-12.62
-15.53
-23.08
-34.34
-47.41
-60.17
-71.05
-79.49
-85.77
-90.61
-94.14
-95.74
-94.21
-88.51
-78.47
-65.26
-51.27
-39.40
-32.25
-31.06
-35.61
-44.53
-56.00
-68.16
-79.19
-87.00
-89.04
-82.62
-65.67
-37.84
-1.23
39.87
80.14
114.82
141.07
158.47
168.64
174.26
177.91
181.06
183.60
183.95
179.77
169.07
151.09
126.64
97.79
67.03
36.73
9.04
-13.76
-28.91
-33.68
-26.63
-8.96
15.01
38.72
55.66
61.64
56.33
42.94
26.71
12.68
4.24
2.54
6.89
15.38
25.52
34.69
40.47
41.03
35.63
24.92
10.84
-3.78
-15.89
-22.90
-23.33
-17.11
-5.64
8.47
22.05
31.98
36.00
33.24
24.31
11.01
-4.28
-19.21
-31.89
-41.13
-46.51
-48.39
-47.86
-46.55
-46.20
-47.95
-51.95
-57.21
-61.96
-64.43
-63.49
-59.06
-51.98
-43.60
-35.19
-27.66
-21.47
-16.67
-13.05
-10.35
-8.25
-6.49
-4.92
-3.64
-3.08
-3.87
-6.56
-11.25
-17.30
-23.41
-28.03
-30.11
-29.65
-27.83
-26.44
-26.82
-28.90
-30.95
-30.20
-24.36
-12.84
2.57
18.23
30.03
34.83
31.52
21.11
6.09
-10.57
-26.16
-38.72
-47.11
-50.95
-50.54
-46.76
-41.00
-34.85
-29.75
-26.59
-25.58
-26.16
-27.32
-28.01
-27.48
-25.50
-22.31
-18.20
-13.27
-7.43
-0.71
6.41
12.93
17.58
19.26
17.44
12.31
4.77
-3.92
-12.45
-19.73
-24.95
-27.71
-28.04
-26.58
-23.95
-20.35
-15.36
-8.32
1.18
12.87
25.65
37.96
47.75
53.86
56.32
56.01
53.85
50.41
45.93
40.58
34.59
27.04
17.47
6.26
-5.71
-17.79
-29.72
-41.29
-52.09
-61.52
-71.02
-81.50
-92.76
-103.77
-113.82
-122.76
-130.60
-137.12
-142.04
-147.56
-154.84
-162.81
-168.74
-170.17
-166.15
-157.21
-145.04
-116.66
-69.44
-12.60
38.90
75.58
96.72
106.49
110.04
111.35
112.59
111.81
107.17
98.72
88.20
77.66
68.56
62.05
59.09
60.30
63.51
66.27
66.95
64.91
60.62
54.96
49.48
46.13
46.51
49.74
54.07
57.88
60.20
60.49
58.41
54.05
47.86
40.94
33.97
27.78
23.27
21.06
21.08
22.56
24.66
25.63
24.95
22.80
20.10
18.12
17.95
20.16
24.69
31.04
38.57
46.80
55.09
62.62
68.52
72.28
74.15
75.22
77.07
81.17
88.28
97.73
107.60
115.49
119.54
119.11
114.78
107.44
97.77
85.93
71.43
53.62
32.34
8.42
-16.49
-40.48
-62.59
-82.25
-98.84
-111.66
-120.16
-124.24
-124.44
-122.12
-119.26
-118.99
-122.98
-130.29
-138.01
-143.07
-143.42
-138.58
-129.44
-117.58
-106.29
-97.57
-91.34
-86.95
-84.98
-86.86
-92.98
-101.43
-108.66
-113.69
-116.89
-119.35
-122.52
-127.49
-133.16
-135.56
-129.67
-99.33
-43.36
21.88
75.13
106.39
118.84
121.45
122.03
124.01
126.65
125.28
117.25
104.29
90.83
80.71
75.59
74.96
77.25
80.58
81.51
77.89
69.81
58.53
45.16
30.54
15.88
3.00
-6.37
-12.40
-16.14
-17.84
-17.35
-14.76
-10.45
-4.97
0.98
6.39
9.70
9.95
7.52
3.68
-0.16
-3.06
-4.74
-5.48
-5.88
-6.73
-8.38
-10.57
-12.88
-14.99
-16.90
-18.90
-21.25
-24.08
-27.24
-30.35
-32.92
-34.76
-35.67
-35.70
-35.13
-34.26
-33.33
-32.34
-31.18
-29.68
-27.75
-25.39
-22.68
-19.64
-16.13
-11.93
-6.88
-1.16
4.65
9.69
13.21
14.93
15.29
15.32
16.18
18.57
22.45
27.08
31.50
35.02
37.56
39.53
41.52
43.84
46.39
48.75
50.51
51.48
51.78
51.71
51.59
51.64
51.96
52.55
53.31
54.08
54.68
54.98
55.02
55.00
55.24
55.85
56.57
56.79
55.76
52.94
48.11
41.21
32.13
20.56
6.19
-10.73
-29.07
-46.79
-61.51
-71.39
-75.84
-75.63
-72.43
-68.03
-63.72
-60.06
-57.08
-54.68
-52.79
-51.41
-50.48
-49.73
-48.71
-46.97
-44.25
-40.51
-35.98
-31.08
-26.29
-22.03
-18.60
-15.99
-13.92
-11.95
-9.59
-6.63
-3.22
0.17
2.96
4.76
5.51
5.48
4.99
4.23
3.15
1.58
-0.57
-3.13
-5.74
-7.92
-9.34
-9.83
-9.44
-8.29
-6.51
-4.19
-1.43
1.62
4.75
7.73
10.33
12.41
13.94
14.98
15.69
16.29
16.96
17.77
18.65
19.38
19.76
19.68
19.20
18.57
18.07
17.93
18.24
18.95
19.95
21.16
22.52
24.01
25.68
27.58
29.73
32.10
34.59
37.02
39.23
41.09
42.63
43.97
45.36
47.07
49.36
52.47
56.58
61.73
67.73
74.17
80.36
85.51
88.94
90.22
89.28
86.33
81.72
75.72
68.42
59.72
49.54
37.96
25.41
12.52
-0.02
-11.82
-22.86
-33.39
-43.66
-53.74
-63.28
-71.76
-78.71
-83.87
-87.32
-89.32
-90.12
-89.89
-88.75
-86.97
-85.06
-83.66
-83.26
-83.93
-85.18
-86.07
-85.70
-83.69
-80.49
-77.20
-75.09
-74.85
-76.18
-77.80
-78.01
-75.50
-69.98
-62.44
-54.77
-48.98
-46.43
-47.00
-48.93
-49.02
-43.54
-29.49
-5.77
26.25
62.97
99.59
131.27
154.03
165.46
165.10
154.57
137.23
117.23
98.14
81.78
67.97
55.42
43.38
32.98
27.22
29.48
41.38
61.20
83.94
103.18
113.56
112.80
102.23
85.75
68.09
53.09
42.64
36.73
34.16
33.70
34.80
37.75
43.05
50.62
59.29
67.00
71.52
71.31
65.75
54.84
38.63
16.89
-10.58
-43.08
-78.28
-112.28
-140.71
-160.50
-171.45
-176.68
-181.58
-191.36
-208.88
-232.97
-258.65
-278.70
-285.91
-274.91
-243.19
-191.40
-123.48
-46.68
28.76
90.87
128.52
134.68
108.87
57.69
-7.50
-74.33
-133.33
-179.81
-213.38
-235.77
-248.57
-252.13
-246.16
-231.08
-209.02
-183.57
-158.59
-136.78
-118.87
-103.86
-90.28
-77.47
-66.17
-58.27
-55.78
-59.59
-68.52
-79.03
-86.13
-84.58
-70.45
-42.20
-0.83
51.01
110.20
173.80
238.66
300.38
352.62
387.95
400.20
387.35
353.10
305.99
256.20
211.77
176.14
148.21
124.46
101.67
78.57
55.83
34.92
16.84
1.69
-10.93
-21.23
-28.80
-32.83
-32.56
-27.96
-19.96
-10.13
-0.21
8.54
15.64
21.43
26.75
32.48
39.02
46.03
52.48
56.96
58.21
55.63
49.50
40.88
31.23
21.92
13.83
7.26
2.05
-2.12
-5.49
-8.07
-9.63
-9.86
-8.61
-6.05
-2.72
0.54
2.89
3.71
2.86
0.64
-2.39
-5.63
-8.61
-11.11
-12.98
-14.12
-14.48
-14.09
-13.20
-12.27
-11.87
-12.40
-13.91
-16.03
-18.10
-19.45
-19.67
-18.76
-17.07
-15.11
-13.32
-11.84
-10.61
-9.39
-8.01
-6.48
-5.07
-4.26
-4.56
-6.35
-9.61
-13.88
-18.27
-21.69
-23.20
-22.26
-18.88
-13.55
-6.92
0.42
8.28
16.72
26.07
36.64
48.49
61.22
73.89
85.10
93.29
97.34
96.99
93.06
87.15
80.96
75.66
71.59
68.47
65.88
63.63
61.79
60.38
58.99
56.79
52.86
46.39
36.70
22.83
3.42
-22.98
-56.86
-96.64
-138.32
-176.20
-204.76
-220.48
-222.83
-213.83
-196.77
-174.65
-149.42
-122.20
-94.01
-66.41
-41.43
-20.97
-6.09
3.49
9.20
13.13
17.25
22.93
30.74
40.58
51.93
64.25
77.09
90.07
102.65
113.86
122.24
126.01
123.70
114.66
99.59
80.53
60.41
42.18
28.08
19.10
14.99
14.58
16.40
19.14
21.89
24.23
25.97
27.02
27.23
26.36
24.27
21.02
16.95
12.58
8.49
5.01
2.23
-0.08
-2.26
-4.65
-7.42
-10.62
-14.15
-17.83
-21.48
-24.82
-27.54
-29.30
-29.87
-29.23
-27.67
-25.68
-23.90
-22.83
-22.79
-23.83
-25.75
-28.20
-30.77
-33.06
-34.73
-35.58
-35.57
-34.81
-33.50
-31.85
-30.00
-27.99
-25.78
-23.28
-20.47
-17.36
-14.03
-10.58
-7.11
-3.69
-0.37
2.76
5.60
7.98
9.74
10.77
11.05
10.74
10.11
9.53
9.37
9.87
11.04
12.70
14.45
16.02
17.19
17.89
18.15
18.08
17.78
17.32
16.66
15.78
14.78
13.83
13.04
12.43
11.89
11.25
10.45
9.53
8.68
8.42
9.17
11.04
13.78
16.93
20.04
22.85
25.23
27.17
29.37
32.43
36.40
40.72
44.51
46.98
47.72
46.75
44.67
43.96
46.86
54.16
64.32
73.97
79.19
76.86
65.71
46.73
25.21
6.87
-4.57
-8.38
-5.64
2.74
16.82
36.86
62.07
92.66
126.72
160.49
189.84
212.64
229.67
243.13
254.26
244.32
201.28
126.43
36.40
-47.60
-111.31
-150.60
-168.87
-173.16
-170.84
-164.76
-156.26
-146.63
-138.08
-132.97
-132.21
-135.13
-140.15
-145.51
-147.65
-144.29
-135.37
-123.19
-110.83
-100.42
-92.65
-87.21
-83.43
-79.41
-73.95
-67.10
-60.00
-53.91
-49.23
-45.51
-42.08
-38.60
-34.57
-30.08
-25.68
-22.13
-20.19
-20.48
-23.47
-28.91
-35.03
-38.49
-35.15
-22.74
-2.60
20.23
39.12
48.88
48.24
39.75
28.65
19.06
11.98
5.76
-1.87
-11.14
-19.85
-24.60
-22.98
-15.18
-4.03
6.55
13.43
15.51
13.81
10.38
7.03
4.49
2.42
-0.06
-3.38
-6.83
-9.36
-9.91
-8.31
-5.47
-2.96
-2.12
-3.42
-6.22
-9.16
-10.89
-10.62
-8.51
-5.52
-2.87
-1.60
-2.27
-4.71
-8.00
-10.77
-11.14
-7.71
-0.10
10.67
22.27
31.66
36.13
34.38
26.95
16.04
4.49
-5.19
-11.63
-14.75
-15.43
-14.70
-13.31
-11.63
-9.80
-7.98
-6.37
-5.03
-3.81
-2.35
-0.29
2.17
4.52
6.14
6.84
7.40
9.45
14.94
24.42
36.59
48.49
56.98
59.65
55.53
45.03
29.44
10.28
-10.80
-31.58
-49.99
-62.95
-68.14
-65.26
-56.33
-45.00
-35.28
-29.88
-28.29
-29.35
-30.38
-29.08
-24.69
-17.97
-10.39
-3.74
0.30
0.27
-4.71
-13.71
-23.66
-29.61
-26.91
-12.39
13.07
44.60
75.05
97.53
107.98
105.52
91.74
69.55
42.41
13.92
-11.93
-31.20
-41.09
-40.91
-32.75
-20.67
-9.01
-0.63
3.52
4.48
4.19
4.32
5.73
8.31
11.38
14.18
16.32
17.73
18.62
19.35
19.81
19.47
17.54
13.75
8.82
4.43
2.45
3.95
8.49
14.30
19.23
21.97
22.62
22.43
22.98
25.14
28.76
32.87
36.28
38.38
39.35
40.09
41.76
45.07
50.09
56.23
62.41
67.56
71.17
73.43
75.12
76.96
79.16
81.42
83.12
83.43
81.19
74.91
62.86
43.60
16.62
-17.14
-54.72
-91.54
-122.77
-144.88
-156.40
-158.27
-153.26
-144.85
-136.61
-129.77
-122.95
-113.66
-100.16
-82.63
-63.46
-46.46
-35.48
-34.26
-42.71
-56.71
-70.76
-80.61
-84.20
-81.66
-74.72
-65.90
-60.11
-59.42
-62.47
-67.04
-72.11
-77.61
-83.76
-90.99
-100.13
-115.32
-137.09
-161.03
-180.46
-189.63
-185.02
-166.12
-135.77
-80.10
-6.77
61.49
108.33
134.38
148.30
156.84
161.95
162.65
157.91
145.43
127.68
111.03
101.19
100.03
106.03
116.20
127.06
135.70
136.39
126.29
106.69
81.25
53.99
28.66
8.34
-5.39
-12.67
-16.41
-18.52
-18.48
-14.68
-6.42
5.36
18.37
29.73
37.54
39.60
35.25
25.94
14.18
2.21
-8.69
-18.03
-26.06
-33.37
-37.63
-37.63
-34.30
-29.60
-24.64
-19.46
-13.86
-8.28
-3.68
-0.99
-0.87
-2.93
-5.75
-7.60
-8.11
-6.67
-3.62
0.21
4.32
8.51
13.04
18.29
24.22
30.02
34.42
36.10
34.27
29.50
23.25
17.20
12.41
8.78
5.28
0.80
-5.29
-13.04
-21.10
-27.70
-32.04
-34.72
-37.05
-39.92
-43.20
-45.97
-48.03
-48.85
-47.99
-45.58
-41.84
-36.07
-26.62
-11.73
11.73
39.36
63.56
79.79
88.00
89.82
86.14
76.59
60.50
38.49
12.68
-13.72
-36.10
-51.39
-59.53
-62.84
-64.27
-66.09
-64.25
-58.84
-50.38
-39.61
-28.27
-18.61
-12.13
-8.72
-6.99
-5.15
-2.87
-0.18
2.74
5.21
6.14
4.57
0.27
-5.52
-10.05
-10.33
-3.60
11.07
31.53
53.03
70.13
79.11
79.42
71.81
61.00
51.21
44.27
39.37
34.60
28.56
21.37
14.54
9.94
8.75
11.00
15.95
22.45
29.24
34.55
35.95
30.81
17.41
-3.51
-29.12
-54.59
-74.89
-86.70
-89.44
-84.92
-75.88
-63.54
-50.05
-36.13
-22.39
-10.22
-1.44
2.73
2.25
-1.56
-6.85
-11.85
-15.07
-15.58
-12.96
-7.40
0.74
10.28
19.66
27.28
32.18
34.40
34.42
32.68
29.55
25.39
20.54
15.48
10.56
6.32
3.40
2.01
1.68
1.61
0.95
-0.96
-3.92
-7.14
-8.71
-6.89
-1.68
4.47
7.97
6.09
-1.26
-10.97
-18.65
-19.50
-10.79
7.91
31.61
52.30
62.63
58.84
44.01
21.68
-2.90
-24.75
-41.14
-52.60
-61.89
-71.96
-84.23
-94.69
-99.18
-92.85
-73.16
-42.13
-6.41
25.64
47.93
59.25
63.08
64.57
68.41
76.27
86.59
96.27
102.76
105.70
106.21
105.07
101.11
92.58
78.60
60.55
42.22
27.69
20.43
21.28
27.35
32.89
32.60
24.14
9.18
-7.35
-20.94
-26.74
-21.43
-5.06
18.65
44.33
66.64
81.28
85.35
75.02
50.61
16.38
-22.18
-60.73
-96.88
-130.61
-163.95
-199.50
-241.25
-286.33
-325.27
-347.43
-346.29
-321.52
-278.73
-227.14
-155.25
-72.32
2.02
55.93
91.06
114.05
130.00
141.85
151.72
162.31
171.32
177.68
181.63
182.81
179.73
171.49
158.46
141.56
119.60
90.16
53.64
13.70
-24.55
-56.26
-77.52
-86.10
-82.17
-68.27
-50.15
-33.06
-21.21
-18.58
-28.47
-51.50
-83.74
-116.68
-139.48
-143.63
-125.56
-88.42
-41.34
4.32
39.62
61.00
70.10
71.06
67.21
59.93
49.16
34.87
18.26
1.45
-14.20
-29.68
-48.43
-74.15
-107.60
-144.35
-175.25
-189.63
-179.89
-144.46
-88.02
-18.63
55.98
130.62
202.27
267.68
321.52
356.38
365.44
345.85
300.96
239.74
173.62
112.60
62.62
24.94
-2.46
-22.63
-37.88
-49.14
-56.20
-58.53
-55.95
-49.00
-39.09
-28.34
-18.78
-11.59
-6.45
-1.51
5.92
18.02
35.29
56.03
76.84
93.96
104.60
107.58
103.18
92.36
75.99
54.87
30.49
5.83
-14.76
-26.57
-26.80
-16.55
-1.17
11.20
12.60
-1.88
-32.48
-74.80
-120.80
-160.40
-183.72
-183.20
-155.85
-104.69
-38.95
27.89
81.68
112.45
117.09
99.18
66.50
28.05
-8.42
-37.48
-56.14
-64.69
-64.99
-60.53
-56.56
-58.77
-70.82
-92.35
-119.09
-144.78
-165.95
-180.26
-187.25
-189.10
-189.93
-193.61
-202.35
-216.11
-232.69
-250.88
-264.96
-266.50
-249.68
-215.61
-172.40
-132.44
-107.62
-104.08
-123.47
-155.98
-185.21
-197.63
-188.72
-162.19
-126.29
-89.10
-29.62
47.48
120.95
174.47
205.70
218.53
217.98
208.96
196.61
185.83
175.76
166.89
160.55
156.88
154.15
151.38
148.84
147.58
149.30
152.37
157.20
164.85
174.94
184.78
191.60
191.92
183.81
167.72
144.26
116.65
88.05
60.71
34.45
12.37
-3.90
-13.38
-16.24
-15.02
-13.10
-15.39
-25.55
-44.22
-67.34
-91.70
-114.57
-134.15
-149.59
-150.81
-132.93
-100.25
-70.03
-42.93
-17.23
9.80
36.60
60.13
76.93
82.87
76.26
58.91
37.20
16.51
1.08
-7.21
-8.44
-4.35
1.46
5.93
6.83
4.46
-1.14
-8.84
-16.57
-21.18
-19.72
-11.81
0.15
10.64
14.47
7.98
-8.61
-31.74
-55.85
-75.55
-87.70
-86.11
-69.69
-44.54
-20.06
-1.69
10.16
17.44
22.05
24.83
25.90
24.49
20.75
16.41
14.07
15.35
19.85
25.36
28.98
28.58
23.70
15.52
7.17
2.21
2.55
7.68
15.29
22.52
27.00
26.97
21.78
11.68
-2.50
-19.91
-39.61
-60.17
-79.66
-95.91
-107.47
-112.10
-109.04
-99.19
-85.01
-69.74
-56.37
-46.73
-41.08
-38.30
-36.57
-34.39
-30.99
-26.61
-22.26
-19.09
-17.75
-18.08
-19.25
-20.26
-20.46
-19.57
-17.38
-13.53
-7.43
1.50
13.39
27.53
42.27
55.37
64.67
69.00
68.30
63.67
56.91
50.00
44.62
41.70
41.42
43.22
46.61
50.84
55.09
58.48
60.11
59.06
54.25
45.05
31.38
15.05
-1.41
-15.11
-23.34
-24.12
-16.58
-1.61
18.65
40.44
60.62
75.47
82.04
79.09
67.62
51.19
34.40
22.06
16.61
19.53
28.78
40.86
52.26
60.37
64.86
67.10
70.44
65.10
46.57
16.00
-19.45
-53.04
-82.47
-101.06
-110.44
-111.50
-105.11
-90.78
-69.77
-47.65
-27.75
-12.24
-9.70
-23.66
-50.72
-84.13
-108.47
-122.76
-127.78
-123.10
-112.11
-95.91
-75.38
-51.49
-26.39
-1.69
20.30
40.16
60.61
84.79
115.41
152.21
190.42
220.52
231.50
213.54
163.41
84.92
-12.94
-117.86
-217.13
-299.86
-358.67
-389.97
-394.69
-376.72
-342.48
-299.58
-254.45
-210.80
-169.20
-128.02
-85.08
-39.30
8.78
56.61
100.13
135.36
159.81
173.50
179.08
180.89
183.23
188.89
198.23
209.36
219.37
225.63
226.66
222.21
212.76
198.95
181.29
160.31
136.84
112.05
87.24
63.19
39.88
16.73
-6.68
-29.91
-51.32
-68.57
-79.51
-83.09
-79.69
-70.91
-58.93
-45.86
-33.46
-23.03
-15.48
-11.19
-9.96
-10.87
-12.51
-13.46
-12.77
-10.33
-6.84
-3.41
-1.01
-0.07
-0.37
-1.30
-2.22
-2.73
-2.82
-2.70
-2.59
-2.56
-2.50
-2.25
-1.74
-1.05
-0.42
-0.19
-0.57
-1.67
-3.35
-5.31
-7.14
-8.44
-8.88
-8.31
-6.69
-4.09
-0.59
3.68
8.55
13.73
18.77
23.26
26.91
29.76
32.14
34.55
37.44
41.00
44.98
48.88
52.10
54.17
54.91
54.42
52.91
50.56
47.33
43.01
37.29
30.02
21.32
11.73
2.02
-7.00
-14.70
-20.76
-25.19
-28.20
-30.09
-31.15
-31.72
-32.15
-32.85
-34.13
-36.14
-38.75
-41.58
-44.15
-46.01
-46.87
-46.60
-45.22
-42.79
-39.41
-35.28
-30.62
-25.75
-20.95
-16.54
-12.70
-9.52
-6.99
-4.96
-3.27
-1.65
0.09
2.13
4.53
7.26
10.21
13.19
15.98
18.41
20.40
22.00
23.34
24.58
25.78
26.87
27.69
28.07
27.90
27.24
26.21
25.03
23.85
22.78
21.86
21.11
20.46
19.68
18.39
16.09
12.41
7.33
1.35
-4.65
-9.69
-13.04
-14.54
-14.50
-13.54
-12.23
-10.89
-9.64
-8.43
-7.27
-6.17
-5.14
-4.10
-2.90
-1.41
0.38
2.28
4.01
5.36
6.26
6.95
7.76
9.01
10.86
13.16
15.59
17.69
19.07
19.49
18.96
17.71
16.14
14.66
13.54
12.81
12.28
11.61
10.48
8.73
6.39
3.61
0.59
-2.53
-5.66
-8.72
-11.64
-14.24
-16.42
-18.13
-19.41
-20.35
-21.01
-21.38
-21.40
-21.13
-20.83
-20.90
-21.71
-23.31
-25.28
-26.78
-26.94
-25.20
-21.59
-16.66
-11.24
-6.01
-1.38
2.53
5.70
8.04
9.33
9.41
8.37
6.59
4.76
3.61
3.67
5.08
7.53
10.30
12.53
13.46
12.69
10.32
6.91
3.24
0.04
-2.35
-3.93
-4.96
-5.70
-6.22
-6.34
-5.78
-4.35
-2.13
0.59
3.38
5.83
7.61
8.49
8.35
7.23
5.38
3.20
1.19
-0.28
-1.05
-1.23
-1.09
-0.87
-0.70
-0.61
-0.53
-0.43
-0.31
-0.22
-0.21
-0.31
-0.49
-0.63
-0.63
-0.49
-0.43
-0.86
-2.22
-4.74
-8.26
-12.20
-15.79
-18.38
-19.61
-19.42
-17.87
-15.00
-10.82
-5.49
0.45
6.14
10.64
13.35
14.26
13.93
13.15
12.56
12.42
12.57
12.69
12.57
12.24
11.94
11.92
12.27
12.84
13.28
13.25
12.64
11.67
10.88
10.91
12.20
14.79
18.26
21.91
25.09
27.43
28.97
30.02
31.00
32.14
33.47
34.70
35.43
35.20
33.69
30.82
26.82
22.18
17.48
13.20
9.57
6.58
4.01
1.67
-0.49
-2.37
-3.80
-4.64
-4.87
-4.54
-3.77
-2.64
-1.29
0.14
1.40
2.26
2.55
2.24
1.48
0.61
0.01
0.02
0.84
2.47
4.79
7.52
10.32
12.76
14.43
14.97
14.24
12.40
9.87
7.20
4.88
3.10
1.75
0.52
-0.89
-2.59
-4.37
-5.80
-6.35
-5.65
-3.69
-0.89
2.01
4.24
5.40
5.64
5.67
6.46
8.65
12.22
16.37
19.89
21.75
21.61
19.96
17.83
16.31
16.02
16.96
18.62
20.38
21.86
23.08
24.28
25.79
27.87
30.85
35.21
41.43
49.30
57.28
62.21
60.07
47.62
24.23
-7.11
-40.51
-69.24
-88.19
-95.59
-92.98
-83.88
-71.87
-59.29
-47.12
-35.62
-25.25
-17.00
-12.19
-11.77
-15.73
-23.04
-31.96
-40.79
-48.42
-54.60
-59.74
-64.38
-68.73
-72.40
-74.61
-74.72
-72.72
-69.49
-66.53
-65.46
-67.33
-72.20
-79.23
-86.99
-93.94
-98.85
-100.92
-99.88
-95.92
-89.55
-81.44
-72.03
-61.28
-48.67
-33.53
-15.65
4.23
24.33
42.35
56.29
65.17
69.21
69.54
67.50
64.14
60.07
55.62
51.15
47.22
44.54
43.64
44.64
47.09
50.03
52.24
52.66
50.75
46.67
41.19
35.27
29.71
24.82
20.40
16.03
11.34
6.24
0.97
-4.01
-8.27
-11.46
-13.41
-14.12
-13.67
-12.20
-9.83
-6.68
-2.92
1.22
5.37
9.07
11.85
13.42
13.75
13.11
11.94
10.70
9.68
8.93
8.38
7.87
7.32
6.71
6.07
5.40
4.63
3.74
2.75
1.79
1.00
0.48
0.23
0.07
-0.20
-0.74
-1.56
-2.55
-3.51
-4.24
-4.67
-4.83
-4.87
-4.98
-5.31
-5.99
-7.04
-8.35
-9.69
-10.64
-10.74
-9.62
-7.14
-3.61
0.34
3.86
6.29
7.34
7.15
6.20
4.96
3.70
2.39
0.89
-0.87
-2.80
-4.64
-6.16
-7.18
-7.74
-7.90
-7.71
-7.15
-6.15
-4.75
-3.05
-1.25
0.52
2.22
3.92
5.76
7.78
9.93
12.04
13.90
15.29
16.04
16.05
15.29
13.80
11.77
9.45
7.15
5.10
3.46
2.20
1.17
0.17
-0.98
-2.29
-3.68
-4.94
-5.84
-6.30
-6.35
-6.15
-5.88
-5.66
-5.48
-5.25
-4.86
-4.26
-3.47
-2.55
-1.64
-0.86
-0.34
-0.16
-0.31
-0.67
-1.03
-1.17
-0.95
-0.42
0.25
0.86
1.28
1.51
1.64
1.76
1.89
1.97
1.91
1.68
1.32
0.98
0.74
0.61
0.52
0.33
-0.04
-0.59
-1.18
-1.70
-2.04
-2.28
-2.52
-2.91
-3.49
-4.20
-4.89
-5.45
-5.82
-6.02
-6.10
-6.02
-5.66
-4.83
-3.40
-1.35
1.13
3.74
6.13
8.03
9.31
9.97
10.15
9.99
9.58
8.93
8.07
7.00
5.77
4.45
3.13
1.83
0.58
-0.64
-1.83
-3.01
-4.21
-5.46
-6.77
-8.06
-9.20
-10.03
-10.48
-10.57
-10.43
-10.19
-9.93
-9.63
-9.28
-8.85
-8.44
-8.14
-7.99
-7.95
-7.87
-7.60
-7.08
-6.31
-5.40
-4.38
-3.23
-1.87
-0.24
1.60
3.51
5.29
6.81
8.03
9.05
9.99
10.98
12.04
13.17
14.31
15.42
16.43
17.24
17.72
17.78
17.39
16.63
15.67
14.64
13.57
12.35
10.86
8.99
6.79
4.44
2.15
0.04
-1.84
-3.52
-5.00
-6.24
-7.16
-7.74
-8.03
-8.17
-8.29
-8.53
-8.91
-9.37
-9.85
-10.23
-10.46
-10.44
-10.15
-9.60
-8.91
-8.21
-7.63
-7.21
-6.90
-6.58
-6.19
-5.75
-5.32
-5.00
-4.80
-4.62
-4.28
-3.64
-2.64
-1.42
-0.18
0.81
1.41
1.57
1.38
0.97
0.48
-0.00
-0.43
-0.80
-1.11
-1.41
-1.73
-2.11
-2.61
-3.23
-3.96
-4.72
-5.38
-5.82
-5.99
-5.95
-5.91
-6.13
-6.79
-7.90
-9.19
-10.23
-10.62
-10.21
-9.23
-8.12
-7.37
-7.25
-7.70
-8.41
-8.97
-9.10
-8.75
-8.11
-7.50
-7.14
-7.08
-7.19
-7.25
-7.11
-6.81
-6.63
-6.88
-7.70
-8.93
-10.10
-10.61
-10.03
-8.25
-5.48
-2.08
1.62
5.37
9.01
12.39
15.33
17.67
19.41
20.65
21.64
22.62
23.69
24.74
25.48
25.52
24.53
22.35
19.11
15.17
11.04
7.20
3.93
1.28
-0.89
-2.73
-4.29
-5.38
-5.72
-5.03
-3.21
-0.43
2.93
6.43
9.64
12.34
14.45
15.99
17.05
17.68
17.91
17.80
17.41
16.78
15.91
14.75
13.24
11.39
9.31
7.18
5.19
3.40
1.78
0.17
-1.55
-3.43
-5.39
-7.25
-8.84
-10.03
-10.80
-11.20
-11.28
-11.11
-10.74
-10.26
-9.81
-9.56
-9.66
-10.20
-11.16
-12.45
-13.93
-15.49
-17.03
-18.46
-19.63
-20.35
-20.42
-19.69
-18.12
-15.82
-12.97
-9.77
-6.36
-2.78
0.94
4.70
8.32
11.51
13.99
15.59
16.29
16.23
15.65
14.76
13.71
12.57
11.39
10.25
9.25
8.51
8.12
8.10
8.42
8.97
9.62
10.25
10.71
10.90
10.79
10.38
9.71
8.85
7.82
6.60
5.15
3.42
1.38
-0.89
-3.30
-5.65
-7.79
-9.61
-11.10
-12.40
-13.66
-14.98
-16.30
-17.41
-17.89
-17.36
-15.51
-12.33
-8.06
-3.25
1.39
5.13
7.40
7.92
6.76
4.40
1.52
-1.11
-2.89
-3.52
-3.07
-1.87
-0.44
0.74
1.29
0.99
-0.19
-2.07
-4.32
-6.45
-7.96
-8.46
-7.80
-6.16
-3.95
-1.70
0.18
1.47
2.23
2.63
2.88
3.11
3.38
3.68
4.03
4.37
4.63
4.63
4.20
3.27
1.89
0.29
-1.21
-2.39
-3.16
-3.58
-3.80
-3.91
-3.96
-3.91
-3.76
-3.54
-3.26
-2.95
-2.57
-2.09
-1.52
-1.02
-0.73
-0.83
-1.28
-1.90
-2.28
-1.99
-0.63
2.04
6.00
11.01
16.60
22.18
27.10
30.74
32.62
32.46
30.18
25.93
20.10
13.26
6.09
-0.75
-6.79
-11.76
-15.65
-18.51
-20.31
-20.86
-19.86
-17.14
-12.86
-7.65
-2.40
1.99
5.04
6.86
8.04
9.32
11.21
13.75
16.44
18.51
19.14
17.76
14.19
8.60
1.45
-6.62
-14.85
-22.50
-28.89
-33.52
-36.11
-36.72
-35.70
-33.65
-31.20
-28.79
-26.57
-24.32
-21.65
-18.23
-13.98
-9.14
-4.22
0.18
3.57
5.66
6.35
5.70
3.86
1.05
-2.43
-6.16
-9.69
-12.58
-14.56
-15.57
-15.76
-15.36
-14.56
-13.39
-11.72
-9.31
-5.97
-1.68
3.33
8.64
13.73
18.16
21.68
24.22
25.81
26.44
25.98
24.23
21.01
16.35
10.58
4.32
-1.64
-6.53
-9.77
-11.11
-10.60
-8.55
-5.40
-1.57
2.56
6.73
10.73
14.34
17.30
19.35
20.30
20.07
18.75
16.53
13.64
10.23
6.35
2.01
-2.75
-7.69
-12.40
-16.28
-18.78
-19.57
-18.64
-16.36
-13.33
-10.12
-7.10
-4.32
-1.59
1.25
4.19
6.92
8.95
9.85
9.51
8.18
6.40
4.71
3.45
2.67
2.19
1.81
1.41
1.07
0.86
0.82
0.83
0.72
0.36
-0.16
-0.59
-0.59
0.08
1.40
3.12
4.84
6.22
7.06
7.42
7.44
7.30
7.09
6.82
6.45
5.97
5.33
4.51
3.46
2.16
0.67
-0.86
-2.19
-3.11
-3.49
-3.37
-2.89
-2.27
-1.68
-1.20
-0.84
-0.58
-0.41
-0.36
-0.51
-0.89
-1.51
-2.35
-3.32
-4.30
-5.16
-5.77
-6.03
-5.87
-5.26
-4.23
-2.89
-1.43
-0.06
0.98
1.59
1.76
1.62
1.39
1.21
1.17
1.21
1.20
1.03
0.69
0.25
-0.14
-0.37
-0.41
-0.31
-0.22
-0.31
-0.75
-1.66
-3.12
-5.11
-7.46
-9.93
-12.19
-14.01
-15.20
-15.71
-15.53
-14.71
-13.28
-11.30
-8.87
-6.22
-3.64
-1.46
0.04
0.76
0.79
0.40
-0.09
-0.37
-0.22
0.42
1.54
3.04
4.83
6.80
8.77
10.55
11.84
12.40
12.13
11.08
9.50
7.73
6.05
4.56
3.15
1.59
-0.36
-2.82
-5.68
-8.71
-11.63
-14.20
-16.32
-17.98
-19.27
-20.35
-21.42
-22.63
-24.07
-25.65
-27.15
-28.36
-29.17
-29.70
-30.27
-31.24
-32.84
-35.03
-37.54
-40.02
-42.16
-43.82
-44.96
-45.53
-45.35
-44.09
-41.37
-36.94
-30.80
-23.28
-14.85
-6.03
2.80
11.45
19.81
27.84
35.47
42.59
49.14
55.09
60.39
64.88
68.21
69.83
69.20
65.97
60.15
52.26
43.16
33.86
25.15
17.40
10.53
4.16
-2.01
-7.97
-13.32
-17.44
-19.79
-20.24
-19.13
-17.15
-15.08
-13.50
-12.58
-12.07
-11.49
-10.26
-7.99
-4.53
-0.04
5.15
10.68
16.24
21.68
26.86
31.58
35.53
38.30
39.54
39.09
37.13
34.09
30.57
27.18
24.39
22.46
21.51
21.52
22.45
24.18
26.59
29.46
32.55
35.60
38.35
40.52
41.69
41.35
38.88
33.76
25.76
15.19
2.86
-10.01
-22.14
-32.55
-40.77
-46.89
-51.39
-54.87
-57.83
-60.50
-62.87
-64.84
-66.36
-67.52
-68.52
-69.53
-70.61
-71.69
-72.58
-73.06
-72.80
-71.32
-67.86
-61.58
-51.77
-38.29
-21.77
-3.57
14.58
31.13
45.09
56.13
64.43
70.40
74.36
76.48
76.78
75.31
72.19
67.71
62.26
56.23
49.96
43.58
37.12
30.49
23.70
16.88
10.31
4.20
-1.33
-6.35
-10.96
-15.21
-18.97
-22.07
-24.43
-26.24
-27.88
-29.71
-31.76
-33.55
-34.19
-32.67
-28.40
-21.46
-12.61
-2.99
6.33
14.65
21.76
27.69
32.55
36.23
38.54
39.30
38.67
37.14
35.50
34.53
34.71
35.96
37.70
38.98
38.96
37.18
33.87
29.81
26.00
23.16
21.36
20.01
18.09
14.64
9.08
1.44
-7.76
-17.55
-26.74
-34.05
-38.38
-39.20
-36.89
-32.72
-28.46
-25.63
-24.78
-25.28
-25.56
-23.96
-19.61
-12.96
-5.79
-0.71
-0.21
-5.84
-17.56
-33.73
-51.48
-67.65
-79.53
-85.52
-85.13
-78.76
-67.28
-51.79
-33.60
-14.31
4.29
20.50
33.24
42.22
47.96
51.23
52.54
51.83
48.70
42.79
34.35
24.35
14.25
5.52
-0.92
-4.95
-7.30
-9.25
-12.23
-17.36
-25.10
-35.06
-45.98
-56.03
-63.20
-65.93
-63.42
-55.89
-44.47
-30.86
-16.95
-4.44
5.47
12.20
15.90
17.37
17.82
18.61
20.87
25.10
30.97
37.13
41.45
41.54
35.52
22.72
4.11
-17.86
-39.91
-58.88
-72.58
-80.18
-82.10
-79.48
-73.55
-65.30
-55.33
-44.20
-32.59
-21.42
-11.63
-3.76
2.31
7.37
12.46
18.41
25.33
32.56
39.04
43.85
46.67
47.89
48.38
48.93
49.85
50.84
51.23
50.29
47.71
43.66
38.74
33.71
29.16
25.38
22.39
20.10
18.55
17.99
18.80
21.22
25.06
29.58
33.57
35.63
34.67
30.26
22.73
12.98
2.17
-8.71
-19.04
-28.54
-37.11
-44.69
-51.14
-56.26
-59.87
-61.67
-61.18
-57.70
-50.53
-39.38
-24.85
-8.51
7.35
20.53
29.60
34.41
35.84
35.31
34.06
32.73
31.43
30.05
28.61
27.31
26.31
25.49
24.21
21.56
16.70
9.35
-0.05
-10.34
-20.04
-27.71
-32.40
-33.76
-32.06
-28.03
-22.64
-16.85
-11.40
-6.68
-2.71
0.83
4.38
8.40
13.16
18.73
25.01
31.80
38.83
45.79
52.21
57.45
60.60
60.62
56.58
48.01
35.18
19.33
2.40
-13.30
-25.71
-33.51
-36.47
-35.48
-32.40
-29.59
-29.29
-32.98
-40.78
-51.24
-61.65
-68.87
-70.39
-65.12
-53.70
-38.13
-20.93
-4.29
10.34
22.33
31.55
38.03
41.87
43.35
43.12
42.21
41.74
42.51
44.50
46.69
47.22
44.07
35.87
22.57
5.66
-12.23
-28.18
-39.92
-46.52
-48.40
-46.93
-43.66
-39.73
-35.51
-30.83
-25.28
-18.73
-11.40
-3.85
3.31
9.66
15.06
19.59
23.39
26.48
28.78
30.18
30.69
30.53
30.01
29.29
28.19
26.22
22.78
17.58
10.92
3.64
-3.13
-8.48
-12.00
-13.92
-14.81
-15.27
-15.60
-15.76
-15.52
-14.75
-13.53
-12.17
-10.97
-10.06
-9.23
-8.00
-5.90
-2.72
1.34
5.66
9.50
12.28
13.83
14.46
14.77
15.35
16.53
18.14
19.57
19.97
18.61
15.18
9.99
3.84
-2.29
-7.64
-11.92
-15.38
-18.62
-22.39
-27.49
-34.65
-44.32
-56.14
-68.53
-78.66
-83.19
-79.54
-67.14
-47.95
-25.76
-4.78
12.02
23.70
31.14
35.98
39.58
42.39
44.17
44.55
43.56
41.73
39.87
38.56
37.81
37.11
35.59
32.55
27.81
21.87
15.64
10.10
5.80
2.62
-0.08
-3.06
-6.74
-10.97
-15.05
-18.09
-19.53
-19.29
-17.88
-16.04
-14.48
-13.55
-13.31
-13.56
-14.10
-14.67
-15.06
-15.02
-14.28
-12.73
-10.46
-7.80
-5.17
-2.94
-1.21
0.13
1.34
2.63
4.09
5.68
7.33
9.04
10.78
12.40
13.55
13.75
12.68
10.37
7.34
4.44
2.56
2.28
3.61
5.95
8.44
10.22
10.87
10.55
9.91
9.72
10.40
11.83
13.39
14.30
14.13
12.92
11.14
9.28
7.51
5.63
3.37
0.64
-2.30
-4.99
-7.16
-8.90
-10.62
-12.77
-15.49
-18.50
-21.20
-22.93
-23.15
-21.55
-18.02
-12.58
-5.42
3.16
12.70
22.68
32.47
41.29
48.09
51.62
50.80
45.13
35.10
22.16
8.29
-4.70
-15.69
-24.31
-30.68
-34.91
-36.91
-36.52
-33.84
-29.54
-24.80
-20.93
-18.83
-18.74
-20.20
-22.41
-24.59
-26.33
-27.63
-28.80
-30.29
-32.43
-35.39
-38.99
-42.80
-46.21
-48.61
-49.61
-49.17
-47.56
-45.25
-42.67
-40.03
-37.35
-34.54
-31.60
-28.71
-26.14
-24.14
-22.73
-21.65
-20.48
-18.81
-16.40
-13.19
-9.34
-5.12
-0.89
3.00
6.22
8.60
10.15
11.05
11.58
11.95
12.29
12.61
12.90
13.21
13.61
14.20
14.94
15.63
15.97
15.64
14.53
12.80
10.85
9.20
8.30
8.33
9.16
10.39
11.60
12.49
13.05
13.54
14.19
15.12
16.11
16.81
16.90
16.32
15.35
14.42
13.89
13.82
14.00
14.08
13.84
13.29
12.61
12.04
11.65
11.30
10.71
9.65
8.09
6.24
4.45
3.07
2.25
1.96
1.97
2.08
2.17
2.31
2.63
3.25
4.18
5.32
6.46
7.39
7.95
7.99
7.41
6.15
4.25
1.89
-0.60
-2.83
-4.43
-5.22
-5.22
-4.69
-3.96
-3.37
-3.12
-3.26
-3.63
-3.91
-3.79
-2.98
-1.42
0.81
3.41
6.05
8.43
10.42
12.04
13.44
14.77
16.14
17.50
18.73
19.67
20.22
20.36
20.12
19.56
18.70
17.60
16.34
15.06
13.89
12.92
12.06
11.17
10.05
8.61
6.95
5.29
3.94
3.07
2.71
2.65
2.60
2.21
1.28
-0.32
-2.56
-5.34
-8.48
-11.83
-15.17
-18.28
-20.86
-22.66
-23.50
-23.40
-22.64
-21.71
-21.14
-21.31
-22.30
-23.82
-25.38
-26.49
-26.81
-26.30
-25.17
-23.72
-22.24
-20.88
-19.69
-18.62
-17.58
-16.53
-15.40
-14.11
-12.57
-10.66
-8.37
-5.81
-3.22
-0.98
0.57
1.21
0.96
0.09
-0.94
-1.65
-1.60
-0.59
1.33
3.92
6.81
9.62
12.07
13.96
15.18
15.65
15.32
14.27
12.70
10.97
9.48
8.53
8.18
8.32
8.69
9.05
9.27
9.38
9.45
9.57
9.75
9.93
10.03
10.01
9.91
9.87
10.04
10.55
11.37
12.33
13.13
13.52
13.38
12.82
12.10
11.50
11.14
10.98
10.85
10.64
10.36
10.18
10.26
10.69
11.40
12.24
13.10
13.96
14.88
15.95
17.14
18.34
19.40
20.20
20.67
20.80
20.59
19.95
18.84
17.29
15.49
13.69
12.21
11.22
10.71
10.52
10.38
10.05
9.41
8.52
7.51
6.59
5.92
5.58
5.54
5.73
6.03
6.34
6.57
6.60
6.34
5.68
4.57
2.95
0.86
-1.64
-4.39
-7.23
-9.99
-12.56
-14.90
-17.03
-19.00
-20.78
-22.24
-23.21
-23.52
-23.15
-22.16
-20.71
-18.93
-16.83
-14.31
-11.24
-7.54
-3.32
1.19
5.67
9.80
13.30
16.04
18.01
19.38
20.47
21.67
23.29
25.48
28.14
31.04
34.00
37.00
40.22
43.83
47.87
52.03
55.73
58.31
59.25
58.37
55.77
51.75
46.56
40.32
33.04
24.68
15.28
5.05
-5.63
-16.24
-26.12
-34.59
-41.12
-45.38
-47.38
-47.50
-46.36
-44.77
-43.44
-42.84
-43.08
-43.91
-44.83
-45.34
-45.17
-44.48
-43.80
-43.88
-45.29
-48.09
-51.68
-54.88
-56.35
-55.01
-50.42
-42.87
-33.29
-22.86
-12.72
-3.79
3.26
7.94
9.85
8.76
4.69
-1.84
-9.80
-17.80
-24.38
-28.50
-29.79
-28.59
-25.72
-22.09
-18.29
-14.50
-10.61
-6.45
-2.09
2.11
5.65
8.12
9.42
9.78
9.69
9.62
9.92
10.66
11.69
12.75
13.55
13.83
13.42
12.26
10.42
8.05
5.34
2.41
-0.75
-4.28
-8.35
-13.09
-18.39
-23.93
-29.30
-34.16
-38.32
-41.78
-44.61
-46.78
-48.07
-48.11
-46.51
-43.10
-38.02
-31.72
-24.81
-17.87
-11.30
-5.25
0.26
5.20
9.42
12.73
14.92
15.98
16.06
15.50
14.67
13.82
13.07
12.41
11.83
11.38
11.19
11.37
11.95
12.82
13.83
14.80
15.65
16.38
17.01
17.52
17.81
17.68
16.95
15.49
13.29
10.50
7.33
4.04
0.90
-1.85
-4.07
-5.65
-6.63
-7.13
-7.36
-7.51
-7.67
-7.76
-7.57
-6.82
-5.32
-3.04
-0.13
3.15
6.60
10.10
13.63
17.16
20.59
23.69
26.24
28.11
29.34
30.12
30.69
31.23
31.78
32.31
32.75
33.05
33.23
33.28
33.20
32.93
32.43
31.72
30.86
29.88
28.69
27.10
24.84
21.78
17.93
13.45
8.45
2.91
-3.34
-10.36
-18.01
-25.78
-33.08
-39.45
-44.88
-49.71
-54.36
-58.97
-63.14
-66.09
-67.05
-65.62
-62.03
-57.00
-51.43
-46.14
-41.66
-38.14
-35.44
-33.20
-30.95
-28.29
-25.04
-21.32
-17.50
-14.03
-11.27
-9.32
-7.99
-6.99
-6.04
-5.09
-4.27
-3.74
-3.52
-3.47
-3.34
-3.05
-2.74
-2.69
-2.96
-3.09
-2.04
1.37
7.74
16.61
26.38
35.00
40.96
43.97
45.00
45.56
46.75
48.57
50.09
50.10
47.95
43.94
39.04
34.26
30.03
26.05
21.60
16.16
9.83
3.36
-2.19
-5.95
-7.52
-7.12
-5.32
-2.79
-0.11
2.28
4.07
5.00
4.90
3.74
1.66
-1.04
-4.04
-7.08
-10.03
-12.93
-15.95
-19.32
-23.25
-27.90
-33.26
-39.11
-44.96
-50.19
-54.18
-56.55
-57.38
-57.11
-56.37
-55.69
-55.18
-54.58
-53.35
-51.12
-47.83
-43.92
-40.06
-36.91
-34.85
-33.84
-33.53
-33.48
-33.38
-33.22
-33.15
-33.12
-32.66
-30.63
-25.59
-16.36
-2.66
14.58
33.40
51.50
67.04
79.16
87.91
93.78
97.14
97.95
95.98
91.23
84.28
76.21
68.21
61.08
54.87
49.08
42.97
36.21
29.08
22.38
17.02
13.52
11.75
10.98
10.26
8.83
6.44
3.35
0.14
-2.58
-4.49
-5.61
-6.20
-6.64
-7.19
-7.96
-8.88
-9.78
-10.48
-10.91
-11.08
-11.11
-11.08
-11.02
-10.90
-10.69
-10.53
-10.63
-11.22
-12.26
-13.31
-13.64
-12.54
-9.64
-5.07
0.80
7.74
15.95
25.91
37.92
51.51
65.38
77.75
87.18
93.14
96.16
97.36
97.72
97.54
96.40
93.54
88.36
80.76
71.05
59.77
47.39
34.34
21.04
8.12
-3.61
-13.35
-20.61
-25.48
-28.69
-31.29
-34.25
-38.05
-42.49
-46.92
-50.64
-53.30
-55.09
-56.65
-58.73
-61.82
-65.96
-70.69
-75.22
-78.67
-80.16
-78.92
-74.30
-65.94
-53.96
-39.10
-22.74
-6.55
7.94
19.73
28.55
34.61
38.37
40.14
40.03
38.04
34.31
29.22
23.32
17.07
10.59
3.67
-4.03
-12.54
-21.34
-29.33
-35.14
-37.67
-36.66
-32.88
-27.92
-23.61
-21.34
-21.62
-23.96
-27.26
-30.28
-32.18
-32.77
-32.40
-31.70
-31.21
-31.07
-30.97
-30.31
-28.52
-25.37
-21.05
-16.17
-11.38
-7.16
-3.62
-0.50
2.56
5.84
9.37
12.99
16.44
19.49
21.92
23.52
24.01
23.25
21.40
19.13
17.44
17.38
19.44
23.35
28.05
32.19
34.65
35.05
33.73
31.54
29.34
27.68
26.61
25.86
25.07
23.97
22.48
20.61
18.41
15.82
12.76
9.19
5.20
0.97
-3.30
-7.49
-11.60
-15.63
-19.53
-23.09
-26.06
-28.27
-29.70
-30.49
-30.85
-30.85
-30.51
-29.82
-28.82
-27.63
-26.35
-24.95
-23.25
-20.98
-18.02
-14.55
-11.05
-8.20
-6.61
-6.59
-8.06
-10.55
-13.46
-16.18
-18.30
-19.59
-20.03
-19.74
-18.95
-17.85
-16.48
-14.58
-11.65
-7.09
-0.55
7.72
16.84
25.56
32.81
38.11
41.80
44.72
47.75
51.36
55.45
59.58
63.21
66.00
67.74
68.28
67.27
64.33
59.19
51.95
43.23
33.96
25.10
17.25
10.58
4.85
-0.38
-5.49
-10.66
-15.83
-20.77
-25.19
-28.80
-31.52
-33.44
-34.87
-36.28
-38.09
-40.47
-43.22
-45.81
-47.55
-47.93
-46.87
-44.73
-42.14
-39.59
-37.17
-34.64
-31.61
-27.83
-23.34
-18.38
-13.19
-7.85
-2.33
3.40
9.23
14.88
20.09
24.84
29.40
34.24
39.74
45.90
52.24
57.84
61.69
62.99
61.48
57.51
51.87
45.48
39.00
32.66
26.27
19.61
12.58
5.41
-1.46
-7.58
-12.65
-16.49
-19.04
-20.32
-20.35
-19.32
-17.54
-15.38
-13.23
-11.38
-10.03
-9.45
-9.95
-11.87
-15.36
-20.26
-25.97
-31.62
-36.37
-39.65
-41.31
-41.46
-40.30
-37.90
-34.24
-29.27
-23.15
-16.28
-9.24
-2.54
3.54
9.07
14.40
19.94
25.94
32.32
38.66
44.32
48.62
51.15
51.81
50.84
48.61
45.46
41.57
36.98
31.66
25.58
18.87
11.80
4.76
-1.88
-7.81
-12.87
-16.98
-20.27
-22.98
-25.18
-26.80
-27.54
-27.20
-25.81
-23.61
-20.99
-18.53
-16.61
-15.02
-12.98
-9.52
-4.13
2.97
10.88
18.49
24.28
27.24
27.45
26.32
25.99
28.19
33.54
41.39
50.12
56.70
58.07
52.52
40.55
24.38
6.80
-9.66
-22.89
-31.31
-35.57
-38.03
-42.09
-51.01
-67.25
-92.22
-125.74
-165.67
-199.67
-214.91
-204.59
-173.03
-131.54
-90.35
-54.74
-25.87
-2.88
15.41
28.63
36.05
37.84
35.86
32.91
31.20
31.40
33.02
35.13
36.13
35.00
31.82
27.96
25.13
24.12
24.44
25.04
24.99
23.24
19.23
13.14
6.27
0.89
-0.70
2.60
10.76
21.43
30.35
33.43
28.97
18.98
8.53
3.11
6.18
17.68
34.20
50.76
62.97
68.51
67.39
61.20
51.63
39.90
26.47
11.14
-6.01
-23.96
-40.56
-53.08
-59.25
-58.90
-54.14
-48.68
-46.02
-47.60
-51.98
-55.64
-55.19
-46.75
-29.97
-7.34
16.74
37.66
52.27
59.73
61.37
59.17
55.47
51.96
49.44
47.85
46.87
46.71
48.16
52.35
58.99
67.28
75.92
83.29
87.76
88.10
83.76
74.38
59.59
37.77
8.62
-25.69
-60.90
-91.89
-114.40
-126.21
-127.79
-114.06
-86.05
-50.93
-17.63
7.74
22.46
25.13
16.64
-1.41
-25.75
-53.28
-80.81
-102.27
-113.40
-112.41
-99.92
-78.34
-51.58
-24.23
-1.75
11.99
16.23
12.67
4.66
-4.17
-11.08
-14.93
-15.58
-14.17
-11.66
-8.29
-4.28
-0.10
3.41
5.21
4.35
0.99
-4.46
-11.31
-18.75
-26.18
-33.30
-39.67
-45.06
-49.33
-51.21
-49.76
-44.84
-37.22
-28.06
-18.73
-9.85
-2.03
4.07
9.70
16.05
23.38
30.97
38.20
44.91
52.81
63.81
79.25
101.66
131.79
167.47
204.18
237.38
263.75
283.40
297.47
293.49
264.55
214.36
155.68
101.02
61.21
33.24
15.31
6.64
6.20
13.64
26.47
39.35
45.63
40.09
19.87
-13.56
-56.40
-102.65
-142.27
-164.30
-160.44
-128.45
-73.46
-7.36
56.22
105.46
134.39
145.25
145.13
141.36
138.24
136.78
136.10
136.33
138.48
143.64
152.08
161.82
168.95
169.21
160.33
143.00
120.92
98.66
79.81
65.85
55.97
47.74
38.37
25.98
10.06
-8.49
-28.26
-48.01
-67.25
-86.23
-105.67
-126.33
-148.74
-173.11
-199.38
-227.07
-255.08
-281.57
-304.15
-320.45
-328.84
-328.82
-320.99
-306.48
-286.40
-261.53
-232.65
-201.03
-168.79
-138.62
-113.02
-93.40
-79.70
-70.68
-64.69
-60.51
-57.61
-55.99
-55.66
-56.15
-56.47
-55.30
-51.51
-44.54
-34.60
-22.56
-9.79
2.28
12.40
19.88
24.63
27.18
28.37
28.97
29.44
29.89
30.22
30.40
30.54
30.87
31.60
32.74
34.19
35.71
37.11
38.28
39.15
39.70
39.86
39.48
38.36
36.25
32.96
28.52
23.23
17.68
12.47
7.96
4.09
0.42
-3.57
-8.17
-13.21
-18.15
-22.35
-25.42
-27.35
-28.52
-29.48
-30.74
-32.47
-34.62
-37.07
-39.76
-42.67
-45.82
-49.30
-53.10
-57.07
-60.69
-63.37
-64.78
-64.99
-64.56
-64.35
-65.38
-68.61
-74.72
-83.75
-95.37
-109.24
-124.92
-141.63
-158.18
-173.34
-186.16
-196.26
-203.07
-206.69
-208.16
-208.73
-208.67
-206.75
-201.05
-190.02
-173.20
-149.84
-120.82
-89.38
-59.87
-35.16
-15.13
2.71
21.51
43.30
70.65
102.69
134.16
158.40
172.05
177.44
180.58
187.54
201.82
227.89
267.07
316.24
369.38
420.41
464.75
497.95
514.96
489.77
412.26
300.65
190.15
105.46
50.09
15.12
-10.63
-34.63
-59.14
-75.68
-74.65
-52.11
-11.67
37.15
84.98
124.00
148.66
150.52
129.07
88.30
33.09
-32.70
-106.41
-181.47
-247.92
-295.23
-315.41
-302.43
-257.69
-191.33
-109.60
-32.35
21.28
46.01
50.63
47.61
46.79
50.71
56.32
59.24
55.58
46.72
37.38
31.76
31.55
37.39
49.01
64.43
81.17
95.08
102.81
101.94
90.79
67.00
35.58
4.34
-19.73
-32.94
-36.47
-33.62
-27.68
-20.89
-14.52
-8.73
-4.30
-2.87
-6.23
-14.36
-25.35
-36.17
-44.10
-47.92
-48.08
-46.85
-47.51
-52.25
-60.91
-71.10
-79.19
-81.71
-76.95
-65.29
-49.71
-35.12
-26.02
-24.35
-29.58
-39.27
-48.24
-51.82
-46.39
-28.11
0.59
31.77
57.20
72.53
78.24
77.70
74.52
71.45
69.86
71.10
74.22
78.61
82.63
83.29
77.00
61.09
35.37
2.43
-33.80
-68.60
-96.07
-112.51
-117.46
-113.08
-102.73
-89.32
-74.71
-59.82
-44.82
-29.07
-12.20
5.70
24.25
42.79
60.36
75.67
87.28
94.48
98.15
100.44
103.92
110.13
118.36
125.63
128.03
122.74
109.54
90.92
70.40
50.86
33.60
18.83
6.62
-2.23
-6.56
-6.04
-2.00
2.65
4.76
2.48
-3.97
-12.79
-21.66
-28.87
-33.58
-35.50
-34.47
-30.44
-23.77
-15.65
-7.99
-2.74
-0.93
-2.27
-5.19
-7.76
-8.65
-7.75
-6.05
-5.04
-5.88
-8.93
-13.71
-19.17
-24.16
-27.71
-29.16
-28.19
-24.77
-19.31
-12.64
-5.97
-0.56
2.71
3.63
2.73
0.98
-0.68
-1.76
-2.31
-2.74
-3.41
-4.35
-5.20
-5.41
-4.52
-2.46
0.47
3.61
6.23
7.86
8.45
8.44
8.58
9.52
11.38
13.57
14.93
14.14
10.04
2.01
-9.78
-24.22
-39.32
-52.52
-61.41
-64.67
-62.98
-59.31
-58.38
-65.22
-83.43
-113.66
-153.30
-197.27
-239.75
-275.93
-303.11
-320.70
-329.49
-330.55
-324.65
-312.21
-294.03
-271.86
-248.38
-226.35
-207.32
-190.81
-174.43
-155.10
-130.52
-100.31
-66.03
-30.42
3.79
34.81
62.17
86.52
109.27
132.14
156.58
183.38
212.03
240.40
264.86
281.21
286.01
277.99
258.79
232.78
205.99
184.36
172.21
171.14
179.70
193.95
208.58
218.36
219.50
210.69
193.45
171.56
149.84
132.43
121.51
116.75
115.79
115.36
112.59
105.70
94.20
78.68
60.41
41.18
23.07
8.10
-2.30
-7.84
-9.40
-8.49
-6.35
-3.05
2.60
12.12
25.98
42.43
57.42
65.82
63.42
48.71
23.52
-7.64
-39.35
-66.94
-87.51
-100.06
-104.88
-103.07
-96.29
-86.91
-78.00
-72.79
-73.70
-81.29
-93.80
-107.61
-118.41
-122.59
-118.25
-105.61
-86.63
-64.36
-42.15
-22.97
-8.80
-0.34
3.11
3.35
2.72
3.42
7.02
14.26
25.10
38.82
54.05
68.86
80.95
88.43
90.68
88.93
85.92
84.67
86.76
91.12
94.34
92.17
81.66
62.48
36.94
8.50
-19.91
-46.96
-72.61
-97.04
-119.53
-138.23
-150.91
-156.24
-154.72
-148.70
-141.36
-135.35
-131.57
-128.72
-124.04
-114.59
-98.80
-77.29
-52.67
-28.43
-7.58
8.24
18.78
24.61
26.50
25.27
22.14
19.08
18.59
22.74
31.94
44.13
55.06
59.71
54.31
37.97
13.36
-14.09
-38.15
-53.91
-59.25
-54.93
-43.28
-26.39
-4.81
22.47
56.74
97.86
143.38
188.90
229.71
262.42
285.83
300.57
308.22
310.44
308.54
303.70
297.11
289.73
281.91
272.86
260.48
241.75
213.79
175.09
126.55
71.77
16.21
-34.33
-75.46
-105.41
-125.07
-136.97
-143.91
-147.82
-149.65
-149.88
-149.29
-149.17
-150.80
-154.62
-159.66
-163.69
-164.03
-158.67
-146.97
-129.79
-108.98
-86.67
-64.68
-44.17
-25.65
-9.16
5.57
18.86
30.83
41.15
48.98
53.21
53.03
48.59
41.41
34.09
29.59
30.25
37.08
49.36
64.77
79.54
89.06
88.89
76.15
51.04
17.36
-18.13
-47.86
-65.98
-70.31
-62.73
-48.08
-32.19
-20.11
-15.07
-18.18
-28.54
-43.48
-59.18
-71.55
-77.47
-75.85
-67.82
-56.22
-44.31
-34.67
-28.69
-26.79
-28.90
-35.07
-45.54
-60.40
-79.09
-100.10
-121.31
-140.55
-156.31
-167.94
-175.27
-177.97
-175.39
-167.11
-153.75
-137.55
-121.79
-109.36
-101.14
-95.47
-89.22
-79.85
-67.23
-54.03
-44.31
-41.25
-45.25
-53.72
-62.36
-67.36
-67.23
-63.11
-57.68
-53.34
-50.52
-47.48
-41.50
-30.90
-16.73
-2.87
5.53
4.51
-6.84
-26.18
-49.35
-72.41
-92.90
-109.74
-122.12
-128.51
-126.56
-114.33
-91.79
-61.62
-28.86
0.82
23.27
37.39
45.26
50.81
57.75
67.78
79.79
90.65
96.88
96.49
89.84
79.35
68.06
58.21
50.43
43.94
37.39
29.84
21.52
13.86
9.10
9.43
16.11
28.74
45.20
62.26
76.74
86.64
91.77
93.50
93.88
94.76
97.43
102.80
111.82
125.36
143.45
164.15
183.29
195.56
196.85
186.20
166.41
142.44
118.81
97.42
77.36
56.52
34.01
11.44
-7.71
-20.22
-25.34
-25.46
-24.90
-27.54
-34.98
-45.95
-57.62
-67.30
-73.70
-77.10
-78.54
-78.91
-78.29
-76.04
-71.38
-64.13
-55.18
-46.34
-39.78
-37.12
-38.67
-43.18
-48.25
-51.14
-49.73
-43.24
-32.29
-18.53
-4.01
9.48
20.66
28.84
33.82
35.84
35.57
33.99
32.17
30.91
30.50
30.68
30.88
30.62
29.72
28.30
26.64
24.78
22.45
19.09
14.11
7.21
-1.46
-11.28
-21.39
-30.99
-39.56
-46.96
-53.42
-59.26
-64.85
-70.56
-76.78
-83.84
-91.80
-100.14
-107.64
-112.49
-112.86
-107.62
-96.82
-81.82
-64.80
-48.08
-33.30
-21.10
-11.20
-2.86
4.64
11.71
18.43
24.75
30.66
36.16
41.17
45.28
47.84
48.24
46.30
42.46
37.56
32.43
27.49
22.77
18.30
14.59
12.84
14.44
20.27
30.01
42.03
53.99
63.71
69.94
72.61
72.59
71.25
70.04
70.40
73.58
80.45
91.04
104.43
118.66
131.44
140.99
146.39
147.32
144.43
138.88
131.55
122.71
111.93
98.15
80.04
55.93
24.36
-14.46
-57.89
-101.46
-140.35
-171.36
-194.86
-214.41
-235.91
-265.63
-306.10
-354.82
-405.71
-451.37
-485.17
-503.11
-502.67
-484.76
-455.28
-419.91
-382.58
-346.58
-314.26
-286.18
-261.77
-236.41
-206.51
-174.77
-141.96
-106.06
-66.14
-22.85
23.49
72.05
126.85
189.74
252.71
310.85
363.65
409.68
446.36
474.95
498.87
529.45
574.45
626.14
676.34
719.41
747.48
752.69
735.55
656.98
505.42
362.10
264.29
203.85
178.29
181.10
199.93
225.81
251.09
277.24
282.26
246.28
173.28
85.87
19.53
-31.31
-76.74
-122.91
-171.95
-218.81
-263.36
-303.04
-333.71
-351.36
-357.70
-353.86
-342.85
-324.71
-298.93
-269.14
-237.89
-206.36
-177.40
-156.25
-143.36
-136.89
-132.79
-127.01
-118.37
-106.40
-91.12
-74.43
-60.51
-50.82
-45.57
-43.56
-42.73
-41.47
-38.46
-33.20
-26.89
-22.06
-20.29
-22.72
-30.04
-42.09
-58.10
-76.80
-95.74
-110.79
-116.92
-108.88
-84.67
-47.09
-3.28
37.66
68.14
84.85
89.03
82.38
69.81
54.64
37.86
20.17
3.69
-7.97
-11.53
-6.27
5.15
18.50
29.63
36.53
39.66
40.49
39.53
36.27
29.62
19.13
6.08
-7.68
-20.75
-32.97
-45.01
-57.33
-68.63
-75.31
-73.00
-58.64
-32.97
-0.63
31.57
57.31
73.00
77.33
73.61
66.07
57.69
49.55
41.82
35.10
31.11
31.91
38.63
49.12
58.61
61.20
52.21
30.90
1.25
-29.32
-52.73
-63.55
-62.07
-53.13
-42.98
-35.75
-31.77
-28.69
-23.71
-15.93
-6.95
0.23
3.06
0.50
-6.57
-15.95
-24.92
-30.18
-28.94
-19.53
-2.39
19.26
39.70
53.12
55.80
47.70
32.58
15.69
1.54
-7.74
-12.52
-14.75
-16.11
-17.41
-18.52
-18.90
-18.61
-18.08
-17.83
-16.76
-16.28
-17.15
-18.45
-17.99
-9.61
11.69
47.47
94.55
145.57
191.22
223.91
239.90
240.33
229.60
212.54
192.34
170.51
147.04
119.73
88.99
57.17
27.56
2.19
-19.23
-38.97
-57.91
-74.27
-84.44
-87.88
-85.06
-77.33
-67.53
-58.79
-53.65
-50.51
-45.52
-36.39
-29.56
-31.98
-46.82
-73.57
-108.78
-149.80
-192.22
-231.84
-266.53
-302.23
-341.08
-378.10
-405.77
-417.94
-415.24
-399.57
-373.56
-299.90
-178.93
-46.41
60.71
120.85
151.28
162.20
158.18
142.61
118.25
82.78
38.94
-5.35
-43.15
-71.50
-93.95
-112.08
-123.74
-124.47
-114.97
-94.94
-62.54
-17.32
38.85
99.36
157.51
206.79
240.64
250.80
234.95
199.65
157.66
123.29
105.70
108.00
126.91
154.64
180.79
198.06
204.08
199.85
187.48
167.99
142.06
111.71
80.91
54.45
37.05
31.83
38.96
55.40
75.82
93.48
104.43
108.97
110.04
110.47
111.51
112.40
110.64
103.13
84.67
54.37
17.87
-15.72
-38.43
-45.74
-37.58
-18.45
3.78
15.69
9.19
-13.99
-46.06
-79.57
-109.89
-135.44
-157.32
-178.18
-207.29
-249.10
-299.19
-349.19
-392.66
-425.51
-444.43
-446.90
-393.45
-279.61
-144.47
-32.24
41.73
84.51
108.80
124.05
134.35
140.14
134.96
117.62
96.00
80.26
75.27
79.95
90.17
101.22
109.20
106.80
91.41
67.77
44.00
26.41
18.24
19.96
29.42
42.47
51.53
52.34
46.78
40.01
36.04
36.08
38.84
41.94
43.27
40.77
34.85
28.30
24.06
23.29
25.58
29.50
33.51
35.90
34.41
27.63
15.74
0.68
-14.71
-27.64
-36.45
-41.02
-42.46
-42.11
-40.64
-37.97
-33.71
-28.10
-22.33
-17.95
-15.85
-15.48
-15.05
-12.10
-5.15
5.59
17.92
28.36
33.49
31.31
22.24
9.00
-4.11
-13.23
-16.28
-13.61
-7.38
-0.31
5.67
9.85
12.59
14.62
16.23
17.33
17.76
17.62
17.39
17.52
18.31
19.54
20.61
20.76
19.41
16.33
11.71
5.85
-0.98
-8.69
-17.49
-27.75
-39.83
-53.49
-67.53
-79.75
-87.34
-87.79
-79.92
-64.63
-44.76
-24.24
-6.77
5.43
12.00
14.12
13.53
11.82
9.79
7.62
5.16
2.36
-0.27
-1.83
-1.70
0.72
5.76
12.92
20.93
28.05
32.66
33.90
31.75
26.42
18.78
10.10
1.77
-5.35
-10.36
-12.58
-11.55
-7.61
-3.20
-0.89
-2.50
-9.02
-20.78
-36.82
-55.52
-73.98
-90.01
-105.37
-121.75
-139.70
-159.21
-180.53
-202.60
-224.22
-242.46
-252.56
-257.57
-260.12
-259.88
-254.97
-245.78
-231.06
-210.49
-181.32
-142.69
-103.05
-68.02
-37.59
-8.90
15.51
37.06
57.47
83.68
121.52
164.71
208.77
254.03
303.40
350.58
396.09
410.71
378.26
351.39
352.40
367.98
393.52
428.99
461.40
484.65
492.40
484.63
463.34
423.54
366.92
271.06
190.57
119.08
56.22
0.03
-47.10
-81.45
-105.28
-117.25
-112.65
-85.94
-56.93
-38.62
-39.78
-57.27
-81.09
-105.21
-125.26
-138.62
-143.05
-146.94
-150.96
-153.72
-151.69
-142.48
-128.33
-112.60
-98.05
-84.93
-77.77
-75.01
-73.97
-71.70
-66.56
-59.55
-52.90
-48.91
-49.00
-56.55
-71.09
-90.30
-110.24
-126.43
-135.23
-135.15
-126.94
-113.04
-98.00
-85.29
-77.40
-75.68
-80.30
-90.65
-105.27
-120.90
-132.93
-136.76
-129.66
-112.23
-88.31
-62.75
-39.18
-22.33
-14.81
-16.38
-24.75
-37.29
-52.35
-69.53
-87.40
-105.17
-122.63
-138.87
-151.50
-156.93
-151.90
-135.02
-107.37
-69.32
-23.38
26.40
76.68
126.45
176.63
228.00
279.07
326.01
367.56
401.77
426.50
440.79
446.08
445.31
441.12
434.57
402.76
337.67
248.94
156.59
75.86
11.27
-39.37
-79.24
-110.53
-133.88
-146.15
-146.88
-139.57
-129.78
-121.25
-114.20
-105.89
-93.90
-76.41
-51.11
-19.78
11.46
34.37
42.70
34.68
13.05
-17.55
-51.32
-82.08
-107.73
-130.24
-153.24
-178.71
-206.19
-228.10
-239.44
-237.15
-221.31
-197.27
-173.78
-158.84
-155.26
-159.68
-164.48
-162.64
-148.31
-118.81
-75.96
-24.43
31.27
89.02
148.27
208.20
256.25
278.28
269.41
236.87
192.86
147.40
106.70
73.68
49.06
31.24
19.57
13.68
10.18
3.10
-14.68
-46.67
-91.27
-142.57
-193.61
-236.10
-261.44
-264.70
-245.94
-209.18
-159.88
-103.94
-43.60
13.92
62.53
101.22
132.16
159.49
187.54
220.12
257.97
298.21
333.82
343.18
313.30
249.04
170.84
98.69
41.04
-5.96
-49.73
-98.83
-152.74
-201.94
-235.35
-245.90
-234.58
-204.60
-167.15
-134.88
-117.28
-116.24
-125.44
-135.41
-137.45
-126.97
-103.84
-71.37
-32.37
11.93
61.75
117.00
166.55
194.77
192.58
163.65
118.91
69.73
23.78
-14.80
-44.48
-65.75
-79.37
-86.02
-87.32
-86.18
-84.60
-83.79
-83.21
-81.57
-77.98
-71.64
-61.69
-48.67
-34.58
-21.44
-10.21
-0.26
10.21
23.93
40.12
59.68
82.46
106.40
128.01
143.48
150.01
146.53
134.13
115.90
96.45
79.52
66.94
58.59
53.19
49.29
45.79
42.15
38.20
34.29
30.27
25.55
19.38
11.32
1.52
-9.19
-19.58
-28.44
-34.55
-37.39
-37.11
-34.40
-30.20
-25.47
-21.08
-17.85
-16.52
-17.44
-20.38
-24.43
-28.11
-29.91
-28.91
-25.15
-19.56
-13.48
-8.08
-4.08
-1.67
-0.67
-0.65
-0.94
-0.70
0.99
4.76
10.63
17.90
25.41
32.03
37.12
40.68
43.16
45.09
46.67
47.62
47.22
44.63
39.23
30.93
20.42
9.02
-1.60
-9.88
-14.86
-16.37
-15.01
-11.87
-8.09
-4.53
-1.64
0.55
2.25
3.83
5.70
8.16
11.19
14.16
15.70
14.07
7.83
-3.35
-18.26
-34.42
-48.91
-59.29
-64.32
-63.99
-59.11
-50.89
-40.69
-29.96
-20.13
-12.22
-6.43
-1.89
3.05
10.13
20.35
33.53
48.35
62.87
75.22
84.01
88.58
88.93
85.60
79.46
71.45
62.25
52.17
41.01
28.37
14.00
-1.99
-19.00
-36.16
-52.42
-66.78
-78.43
-86.94
-92.33
-94.93
-95.15
-93.19
-89.04
-82.67
-74.47
-65.57
-57.72
-52.68
-51.40
-53.57
-57.61
-61.35
-62.82
-60.88
-55.31
-46.53
-35.27
-22.36
-8.78
4.26
15.34
23.18
27.00
26.89
23.79
19.17
14.61
11.17
9.17
8.22
7.52
6.33
4.31
1.50
-1.77
-5.15
-8.39
-11.29
-13.69
-15.43
-16.44
-16.88
-17.14
-17.72
-18.99
-20.95
-23.21
-25.16
-26.37
-26.74
-26.62
-26.50
-26.83
-27.68
-28.86
-30.00
-30.79
-31.15
-31.19
-31.06
-30.77
-30.20
-29.20
-27.64
-25.56
-23.01
-19.82
-15.46
-9.13
0.09
12.97
30.00
51.31
76.65
105.58
137.41
170.99
204.69
236.26
263.09
282.78
293.79
296.02
290.86
280.65
267.57
252.70
235.77
215.54
191.01
162.37
131.23
100.20
71.73
47.16
26.61
9.49
-4.85
-16.82
-26.97
-36.94
-49.93
-70.24
-101.59
-145.20
-198.56
-255.70
-308.80
-350.39
-375.12
-380.35
-365.78
-332.75
-283.85
-222.98
-155.32
-86.68
-22.35
34.19
81.99
122.21
156.90
187.75
215.36
239.40
259.40
275.41
288.32
299.58
310.46
321.18
330.50
336.02
334.94
325.17
306.23
279.55
247.91
214.29
180.77
147.91
114.94
80.39
42.80
0.97
-45.91
-98.01
-154.12
-210.94
-262.81
-302.85
-325.09
-326.85
-310.09
-280.81
-246.82
-214.92
-188.96
-169.65
-155.68
-145.32
-137.44
-131.45
-126.69
-121.98
-115.68
-106.22
-92.89
-75.99
-56.78
-36.80
-17.39
0.63
16.95
31.42
43.84
53.77
60.67
64.20
64.51
62.33
58.80
55.13
52.22
50.53
50.02
50.38
51.11
51.70
51.64
50.46
47.82
43.49
37.11
28.05
15.33
-2.08
-24.65
-51.62
-80.96
-109.83
-135.55
-156.41
-171.92
-182.41
-188.32
-189.81
-186.77
-179.38
-168.52
-155.84
-143.37
-132.84
-125.26
-120.82
-119.15
-119.68
-121.88
-125.34
-129.84
-135.46
-142.45
-151.15
-161.56
-173.04
-184.25
-193.70
-200.44
-204.72
-208.22
-213.37
-222.27
-235.71
-252.89
-271.88
-290.54
-307.08
-320.12
-328.43
-330.63
-325.50
-312.52
-292.34
-266.67
-237.62
-206.80
-174.98
-142.36
-109.27
-76.61
-45.76
-17.60
8.31
34.14
63.39
99.96
146.95
205.34
272.60
342.04
403.78
447.27
465.33
457.47
430.84
397.68
370.44
356.68
356.57
363.98
370.21
368.20
355.14
332.66
305.43
279.39
260.30
252.90
260.05
281.88
315.47
355.71
396.77
433.90
464.43
487.39
502.21
507.71
502.09
483.96
453.72
414.02
369.12
323.16
278.66
235.93
193.75
150.81
106.94
63.35
22.03
-15.43
-48.71
-78.85
-107.65
-136.77
-167.08
-198.26
-229.06
-257.66
-282.30
-301.78
-315.80
-325.01
-330.63
-333.86
-335.18
-334.13
-329.41
-319.57
-303.72
-281.93
-255.38
-226.00
-196.12
-168.07
-143.87
-124.98
-112.00
-104.50
-101.03
-99.54
-98.07
-95.31
-90.91
-85.30
-79.21
-73.24
-67.73
-62.72
-58.29
-54.53
-51.50
-49.00
-46.51
-43.34
-39.08
-33.84
-28.38
-23.70
-20.52
-18.90
-18.14
-17.12
-14.79
-10.59
-4.59
2.72
10.63
18.44
25.56
31.45
35.69
38.15
39.13
39.37
39.83
41.28
43.82
46.66
48.25
46.96
41.89
33.50
23.65
14.98
9.75
8.84
11.31
14.88
17.03
16.20
12.48
7.41
3.12
1.23
1.88
4.12
6.57
8.19
8.60
7.97
6.78
5.51
4.47
3.52
2.54
1.66
1.36
2.25
4.74
8.98
14.62
20.92
26.19
28.92
28.55
25.76
22.09
19.19
18.31
19.93
23.70
26.89
27.14
23.74
17.93
11.54
5.87
1.51
-1.32
-2.40
-5.08
-11.73
-22.03
-33.27
-43.06
-51.32
-60.03
-71.93
-89.22
-118.45
-162.84
-219.21
-278.55
-330.96
-369.89
-393.06
-401.51
-398.23
-394.60
-400.04
-417.60
-443.82
-474.14
-506.64
-541.80
-580.20
-573.37
-492.26
-343.17
-165.12
1.92
137.20
237.21
306.61
352.25
380.89
390.90
381.57
356.82
325.85
297.19
275.18
260.38
251.43
246.37
237.52
219.30
191.78
162.74
141.62
135.33
146.10
171.15
203.69
231.37
244.05
235.23
209.58
176.26
143.48
115.84
94.19
77.40
62.34
47.35
32.97
21.62
14.35
10.30
7.51
3.98
-0.99
-7.50
-14.64
-20.99
-24.88
-25.99
-25.09
-23.34
-21.60
-19.74
-16.79
-11.58
-3.36
7.92
21.16
34.77
47.23
57.81
66.91
75.59
84.94
95.36
106.46
116.99
125.45
130.66
132.30
131.22
129.11
127.95
129.47
134.62
142.99
152.54
159.48
159.47
149.28
128.37
99.55
68.32
40.76
21.45
13.14
14.03
18.33
18.84
10.13
-9.35
-36.93
-67.34
-95.00
-115.91
-128.81
-134.56
-134.85
-131.57
-126.88
-123.63
-125.26
-135.12
-154.96
-184.95
-223.23
-266.22
-309.93
-351.54
-390.13
-425.85
-458.11
-483.19
-495.78
-489.94
-460.68
-406.12
-329.06
-236.73
-138.67
-43.71
43.35
119.59
183.73
236.16
278.65
313.71
344.30
373.55
403.86
436.88
468.48
489.56
490.27
464.51
412.35
340.10
258.14
167.03
79.17
9.20
-36.32
-61.22
-72.78
-76.26
-74.30
-68.65
-61.58
-54.00
-48.25
-46.48
-48.78
-52.65
-54.92
-53.66
-48.81
-42.00
-34.30
-28.13
-26.18
-29.89
-37.91
-47.25
-54.15
-55.07
-47.95
-32.25
-11.10
9.71
24.48
30.03
26.41
16.36
3.64
-8.72
-18.68
-25.98
-31.19
-34.39
-34.77
-31.41
-24.15
-13.15
-0.63
10.73
18.66
22.01
21.23
18.03
14.61
12.86
13.75
16.98
21.45
25.74
28.54
29.08
27.25
23.44
18.35
12.70
6.91
1.36
-3.54
-7.35
-9.65
-10.29
-9.50
-7.89
-6.31
-5.53
-5.92
-7.27
-8.89
-10.08
-10.47
-10.23
-9.91
-10.16
-11.39
-13.57
-16.25
-18.58
-19.82
-19.79
-19.02
-18.44
-19.05
-21.35
-25.13
-29.30
-32.08
-32.07
-29.26
-25.02
-21.29
-19.72
-20.62
-22.91
-24.33
-21.87
-13.72
-0.93
13.22
24.96
31.32
31.63
26.93
19.51
13.12
10.76
12.80
17.91
24.77
31.87
37.68
39.32
33.51
20.87
6.06
-4.52
-4.45
11.02
42.08
84.64
126.45
149.05
145.26
126.50
109.20
100.44
99.57
93.06
70.23
26.84
-34.68
-104.02
-166.89
-210.77
-228.92
-220.26
-188.55
-139.71
-73.30
-2.97
54.58
91.62
110.68
117.97
118.31
113.38
103.97
90.97
75.23
60.93
52.84
52.03
55.16
56.71
51.57
37.43
15.24
-12.36
-39.73
-60.66
-71.37
-71.22
-61.67
-44.99
-23.78
-1.46
17.21
28.69
31.27
24.56
11.03
-6.28
-23.57
-37.51
-46.38
-50.35
-50.22
-47.12
-42.68
-39.12
-38.95
-43.56
-52.49
-63.26
-72.27
-75.99
-72.48
-62.54
-49.70
-39.07
-34.78
-37.83
-45.41
-51.86
-51.31
-40.55
-21.06
0.79
16.04
17.65
4.09
-20.07
-46.47
-66.58
-74.84
-70.02
-55.06
-35.19
-14.96
3.41
19.69
34.44
48.47
62.85
78.54
94.91
108.76
115.40
110.77
92.59
61.00
18.78
-29.44
-74.03
-102.63
-108.79
-96.88
-76.26
-53.75
-31.71
-9.96
11.73
32.13
48.51
57.69
58.35
51.80
41.49
30.45
20.37
11.49
2.73
-6.91
-17.61
-27.80
-34.31
-34.92
-28.91
-16.62
2.78
26.82
51.82
73.27
86.68
88.49
75.71
48.02
9.59
-32.78
-72.78
-106.18
-132.37
-153.66
-165.13
-164.29
-153.20
-135.72
-114.49
-90.35
-63.15
-33.47
-2.97
26.14
50.36
67.11
77.01
84.27
91.23
99.72
110.38
122.25
133.27
140.37
136.24
122.52
103.83
84.60
67.65
53.25
39.93
26.16
11.17
-3.69
-14.64
-19.00
-16.63
-9.74
-2.15
2.41
1.76
-4.02
-12.53
-19.11
-20.13
-13.48
0.99
21.26
43.01
60.06
65.80
55.48
29.21
-7.57
-44.68
-70.44
-75.86
-58.43
-23.36
18.91
57.00
82.65
92.58
88.09
72.56
49.56
21.16
-12.60
-52.12
-95.29
-138.74
-178.37
-209.83
-229.15
-232.12
-215.90
-180.87
-130.66
-71.88
-12.77
39.00
77.80
100.17
105.79
95.87
71.69
35.73
-8.15
-54.87
-97.20
-125.09
-136.84
-132.90
-110.79
-70.77
-15.47
49.64
116.91
178.24
226.97
258.96
274.37
275.79
266.21
248.93
226.61
201.36
174.93
148.59
122.96
99.30
78.78
61.92
48.83
37.99
26.53
11.58
-7.82
-29.08
-45.76
-50.88
-40.84
-17.34
11.91
36.51
48.11
43.65
26.37
5.69
-10.57
-21.75
-29.21
-37.07
-49.13
-66.54
-87.53
-108.65
-126.41
-139.48
-148.61
-155.40
-161.36
-166.73
-170.26
-171.32
-170.90
-171.33
-175.85
-186.94
-204.73
-226.96
-249.00
-264.12
-266.64
-253.05
-222.29
-176.52
-120.38
-59.12
3.20
64.82
125.92
184.36
234.49
269.34
282.79
272.83
243.43
203.35
157.81
117.65
91.53
80.18
79.24
83.26
88.49
92.30
91.56
82.52
62.61
31.33
-11.11
-60.17
-109.62
-153.66
-188.75
-214.71
-234.24
-251.08
-269.08
-290.70
-307.97
-313.64
-302.71
-274.33
-232.75
-185.25
-139.00
-96.57
-61.56
-32.16
0.04
40.22
88.66
139.55
188.85
235.35
280.67
327.10
376.35
425.46
466.62
489.93
487.38
456.42
400.63
330.04
258.80
201.50
166.79
154.29
156.46
162.40
162.44
150.20
125.62
94.76
66.56
47.21
37.22
32.78
27.90
16.55
-6.87
-44.29
-92.55
-145.39
-197.44
-245.91
-288.91
-325.31
-341.34
-326.51
-282.09
-221.11
-159.38
-108.19
-71.86
-49.60
-30.73
-4.72
33.26
81.97
136.07
186.92
221.26
220.91
178.58
104.73
22.55
-47.55
-101.86
-142.55
-170.78
-187.36
-194.93
-187.85
-168.21
-142.86
-121.21
-110.34
-110.21
-114.65
-115.37
-106.47
-85.78
-57.46
-29.55
-11.73
-11.37
-29.87
-62.76
-94.87
-110.97
-102.63
-74.55
-38.45
-4.90
21.20
40.29
55.45
68.97
79.78
85.28
82.22
70.23
50.94
27.21
1.83
-22.25
-42.63
-58.56
-70.28
-79.03
-85.98
-92.62
-97.20
-101.03
-105.81
-112.80
-122.86
-135.99
-151.14
-165.83
-177.04
-182.01
-179.50
-169.01
-150.44
-123.98
-89.46
-46.29
6.37
68.80
140.42
219.43
303.58
389.47
471.47
541.16
588.31
603.80
583.15
529.18
451.58
364.34
280.65
208.89
151.23
105.33
67.98
37.92
16.67
6.48
7.77
16.99
26.96
29.20
17.07
-11.89
-55.85
-110.75
-173.04
-241.07
-314.34
-390.86
-464.76
-526.04
-563.02
-566.82
-535.03
-472.89
-391.57
-304.54
-223.98
-158.44
-111.94
-83.97
-70.12
-63.19
-55.05
-38.91
-11.25
27.57
74.52
126.32
181.30
239.37
300.12
360.31
412.75
447.85
457.15
437.04
390.43
325.45
251.90
177.66
106.93
40.82
-20.19
-74.06
-116.51
-142.27
-147.31
-130.38
-93.75
-42.44
17.02
77.85
133.36
177.29
204.18
210.19
194.45
159.56
111.23
56.88
3.74
-43.06
-81.62
-112.90
-139.53
-163.69
-186.55
-208.04
-227.17
-242.37
-252.05
-255.10
-251.10
-240.62
-224.01
-202.65
-179.22
-157.07
-139.02
-126.56
-119.93
-117.82
-118.33
-116.92
-109.80
-95.64
-75.98
-53.66
-31.78
-13.99
-3.06
-1.63
-7.16
-15.64
-22.94
-25.48
-19.21
-0.27
32.16
76.87
129.22
188.26
252.73
319.68
384.02
441.38
489.92
528.99
561.02
555.65
495.78
388.03
258.45
131.30
19.66
-64.46
-126.26
-166.97
-187.13
-183.75
-157.12
-112.55
-61.91
-18.16
9.10
14.20
-2.09
-36.07
-77.90
-119.70
-151.38
-167.00
-167.61
-159.61
-150.14
-141.34
-131.98
-116.83
-92.32
-59.37
-24.14
6.73
28.88
41.49
47.26
48.55
47.22
43.20
35.34
21.59
1.07
-26.29
-56.94
-85.38
-107.68
-121.35
-125.21
-118.88
-103.61
-81.87
-56.83
-31.84
-9.25
7.53
13.22
4.41
-16.13
-41.87
-67.01
-87.89
-101.32
-102.12
-88.59
-59.33
-16.34
35.07
87.24
133.02
168.74
182.41
172.58
145.97
112.70
80.39
52.60
29.58
11.03
-1.01
-5.87
-0.98
13.92
36.57
62.65
87.59
107.05
119.87
124.37
123.10
121.07
120.43
119.44
113.44
97.53
68.47
29.23
-10.69
-39.37
-48.40
-38.67
-18.83
-0.58
6.10
-5.43
-34.69
-74.82
-116.50
-152.03
-177.79
-191.91
-193.00
-168.89
-121.14
-69.35
-37.74
-36.89
-60.08
-91.52
-118.91
-133.51
-134.09
-127.67
-122.33
-121.67
-123.83
-117.97
-97.65
-59.09
-2.02
68.54
141.45
204.54
248.88
270.20
268.34
245.75
208.66
166.20
127.50
97.98
79.36
70.02
65.08
57.26
38.56
4.34
-45.07
-105.05
-169.55
-231.57
-283.41
-318.03
-330.70
-320.47
-289.62
-243.27
-188.23
-132.70
-83.43
-43.07
-10.01
20.12
52.47
91.22
137.43
187.85
233.27
262.05
265.41
240.93
193.11
131.48
67.09
6.27
-39.35
-63.13
-69.19
-66.53
-60.95
-53.50
-43.29
-30.32
-16.47
-3.99
4.22
6.51
3.85
-1.56
-8.08
-14.42
-19.01
-19.28
-11.72
5.05
29.47
57.72
84.72
103.45
110.70
107.60
97.04
81.34
59.82
30.92
-4.02
-39.23
-66.59
-80.36
-78.35
-63.75
-43.09
-24.47
-14.13
-13.91
-21.86
-34.78
-49.50
-62.45
-69.20
-63.94
-42.38
-3.67
48.69
106.82
159.37
194.72
206.06
186.38
138.19
70.32
-5.26
-77.14
-132.74
-159.73
-157.12
-135.42
-107.32
-79.48
-53.98
-31.15
-11.59
3.69
13.25
15.90
12.62
6.61
2.20
1.95
6.02
12.76
19.79
24.47
24.62
20.14
12.98
6.30
1.92
0.22
0.08
-0.22
-2.55
-8.42
-18.28
-31.51
-46.44
-60.94
-72.27
-77.34
-73.61
-60.62
-40.97
-19.49
-1.59
9.09
11.93
9.33
5.29
3.56
6.10
12.93
24.12
38.70
55.59
73.78
92.33
110.22
126.55
140.94
153.59
165.24
176.45
187.38
197.44
205.44
209.99
210.23
