1.593708143000000000e+09
-2.999999999999999889e-02
5.059999999999999609e+00
1.791000000000000014e+01
7.934000000000000341e+01
2.282500000000000000e+02
-4.865000000000000000e+02
-5.900000000000000355e+00
1.561500000000000057e+02
4.678000000000000114e+01
4.040000000000000036e+00
-1.499999999999999944e-01
-4.699999999999999734e-01
-7.110000000000000320e+00
-3.078000000000000114e+01
3.363000000000000256e+01
-9.034999999999999432e+01
-4.886999999999999744e+01
1.855999999999999872e+01
4.407999999999999829e+01
1.229999999999999982e+00
7.540000000000000036e+00
-7.280000000000000249e+00
-1.928999999999999915e+01
3.196999999999999886e+01
1.044999999999999929e+01
-1.286999999999999922e+01
1.224000000000000021e+01
-3.204999999999999716e+01
2.366000000000000014e+01
2.478000000000000114e+01
-1.773000000000000043e+01
-3.885999999999999943e+01
-1.508000000000000007e+01
-1.493999999999999950e+01
8.999999999999999667e-02
-5.214999999999999858e+01
-2.085900000000000034e+02
-2.945400000000000205e+02
8.934000000000000341e+01
4.499300000000000068e+02
2.009000000000000057e+02
-4.834000000000000341e+01
1.448000000000000043e+01
-2.189999999999999947e+00
-1.633999999999999986e+01
1.124000000000000021e+01
-2.290000000000000036e+00
-2.748000000000000043e+01
-1.074000000000000021e+01
1.156000000000000050e+01
4.599999999999999645e+00
1.076999999999999957e+01
6.969999999999999751e+00
-6.049999999999999822e+00
-4.900000000000000355e+00
8.699999999999999956e-01
-9.429999999999999716e+00
-1.306000000000000050e+01
1.669999999999999929e+00
-2.689999999999999947e+00
-1.646999999999999886e+01
2.279999999999999805e+00
-3.549999999999999822e+00
-3.105999999999999872e+01
-2.217000000000000171e+01
-2.680000000000000071e+01
5.539000000000000057e+01
7.709999999999999964e+00
4.650000000000000355e+00
5.459999999999999964e+00
1.469999999999999973e+00
1.222000000000000064e+01
3.207999999999999829e+01
-8.550000000000000711e+00
-4.980000000000000426e+00
-3.959999999999999964e+00
-9.429999999999999716e+00
-6.790000000000000036e+00
-1.499999999999999944e-01
-3.100000000000000089e+00
-1.167999999999999972e+01
-6.700000000000000400e-01
-3.067000000000000171e+01
-4.389000000000000057e+01
-3.151000000000000156e+01
1.936899999999999977e+02
3.260799999999999841e+02
-9.776999999999999602e+01
-1.599499999999999886e+02
-9.960000000000000853e+00
3.200999999999999801e+01
3.793999999999999773e+01
-1.303999999999999915e+01
-2.237999999999999901e+01
-8.449999999999999289e+00
-2.919000000000000128e+01
-7.990999999999999659e+01
-4.414999999999999858e+01
6.252400000000000091e+02
-3.221999999999999886e+01
-7.545000000000000284e+01
-9.259999999999999787e+00
3.689000000000000057e+01
4.610000000000000142e+01
-5.849000000000000199e+01
-1.728199999999999932e+02
1.820099999999999909e+02
3.042999999999999972e+01
-1.355000000000000071e+01
-1.458000000000000007e+01
-1.248700000000000045e+02
-2.852400000000000091e+02
3.787300000000000182e+02
1.139699999999999989e+02
1.132000000000000028e+01
-3.843999999999999773e+01
9.599999999999999645e-01
1.369999999999999929e+01
6.895999999999999375e+01
2.313300000000000125e+02
-2.380699999999999932e+02
-2.319000000000000057e+02
3.309000000000000341e+01
4.132000000000000028e+01
8.740000000000000213e+00
3.600000000000000089e+00
1.612999999999999901e+01
2.444999999999999929e+01
6.830000000000000071e+00
-1.675000000000000000e+01
-2.078000000000000114e+01
4.553000000000000114e+01
-1.916000000000000014e+01
1.871000000000000085e+01
9.026999999999999602e+01
2.892000000000000171e+01
-8.154000000000000625e+01
-5.049000000000000199e+01
2.088700000000000045e+02
-1.002699999999999960e+02
2.542999999999999972e+01
5.835999999999999943e+01
6.282000000000000028e+01
-1.070600000000000023e+02
3.724000000000000199e+01
6.440000000000000391e+00
-2.521299999999999955e+02
-2.612099999999999795e+02
5.281499999999999773e+02
-1.227900000000000063e+02
-2.042700000000000102e+02
-5.227000000000000313e+01
9.795000000000000284e+01
2.884499999999999886e+02
1.946999999999999886e+02
-3.910400000000000205e+02
-5.300000000000000266e-01
2.755999999999999872e+01
-1.603499999999999943e+02
6.382999999999999829e+01
8.171999999999999886e+01
-1.461200000000000045e+02
-1.325399999999999920e+02
2.053000000000000114e+01
9.196999999999999886e+01
1.530699999999999932e+02
9.623000000000000398e+01
-2.552700000000000102e+02
2.495999999999999943e+02
6.325999999999999801e+01
-2.254699999999999989e+02
-4.253999999999999915e+01
7.954999999999999716e+01
-5.500000000000000000e+00
-3.799800000000000182e+02
2.042400000000000091e+02
-5.489000000000000057e+01
-1.979099999999999966e+02
2.439900000000000091e+02
4.282300000000000182e+02
-2.083799999999999955e+02
-1.773600000000000136e+02
-6.853000000000000114e+01
-1.409999999999999964e+01
7.015000000000000568e+01
-1.773000000000000043e+01
-1.982000000000000028e+01
-2.426999999999999957e+01
3.638000000000000256e+01
1.567999999999999972e+01
-1.769999999999999929e+01
1.146000000000000085e+01
-1.268999999999999950e+01
-2.510000000000000142e+01
1.528999999999999915e+01
1.406000000000000050e+01
-9.390000000000000568e+00
8.949999999999999289e+00
5.179999999999999716e+00
-2.475000000000000000e+01
2.717999999999999972e+01
-2.000000000000000111e-01
9.029999999999999361e+00
2.200000000000000011e-01
1.544999999999999929e+01
1.612000000000000099e+01
-1.241000000000000014e+01
-3.957000000000000028e+01
-3.359999999999999876e+00
2.664000000000000057e+01
5.778999999999999915e+01
2.360999999999999943e+01
1.499999999999999944e-01
-1.375999999999999979e+01
-1.063900000000000006e+02
3.972999999999999687e+01
4.599999999999999645e+00
-4.929999999999999716e+00
2.857999999999999829e+01
-6.850000000000000000e+01
-7.809999999999999609e+00
2.208499999999999943e+02
1.146500000000000057e+02
-2.086699999999999875e+02
-9.884000000000000341e+01
1.744399999999999977e+02
-1.065900000000000034e+02
-2.037999999999999901e+01
-8.150000000000000355e+00
-5.045000000000000284e+01
-3.218999999999999773e+01
6.945999999999999375e+01
2.230000000000000071e+01
-3.689999999999999858e+01
3.735999999999999943e+01
1.593999999999999950e+01
-4.707000000000000028e+01
-3.857000000000000028e+01
5.647999999999999687e+01
-2.655999999999999872e+01
1.464199999999999875e+02
-2.830799999999999841e+02
-2.161200000000000045e+02
1.186299999999999955e+02
3.111800000000000068e+02
1.921800000000000068e+02
-3.552900000000000205e+02
-2.288000000000000114e+02
7.834999999999999432e+01
5.217100000000000364e+02
-2.443400000000000034e+02
-2.108499999999999943e+02
3.182900000000000205e+02
-1.386999999999999922e+01
6.692000000000000171e+01
-5.067999999999999972e+01
-4.229999999999999716e+01
-5.977000000000000313e+01
4.532099999999999795e+02
-1.221099999999999994e+02
8.150000000000000355e+00
1.957999999999999829e+01
-6.017000000000000171e+01
-4.453000000000000114e+01
1.742599999999999909e+02
-2.662999999999999901e+01
4.046999999999999886e+01
2.430999999999999872e+01
-6.349000000000000199e+01
-6.559999999999999609e+00
1.823000000000000043e+01
-2.658999999999999986e+01
1.744000000000000128e+01
2.564999999999999858e+01
-2.971999999999999886e+01
-1.687400000000000091e+02
1.071700000000000017e+02
4.650999999999999801e+01
2.466000000000000014e+01
7.415000000000000568e+01
3.234000000000000341e+01
-1.380099999999999909e+02
-1.168900000000000006e+02
1.266500000000000057e+02
1.588000000000000078e+01
-1.600000000000000033e-01
-3.292000000000000171e+01
-6.879999999999999893e+00
4.152000000000000313e+01
5.502000000000000313e+01
-6.150999999999999801e+01
-4.425000000000000000e+01
5.509999999999999787e+00
-1.429999999999999938e+00
1.919999999999999929e+01
3.922999999999999687e+01
8.928000000000000114e+01
-6.328000000000000114e+01
-8.570000000000000284e+01
-4.892999999999999972e+01
8.178000000000000114e+01
5.309000000000000341e+01
1.689000000000000057e+01
-2.749100000000000250e+02
-2.357700000000000102e+02
-5.959000000000000341e+01
3.873500000000000227e+02
-2.880000000000000071e+01
5.821000000000000085e+01
-2.720000000000000195e+00
-1.186999999999999922e+01
-5.070000000000000284e+00
2.607000000000000028e+01
6.363000000000000256e+01
-2.204799999999999898e+02
2.292999999999999972e+01
4.217999999999999972e+01
1.258000000000000007e+01
-2.923000000000000043e+01
-3.185000000000000142e+01
1.076999999999999957e+01
1.732000000000000028e+01
1.692999999999999972e+01
5.415999999999999659e+01
9.265999999999999659e+01
-1.731599999999999966e+02
-1.004200000000000017e+02
-2.212999999999999901e+01
1.905999999999999872e+01
4.490000000000000213e+00
-8.509999999999999787e+00
2.694999999999999929e+01
-2.899999999999999800e-01
1.027999999999999936e+01
-1.796999999999999886e+01
1.055199999999999960e+02
4.320000000000000284e+00
3.950000000000000178e+00
4.507000000000000028e+01
4.360000000000000142e+01
-8.262999999999999545e+01
-6.704000000000000625e+01
6.149000000000000199e+01
1.356999999999999886e+02
1.837000000000000099e+01
-2.464000000000000057e+01
1.303999999999999915e+01
-2.110000000000000142e+01
1.173000000000000043e+01
-6.426999999999999602e+01
6.139999999999999680e+00
4.427000000000000313e+01
-3.509999999999999787e+00
-1.560000000000000053e+00
2.539000000000000057e+01
4.469999999999999751e+00
-2.475000000000000000e+01
6.456999999999999318e+01
2.128000000000000114e+01
7.501999999999999602e+01
-2.271399999999999864e+02
1.714900000000000091e+02
-1.857999999999999829e+01
5.992999999999999972e+01
-1.862999999999999901e+01
-2.262999999999999901e+01
5.603000000000000114e+01
1.119999999999999929e+01
9.918000000000000682e+01
-1.802599999999999909e+02
-1.040799999999999983e+02
2.089600000000000080e+02
1.847800000000000011e+02
-1.539000000000000057e+01
6.013000000000000256e+01
-8.839999999999999858e+00
-4.453999999999999915e+01
2.857999999999999829e+01
-6.017000000000000171e+01
-2.660999999999999943e+01
5.536999999999999744e+01
5.906000000000000227e+01
7.909000000000000341e+01
1.600000000000000000e+01
-8.412999999999999545e+01
1.522100000000000080e+02
-2.995799999999999841e+02
1.888899999999999864e+02
1.673000000000000043e+01
-1.086999999999999922e+01
-2.560000000000000053e+00
-4.089999999999999858e+00
5.417000000000000171e+01
-2.819999999999999929e+01
-3.940999999999999659e+01
1.021000000000000085e+01
2.385000000000000142e+01
-1.353999999999999915e+01
6.950000000000000178e+00
1.160999999999999943e+01
-2.137999999999999901e+01
2.529999999999999805e+00
1.032000000000000028e+01
7.610000000000000320e+00
-3.099999999999999978e-01
-1.960999999999999943e+01
1.268999999999999950e+01
2.191000000000000014e+01
1.319999999999999929e+01
2.259999999999999787e+00
1.240000000000000036e+01
4.240000000000000213e+00
1.862000000000000099e+01
-7.110000000000000320e+00
-2.303999999999999915e+01
-7.220000000000000284e+01
2.432999999999999829e+01
5.003000000000000114e+01
-1.146000000000000085e+01
1.069999999999999929e+01
7.000000000000000666e-02
-1.064000000000000057e+01
-2.799999999999999822e+00
7.780000000000000249e+00
1.700000000000000122e-01
-2.549999999999999822e+00
1.760000000000000009e+00
-2.279999999999999805e+00
3.740000000000000213e+00
-6.400000000000000133e-01
-8.849999999999999645e+00
5.290000000000000036e+00
1.566999999999999993e+01
-8.029999999999999361e+00
-6.900000000000000355e+00
1.379999999999999893e+00
-5.990000000000000213e+00
-8.970000000000000639e+00
-1.060999999999999943e+01
2.473999999999999844e+01
-5.030000000000000249e+00
1.475000000000000000e+01
-1.119999999999999929e+01
-2.035000000000000142e+01
1.623000000000000043e+01
1.090000000000000036e+01
-1.240000000000000036e+01
4.400000000000000355e+00
-8.460000000000000853e+00
4.629999999999999893e+00
-2.950000000000000178e+00
2.217999999999999972e+01
-2.085999999999999943e+01
1.776000000000000156e+01
-2.432000000000000028e+01
-1.258000000000000007e+01
2.421999999999999886e+01
-1.570000000000000062e+00
-7.690000000000000391e+00
9.849999999999999645e+00
-1.600000000000000033e-01
5.330000000000000071e+00
-4.099999999999999756e-01
-5.999999999999999778e-02
-3.099999999999999978e-01
-1.130000000000000071e+01
6.799999999999999822e+00
-8.710000000000000853e+00
-3.123999999999999844e+01
-6.030000000000000249e+00
5.225999999999999801e+01
-1.350000000000000000e+01
3.953999999999999915e+01
3.835000000000000142e+01
-5.782999999999999829e+01
-5.177000000000000313e+01
6.225999999999999801e+01
-2.442999999999999972e+01
3.254999999999999716e+01
2.600000000000000000e+01
-2.846000000000000085e+01
-7.953000000000000114e+01
4.870000000000000284e+01
-6.320000000000000284e+01
3.096999999999999886e+01
-5.532999999999999829e+01
4.838000000000000256e+01
1.880000000000000071e+01
-5.114000000000000057e+01
3.406000000000000227e+01
-3.239999999999999858e+01
3.882999999999999829e+01
-3.239999999999999858e+01
3.155000000000000071e+01
-2.817999999999999972e+01
1.958999999999999986e+01
-8.480000000000000426e+00
-2.720000000000000195e+00
3.839999999999999858e+00
-4.795000000000000284e+01
3.710999999999999943e+01
-1.928999999999999915e+01
-2.939999999999999947e+00
4.440000000000000391e+00
1.291999999999999993e+01
-2.292999999999999972e+01
2.216000000000000014e+01
-2.241000000000000014e+01
-4.267000000000000171e+01
-8.900000000000000133e-01
1.597000000000000064e+01
1.610999999999999943e+01
1.071000000000000085e+01
6.459999999999999964e+00
-3.120000000000000107e+00
1.750000000000000000e+01
8.609999999999999432e+00
-1.828000000000000114e+01
-2.371999999999999886e+01
1.209999999999999964e+00
1.426999999999999957e+01
1.000999999999999979e+01
1.064000000000000057e+01
2.080000000000000071e+01
6.589999999999999858e+00
-7.230000000000000426e+00
-1.124000000000000021e+01
3.400000000000000000e+01
1.527999999999999936e+01
-4.482999999999999829e+01
-1.272000000000000064e+01
-1.828999999999999915e+01
1.355000000000000071e+01
-3.832000000000000028e+01
9.419999999999999929e+00
1.383000000000000007e+01
-4.070000000000000284e+00
1.363000000000000078e+01
3.320000000000000284e+01
-1.801000000000000156e+01
-4.165999999999999659e+01
-4.269999999999999574e+00
4.096000000000000085e+01
9.830000000000000071e+00
-4.040000000000000036e+00
-5.636999999999999744e+01
-3.314999999999999858e+01
9.598000000000000398e+01
1.025999999999999979e+01
-1.108000000000000007e+01
7.740000000000000213e+00
8.076000000000000512e+01
-4.692000000000000171e+01
-3.910000000000000142e+01
3.669999999999999929e+00
-3.217999999999999972e+01
2.560000000000000053e+00
2.805000000000000071e+01
1.275999999999999979e+01
-3.051000000000000156e+01
-1.346000000000000085e+01
3.281000000000000227e+01
4.322999999999999687e+01
-3.628000000000000114e+01
-1.837999999999999901e+01
6.299000000000000199e+01
-2.032000000000000028e+01
-3.964999999999999858e+01
3.232000000000000028e+01
-1.879999999999999893e+00
-1.298000000000000043e+01
5.807000000000000028e+01
-1.996699999999999875e+02
3.139999999999999858e+01
8.900000000000000133e-01
6.851000000000000512e+01
-4.760000000000000142e+01
4.785000000000000142e+01
-2.569000000000000128e+01
-5.328000000000000114e+01
-1.492999999999999972e+01
-3.967000000000000171e+01
3.820000000000000284e+01
1.556800000000000068e+02
-1.422700000000000102e+02
1.384799999999999898e+02
1.006000000000000050e+01
-3.288399999999999750e+02
-5.760999999999999943e+01
2.837000000000000099e+01
3.985999999999999943e+01
-2.235000000000000142e+01
-6.336999999999999744e+01
-1.962599999999999909e+02
2.709999999999999964e+00
4.204100000000000250e+02
-5.210999999999999943e+01
-3.024300000000000068e+02
3.176000000000000156e+01
-3.361999999999999744e+01
-5.225000000000000000e+01
-2.810999999999999943e+01
6.109000000000000341e+01
5.700000000000000178e+00
9.092000000000000171e+01
-2.887000000000000099e+01
-5.040000000000000036e+00
2.729999999999999982e+00
8.449999999999999289e+00
-6.297999999999999687e+01
-2.940299999999999727e+02
1.092699999999999960e+02
1.796999999999999886e+02
9.420000000000000284e+01
5.742000000000000171e+01
-7.370000000000000284e+01
2.720000000000000195e+00
9.434000000000000341e+01
-1.413600000000000136e+02
2.214000000000000057e+01
-4.328000000000000114e+01
2.971100000000000136e+02
-1.439099999999999966e+02
-6.468000000000000682e+01
3.707999999999999829e+01
-2.010999999999999943e+01
-3.507000000000000028e+01
-1.093599999999999994e+02
-5.334000000000000341e+01
-1.285099999999999909e+02
9.648999999999999488e+01
6.225999999999999801e+01
1.861999999999999886e+02
-4.595000000000000284e+01
-4.317999999999999972e+01
3.091000000000000014e+01
-3.098999999999999844e+01
-8.181999999999999318e+01
4.824000000000000199e+01
6.993999999999999773e+01
1.388799999999999955e+02
-2.656299999999999955e+02
-2.364099999999999966e+02
4.749499999999999886e+02
1.810999999999999943e+02
-3.030400000000000205e+02
-1.270100000000000051e+02
-2.271999999999999886e+01
8.237999999999999545e+01
3.627000000000000313e+01
5.731000000000000227e+01
3.089999999999999858e+01
5.000000000000000000e-01
-7.740000000000000213e+00
1.168999999999999950e+01
2.755999999999999872e+01
-2.955999999999999872e+01
-3.735600000000000023e+02
-9.395000000000000284e+01
1.576599999999999966e+02
3.704999999999999716e+01
1.787000000000000099e+01
-2.072899999999999920e+02
1.343499999999999943e+02
1.823999999999999844e+01
2.405999999999999872e+01
-4.064000000000000057e+01
2.223999999999999844e+01
1.739000000000000057e+01
-6.753000000000000114e+01
5.160000000000000142e+00
1.770000000000000018e+00
-1.217500000000000000e+02
-1.426899999999999977e+02
4.107099999999999795e+02
1.190799999999999983e+02
-1.386200000000000045e+02
-5.954999999999999716e+01
-7.568000000000000682e+01
-3.728999999999999915e+01
1.264500000000000028e+02
1.565900000000000034e+02
-5.110999999999999943e+01
-2.394399999999999977e+02
1.482700000000000102e+02
-1.467999999999999972e+01
1.321599999999999966e+02
-1.527400000000000091e+02
-3.236999999999999744e+01
-8.731999999999999318e+01
4.011999999999999744e+01
4.578999999999999915e+01
-3.019999999999999929e+01
-1.669999999999999929e+00
4.761999999999999744e+01
5.500000000000000444e-01
-6.399000000000000199e+01
8.401000000000000512e+01
-7.843000000000000682e+01
-6.282000000000000028e+01
9.169999999999999929e+00
-1.898999999999999844e+01
-3.076999999999999957e+01
1.709900000000000091e+02
1.002000000000000028e+02
-3.503899999999999864e+02
2.394000000000000057e+02
1.479099999999999966e+02
-2.149199999999999875e+02
6.300000000000000044e-01
5.170000000000000284e+01
-1.824099999999999966e+02
-1.354600000000000080e+02
-3.070799999999999841e+02
8.310000000000000497e+00
3.565699999999999932e+02
4.644300000000000068e+02
2.203000000000000114e+01
-3.351800000000000068e+02
-9.806999999999999318e+01
-2.837999999999999901e+01
3.913000000000000256e+01
1.703000000000000114e+01
2.540000000000000036e+00
2.369999999999999929e+01
-6.003000000000000114e+01
-4.741399999999999864e+02
3.568199999999999932e+02
2.313700000000000045e+02
3.979999999999999982e+00
3.477000000000000313e+01
1.346200000000000045e+02
-9.349999999999999645e+00
-2.662200000000000273e+02
1.195900000000000034e+02
1.670300000000000011e+02
-5.365999999999999659e+01
3.003000000000000114e+01
2.201000000000000156e+01
1.360000000000000098e+00
-1.016000000000000014e+01
-2.501999999999999957e+01
1.075999999999999979e+01
1.490500000000000114e+02
-1.397100000000000080e+02
5.671000000000000085e+01
2.455999999999999872e+01
-7.598999999999999488e+01
-2.007000000000000028e+01
1.154000000000000057e+02
4.850999999999999801e+01
2.779999999999999805e+00
-1.531999999999999886e+02
1.332700000000000102e+02
-2.149999999999999911e+00
-4.467999999999999972e+01
-1.387400000000000091e+02
3.572999999999999687e+01
2.757900000000000205e+02
-2.907999999999999829e+01
-6.654000000000000625e+01
-2.269600000000000080e+02
2.728299999999999841e+02
-6.017000000000000171e+01
-9.656999999999999318e+01
4.564200000000000159e+02
3.278000000000000114e+01
-1.081899999999999977e+02
-1.425500000000000114e+02
-1.173000000000000043e+01
8.221999999999999886e+01
-1.228599999999999994e+02
3.035799999999999841e+02
1.667000000000000171e+01
-5.630199999999999818e+02
7.451999999999999602e+01
-2.019000000000000128e+01
1.112300000000000040e+02
-2.240099999999999909e+02
-3.060000000000000053e+00
4.899200000000000159e+02
-6.190999999999999659e+01
-9.231999999999999318e+01
-1.076800000000000068e+02
-1.013199999999999932e+02
1.102999999999999936e+01
9.753000000000000114e+01
-1.919099999999999966e+02
-1.179699999999999989e+02
7.001999999999999602e+01
-1.326999999999999886e+02
6.269999999999999574e+00
-1.441999999999999993e+01
-3.922999999999999687e+01
-3.669999999999999929e+00
-7.948000000000000398e+01
2.014000000000000057e+01
-6.061999999999999744e+01
1.102199999999999989e+02
