1593115159.00
64.000000
-0.00
-0.00
-0.00
-0.00
-0.00
-0.00
-0.00
-0.00
-0.00
-0.00
0.00
0.01
0.01
-0.00
-0.03
-0.05
-0.05
0.00
0.13
0.36
0.66
1.01
1.37
1.72
2.06
2.40
2.79
3.24
3.80
4.42
5.06
5.66
6.20
6.68
7.15
7.68
8.31
9.14
10.09
11.04
11.88
12.56
13.14
13.76
14.65
15.96
17.91
20.32
22.90
25.38
27.58
29.57
31.68
34.32
37.81
42.54
48.15
54.10
59.83
64.97
69.58
74.14
79.34
85.71
93.76
103.00
112.62
121.73
129.77
136.75
143.30
150.75
157.77
166.64
177.95
191.79
206.97
220.57
228.25
225.36
208.53
176.87
132.76
80.05
23.07
-34.94
-92.44
-149.16
-205.23
-260.37
-313.74
-363.87
-409.83
-450.91
-486.50
-515.74
-537.23
-549.22
-549.96
-538.37
-514.21
-478.67
-433.88
-382.45
-327.02
-269.84
-212.63
-156.66
-102.96
-52.38
-5.90
35.59
71.44
101.37
125.51
144.35
158.63
169.04
176.24
180.61
182.44
181.93
179.34
175.01
169.34
162.78
155.68
148.33
140.84
133.29
125.65
117.95
110.21
102.53
95.01
87.75
80.83
74.28
68.07
62.13
56.41
50.84
45.46
40.35
35.61
31.34
27.53
24.11
20.88
17.67
14.38
11.07
7.96
5.31
3.32
2.00
1.10
0.23
-0.97
-2.69
-4.79
-6.87
-8.47
-9.28
-9.38
-9.17
-9.19
-9.91
-11.34
-13.19
-15.05
-16.65
-18.00
-19.17
-19.96
-19.81
-18.07
-14.52
-9.86
-5.41
-2.30
-0.68
0.58
3.19
8.28
15.46
22.89
28.18
29.75
27.60
23.17
18.46
14.95
13.13
12.58
12.69
13.08
13.86
15.27
16.96
17.78
15.97
9.95
-0.66
-14.40
-28.10
-37.88
-40.68
-35.45
-23.47
-7.66
8.68
22.98
33.83
40.59
42.90
40.47
33.33
22.23
8.73
-5.13
-17.44
-26.88
-32.68
-34.22
-30.86
-22.16
-8.74
7.17
21.73
30.97
32.58
27.23
18.56
11.65
10.69
17.08
29.02
42.41
52.75
56.84
53.64
44.23
30.99
16.67
3.68
-6.30
-12.86
-16.27
-17.36
-17.27
-17.10
-17.62
-18.91
-20.37
-20.88
-19.23
-14.59
-7.05
2.24
11.28
17.65
19.17
14.59
4.25
-9.76
-23.83
-33.88
-36.66
-30.96
-18.19
-1.98
13.08
23.04
25.80
21.54
12.24
0.94
-9.29
-16.00
-17.94
-15.19
-9.11
-1.84
4.31
7.75
8.13
6.28
3.68
1.70
1.11
2.03
4.11
6.70
9.21
11.13
12.17
12.26
11.77
11.43
12.09
14.14
16.83
18.49
17.21
11.84
2.67
-8.43
-18.77
-25.86
-27.06
-21.32
-9.27
7.20
25.60
43.58
59.37
72.06
81.51
88.17
92.62
95.52
97.59
99.72
102.97
108.37
116.57
127.50
140.34
153.80
166.84
179.21
191.13
202.61
212.64
219.02
218.99
210.48
193.01
168.00
138.15
106.24
74.23
42.91
12.26
-17.91
-47.65
-76.83
-105.27
-132.70
-158.95
-183.99
-208.26
-232.50
-257.05
-280.72
-300.11
-310.27
-306.81
-288.63
-259.59
-227.70
-202.02
-188.82
-189.16
-199.22
-212.89
-224.87
-232.63
-236.25
-237.22
-237.44
-238.97
-244.23
-255.55
-273.87
-297.34
-320.71
-336.75
-338.93
-323.97
-292.81
-249.60
-199.63
-147.73
-97.79
-53.11
-16.62
9.65
25.63
33.77
38.54
44.72
55.52
71.58
91.33
112.14
131.52
147.84
160.16
168.06
171.62
171.64
169.74
168.05
168.49
171.93
177.74
183.72
186.68
183.57
172.65
154.36
131.57
109.15
92.56
86.07
91.13
105.60
124.32
140.99
149.82
147.31
133.35
111.22
86.51
65.40
52.77
51.11
60.82
79.58
103.21
126.87
146.40
158.88
163.20
159.77
150.33
138.30
126.05
114.58
103.81
93.77
85.08
79.19
77.32
79.71
86.43
95.04
101.97
104.21
100.79
92.56
81.31
67.88
44.18
7.85
-38.34
-88.20
-136.18
-177.74
-211.28
-232.51
-236.44
-219.90
-179.48
-120.92
-56.99
-2.62
32.16
44.17
37.84
21.35
3.22
-9.58
-15.49
-15.49
-10.61
0.69
18.22
39.47
58.79
70.10
69.48
53.90
23.31
-19.22
-66.37
-112.50
-154.03
-190.85
-224.40
-247.71
-255.11
-245.06
-232.93
-220.05
-204.06
-177.17
-138.37
-90.10
-36.84
14.61
57.45
86.13
98.85
93.31
68.02
22.68
-39.45
-111.51
-184.97
-250.16
-297.92
-320.22
-315.42
-287.87
-246.39
-199.75
-153.91
-111.32
-71.15
-31.38
9.81
50.53
86.41
112.33
125.06
124.08
110.89
88.43
60.51
31.59
4.94
-17.90
-37.60
-56.15
-75.62
-96.53
-116.68
-131.43
-135.50
-125.89
-103.31
-71.71
-35.86
1.16
39.18
80.34
127.10
179.92
236.22
290.89
338.51
375.60
401.83
419.70
433.20
446.44
462.04
479.86
496.82
508.09
509.03
496.76
471.11
434.65
392.11
348.71
307.41
267.58
226.46
181.65
133.06
83.33
36.61
-2.65
-31.60
-51.52
-67.72
-86.56
-112.40
-146.70
-188.54
-235.29
-281.57
-318.81
-337.72
-331.55
-297.84
-239.81
-167.09
-93.87
-39.91
-24.07
-47.51
-90.50
-129.32
-151.69
-158.37
-156.65
-153.25
-150.74
-146.75
-136.78
-119.24
-97.58
-77.82
-64.49
-58.88
-59.11
-61.78
-62.75
-58.57
-48.55
-35.43
-23.19
-14.67
-10.79
-10.70
-12.88
-15.39
-16.33
-15.04
-12.60
-10.84
-11.11
-14.41
-20.43
-28.69
-38.47
-49.05
-60.40
-73.19
-87.66
-100.95
-109.99
-110.26
-98.53
-74.88
-43.23
-10.27
17.17
34.91
42.67
43.11
40.19
36.71
33.62
30.64
27.38
24.11
21.69
20.82
21.29
22.33
22.81
21.90
19.56
16.49
13.67
11.85
11.22
11.41
12.07
12.84
13.66
14.66
15.97
17.74
20.40
24.39
30.15
37.38
44.36
48.12
45.64
35.59
19.35
0.61
-16.50
-29.23
-37.03
-40.90
-41.59
-38.32
-29.13
-12.69
9.45
32.15
48.18
51.70
41.37
21.49
0.19
-14.33
-17.18
-8.42
7.94
26.57
43.45
57.01
67.51
75.47
80.52
81.43
77.39
69.33
60.12
53.35
51.17
52.94
55.14
53.13
43.48
25.74
2.32
-22.87
-46.25
-65.74
-80.46
-89.80
-92.53
-86.85
-71.45
-46.93
-16.34
15.62
44.21
66.41
81.53
90.83
95.60
96.94
95.23
90.10
80.77
66.47
46.74
21.70
-7.57
-38.74
-68.13
-91.56
-105.46
-108.25
-101.02
-87.27
-71.63
-58.23
-49.50
-45.69
-45.44
-46.63
-47.13
-45.21
-39.86
-31.00
-19.86
-9.09
-2.25
-2.72
-12.33
-30.38
-53.60
-77.23
-96.70
-109.13
-114.04
-112.92
-108.38
-103.02
-98.72
-96.23
-95.23
-94.48
-92.18
-86.49
-76.24
-61.37
-43.05
-23.20
-3.75
13.99
29.34
41.96
51.19
55.95
54.95
47.51
34.12
16.69
-1.83
-18.24
-29.95
-35.79
-36.44
-34.36
-33.18
-36.43
-46.13
-61.88
-80.93
-99.39
-114.09
-123.93
-130.27
-135.97
-143.92
-155.88
-171.90
-190.56
-209.41
-225.46
-235.48
-236.46
-226.28
-204.36
-171.99
-131.99
-87.75
-42.26
2.34
44.56
83.16
117.00
145.40
168.79
188.90
208.22
228.74
250.91
273.22
292.99
307.72
316.58
320.95
324.01
329.36
339.52
354.83
373.47
392.28
408.13
418.90
423.90
423.45
418.04
407.59
391.40
368.60
338.95
303.39
264.10
224.00
185.93
151.76
122.04
95.83
71.08
45.28
16.15
-17.92
-58.07
-105.05
-159.07
-218.72
-279.80
-334.84
-374.51
-390.94
-381.29
-349.68
-305.87
-261.35
-224.94
-200.74
-188.82
-187.70
-196.47
-214.39
-239.48
-266.95
-289.59
-299.97
-293.69
-271.73
-240.20
-208.15
-183.04
-168.02
-161.09
-156.68
-147.91
-129.41
-99.93
-63.05
-26.50
2.06
18.10
22.08
18.57
14.74
17.73
31.91
57.67
90.99
126.50
159.42
187.24
209.44
227.80
245.32
263.90
283.28
293.26
283.04
248.68
197.82
143.35
94.75
54.77
17.63
-19.64
-54.33
-77.72
-80.08
-52.94
0.13
64.35
119.20
146.14
135.89
90.25
21.20
-54.58
-121.88
-172.00
-202.77
-216.73
-218.75
-213.69
-205.91
-197.98
-190.60
-183.40
-176.07
-168.18
-159.19
-148.32
-134.53
-117.32
-96.97
-74.80
-53.14
-35.01
-22.62
-16.53
-15.44
-16.69
-17.56
-16.00
-11.11
-3.11
6.89
17.67
28.22
37.96
46.47
53.32
57.99
60.29
60.65
60.10
59.99
61.29
64.11
67.56
70.32
71.33
70.41
68.28
65.94
64.14
62.96
62.00
60.87
59.49
58.13
57.04
56.14
54.99
53.12
50.49
47.68
45.58
44.84
45.37
46.28
46.27
44.22
39.82
33.55
26.48
19.78
14.27
10.20
7.32
5.08
2.86
0.28
-2.78
-6.10
-9.29
-11.90
-13.65
-14.52
-14.86
-15.23
-16.15
-17.86
-20.09
-22.17
-23.31
-22.97
-21.06
-17.94
-14.21
-10.38
-6.77
-3.52
-0.80
1.09
1.81
1.22
-0.34
-2.04
-2.88
-2.24
-0.23
2.25
3.89
3.63
1.19
-2.81
-7.15
-10.62
-12.50
-12.88
-12.39
-11.89
-12.08
-13.27
-15.43
-18.37
-21.89
-25.87
-30.15
-34.38
-37.99
-40.36
-41.05
-40.07
-37.85
-35.03
-32.12
-29.29
-26.31
-22.80
-18.45
-13.25
-7.42
-1.27
4.99
11.28
17.52
23.42
28.48
32.10
33.81
33.59
31.88
29.48
27.19
25.50
24.46
23.70
22.66
20.90
18.28
14.98
11.40
8.00
5.07
2.66
0.56
-1.62
-4.23
-7.46
-11.18
-14.96
-18.19
-20.33
-21.07
-20.43
-18.65
-16.12
-13.22
-10.31
-7.67
-5.50
-3.89
-2.78
-2.03
-1.65
-1.89
-3.27
-6.39
-11.53
-18.35
-25.88
-32.96
-38.77
-43.38
-47.77
-53.40
-61.56
-72.67
-86.07
-100.22
-113.20
-123.28
-129.46
-131.74
-131.24
-130.11
-130.96
-136.04
-146.26
-160.74
-176.93
-191.48
-201.34
-204.38
-199.72
-187.15
-166.55
-137.47
-99.36
-51.89
4.50
68.23
136.31
203.81
264.40
312.21
344.64
364.38
378.98
397.25
424.23
457.81
488.14
502.17
490.12
450.34
389.21
317.03
242.69
170.99
104.46
45.17
-3.41
-37.42
-55.57
-61.10
-60.97
-62.03
-66.68
-70.53
-67.41
-53.91
-32.44
-9.89
6.75
14.75
17.15
20.74
32.74
53.98
78.31
95.98
99.07
85.44
58.78
25.93
-14.22
-57.40
-97.06
-128.00
-150.34
-168.98
-189.20
-212.39
-236.84
-259.34
-271.79
-268.80
-248.85
-214.52
-171.20
-125.04
-81.49
-44.55
-16.43
3.23
14.82
19.16
18.18
14.93
12.17
10.11
5.21
-8.29
-34.36
-73.34
-120.38
-166.76
-202.98
-222.40
-223.43
-209.27
-185.76
-158.69
-133.21
-113.48
-102.54
-101.66
-109.44
-121.33
-130.49
-129.75
-113.99
-82.23
-37.55
14.84
69.92
124.16
175.01
219.72
254.78
276.74
284.03
278.28
263.89
245.77
226.77
206.45
182.28
152.40
118.03
84.02
56.77
41.20
38.43
45.54
57.41
69.34
78.70
85.20
89.99
94.29
98.54
102.15
103.94
102.78
98.18
90.54
81.05
71.29
62.46
54.69
46.86
37.35
25.14
10.82
-3.25
-13.74
-17.56
-13.09
-0.63
17.97
40.14
63.52
86.05
105.73
120.31
127.63
126.37
116.73
100.46
80.26
59.02
38.58
19.19
-0.48
-22.27
-48.04
-79.56
-118.83
-166.84
-221.59
-276.79
-322.22
-347.34
-344.66
-313.77
-262.42
-204.91
-155.71
-123.99
-111.48
-114.20
-127.32
-146.31
-167.34
-186.30
-199.59
-203.60
-196.49
-180.44
-162.10
-151.17
-153.84
-168.93
-188.17
-201.77
-201.75
-184.67
-152.69
-103.36
-43.85
13.55
55.98
86.53
111.71
136.27
162.82
192.70
226.12
260.62
293.33
321.15
341.38
350.74
348.30
336.97
322.50
310.82
304.37
302.42
301.32
295.89
280.12
250.69
208.72
159.32
109.56
65.18
29.60
3.02
-17.46
-37.46
-62.38
-95.20
-135.74
-181.17
-227.57
-270.83
-307.52
-335.01
-351.32
-354.20
-341.32
-312.09
-269.72
-222.10
-179.83
-152.26
-142.83
-146.99
-154.10
-152.94
-137.66
-110.50
-79.34
-51.77
-30.79
-13.84
4.44
27.70
55.02
82.20
105.51
125.17
145.84
171.37
199.91
222.54
227.01
204.39
155.42
92.53
35.81
5.20
10.24
45.67
94.77
137.66
159.70
156.06
131.42
91.24
46.30
7.85
-18.84
-36.30
-49.44
-59.96
-65.81
-64.23
-54.84
-40.03
-25.17
-15.85
-14.87
-20.78
-28.97
-34.45
-34.20
-28.04
-17.81
-7.17
0.07
1.92
-0.85
-5.46
-8.83
-9.03
-5.66
0.41
7.05
11.78
12.88
10.18
4.86
-1.40
-7.44
-11.91
-14.22
-14.89
-15.22
-16.60
-19.87
-24.98
-31.07
-36.94
-40.94
-41.93
-39.90
-35.91
-31.58
-28.57
-28.29
-31.89
-40.17
-52.23
-65.65
-76.55
-80.44
-73.73
-55.51
-28.36
3.77
31.85
49.82
56.44
54.42
48.13
41.15
34.91
29.12
23.02
16.37
10.49
7.08
6.69
8.55
11.01
12.20
11.08
7.72
3.12
-0.91
-2.61
-1.41
2.31
7.57
13.43
19.40
25.06
30.26
35.00
39.91
45.72
53.93
66.04
82.00
99.05
111.51
112.71
96.05
62.89
19.48
-25.10
-62.53
-88.15
-100.91
-100.85
-87.98
-63.15
-28.92
8.41
39.92
57.27
56.25
38.94
11.55
-15.44
-35.93
-49.79
-61.51
-74.76
-89.09
-98.39
-95.14
-74.98
-39.88
1.51
37.91
59.17
61.55
49.12
30.78
15.43
8.83
12.38
23.43
37.63
49.12
52.35
42.60
17.77
-19.65
-61.59
-96.12
-111.66
-101.67
-67.88
-19.67
29.51
67.13
85.39
83.06
64.72
38.19
11.74
-7.98
-16.85
-13.84
-0.70
18.56
37.40
48.93
48.50
35.65
13.90
-10.55
-31.41
-44.04
-47.01
-41.47
-30.06
-16.09
-2.94
6.78
11.89
11.82
8.54
5.14
4.58
8.67
17.61
30.03
42.83
51.43
50.87
39.91
17.89
-12.09
-43.62
-69.47
-84.31
-86.66
-78.79
-65.29
-50.64
-37.50
-27.54
-20.58
-15.07
-8.84
-0.46
9.92
20.51
28.59
31.14
26.56
15.30
-0.52
-17.56
-32.76
-43.92
-49.68
-49.20
-42.59
-30.81
-15.62
0.64
16.28
29.88
40.50
48.14
53.85
59.10
65.17
72.46
80.18
87.75
94.35
99.39
102.87
105.23
106.50
105.86
101.60
86.32
57.79
19.93
-19.56
-54.13
-80.29
-96.69
-102.27
-96.26
-79.52
-55.24
-30.41
-13.68
-11.13
-21.94
-40.27
-57.57
-66.60
-64.97
-55.36
-43.87
-35.90
-32.92
-31.88
-27.97
-18.02
-2.78
13.63
26.35
31.72
29.41
22.48
15.87
13.98
19.42
32.50
51.85
75.30
99.95
122.28
138.33
144.86
140.53
126.74
106.96
85.39
65.40
48.81
36.24
27.71
22.74
19.84
15.93
6.79
-11.13
-38.36
-70.79
-100.58
-119.43
-122.57
-111.36
-92.58
-74.90
-64.58
-62.97
-66.85
-71.27
-72.83
-71.55
-70.23
-72.28
-79.42
-90.59
-102.61
-111.75
-115.29
-112.23
-102.80
-87.54
-66.72
-40.26
-8.45
27.01
62.34
92.00
109.98
111.90
96.79
67.94
32.15
-2.11
-27.14
-37.98
-33.48
-16.10
9.25
36.65
60.49
75.84
78.78
66.80
39.42
-1.06
-49.49
-98.57
-140.39
-168.34
-178.93
-172.45
-152.22
-122.95
-89.35
-55.22
-23.26
4.57
27.08
43.38
53.22
57.36
57.66
56.64
56.49
58.23
61.29
64.63
66.32
64.58
59.12
51.83
45.87
43.70
45.40
48.25
49.30
44.68
31.08
7.95
-21.36
-50.81
-74.38
-87.80
-89.53
-78.46
-58.06
-36.12
-21.32
-18.46
-25.60
-34.97
-35.44
-16.71
29.26
100.03
182.24
257.16
309.16
332.01
328.20
305.85
254.10
178.03
97.57
31.26
-18.17
-58.17
-93.28
-122.26
-141.70
-147.29
-132.69
-96.69
-45.02
10.84
58.31
91.55
106.97
102.87
80.63
48.20
10.56
-22.89
-47.17
-71.14
-101.24
-136.26
-167.19
-186.56
-186.86
-164.79
-122.80
-60.48
8.58
65.92
99.07
108.69
99.39
75.02
38.00
-10.70
-66.69
-124.80
-176.63
-203.95
-197.51
-164.04
-118.59
-74.49
-38.69
-13.88
-1.53
0.71
-1.98
-5.50
-8.68
-8.72
-3.80
6.26
19.71
33.49
46.95
62.32
82.12
108.75
145.32
192.90
249.68
310.76
368.90
417.40
451.73
469.18
469.44
455.00
429.79
397.91
362.58
325.87
289.24
253.76
219.57
186.09
152.63
118.45
83.33
47.69
12.50
-21.24
-52.91
-82.72
-111.37
-139.39
-166.71
-192.44
-215.28
-234.23
-249.41
-262.26
-275.16
-290.44
-309.31
-331.26
-354.11
-374.69
-389.77
-397.04
-395.67
-386.91
-374.02
-361.80
-355.15
-356.87
-365.88
-376.57
-380.26
-368.06
-334.30
-278.76
-206.90
-127.98
-51.98
13.22
63.41
97.79
117.60
124.39
118.73
99.77
65.96
16.60
-46.37
-117.24
-186.97
-245.48
-284.21
-298.56
-289.12
-260.79
-220.16
-173.03
-122.65
-70.16
-16.31
37.68
90.07
139.24
185.28
230.73
279.44
334.24
394.05
452.11
498.98
526.46
531.06
515.34
487.02
455.52
428.38
408.65
392.07
373.15
348.21
315.69
275.10
227.00
172.50
114.55
58.07
4.34
-42.09
-74.87
-90.96
-94.28
-93.10
-96.85
-110.53
-133.62
-169.58
-215.13
-261.87
-302.70
-336.98
-368.27
-402.58
-442.52
-486.46
-539.44
-596.76
-645.12
-670.94
-669.75
-645.45
-608.69
-568.04
-463.78
-290.16
-93.29
75.67
199.15
275.18
320.75
340.53
336.62
312.41
259.46
180.13
87.10
-1.71
-72.64
-117.81
-136.72
-130.41
-101.66
-63.87
-16.52
31.06
67.78
88.43
99.36
105.89
112.31
124.58
143.08
170.29
208.66
260.03
320.78
381.65
429.98
454.94
450.64
415.29
356.56
288.61
228.32
186.70
164.67
155.20
148.16
136.09
116.32
93.25
74.37
66.50
70.59
70.46
55.04
23.86
-12.75
-42.88
-59.42
-62.56
-57.45
-52.19
-53.18
-60.04
-66.75
-67.37
-58.78
-41.52
-19.46
1.23
11.37
3.73
-21.67
-60.28
-100.06
-126.37
-129.57
-106.06
-58.47
1.51
59.53
103.65
123.47
112.22
70.76
9.28
-55.71
-95.68
-94.10
-59.40
-20.96
3.19
4.22
-18.86
-62.14
-116.36
-170.23
-217.69
-254.83
-278.27
-284.87
-274.49
-249.62
-215.73
-179.84
-140.87
-107.44
-85.85
-73.23
-59.72
-41.07
-16.01
10.44
31.64
44.01
44.37
38.19
37.49
55.70
98.82
162.99
235.55
300.80
344.92
357.88
337.76
289.18
222.22
146.70
70.66
0.85
-55.26
-90.51
-101.61
-89.61
-61.35
-25.40
6.84
23.98
19.20
-5.64
-41.45
-77.14
-101.63
-106.65
-84.17
-32.19
43.05
129.84
215.73
289.59
340.97
364.55
337.34
257.37
152.00
57.89
-5.19
-36.46
-45.58
-45.87
-44.07
-42.43
-38.53
-32.95
-31.29
-40.09
-61.65
-94.37
-138.57
-191.77
-247.91
-296.21
-327.44
-337.08
-325.06
-294.12
-229.72
-141.27
-55.43
6.79
44.82
68.60
86.20
100.12
110.30
116.79
118.86
119.30
123.65
134.98
149.48
158.11
151.82
126.63
83.53
24.10
-44.46
-108.63
-154.97
-174.81
-165.70
-130.23
-74.43
-8.83
50.98
91.98
107.54
97.64
66.95
22.30
-28.10
-70.10
-89.19
-83.60
-63.11
-39.00
-17.02
-2.25
4.18
-0.26
-16.97
-46.15
-87.45
-132.31
-170.08
-189.99
-174.28
-121.90
-50.77
15.31
60.93
82.85
87.30
82.72
76.62
72.43
69.33
66.71
66.63
71.37
79.80
87.75
87.53
73.98
45.86
6.38
-36.37
-72.11
-93.02
-97.51
-85.37
-65.55
-46.32
-33.25
-28.55
-30.98
-36.58
-39.60
-34.15
-16.04
14.41
53.47
94.82
130.56
155.16
167.50
172.14
176.32
185.24
193.95
203.34
205.17
192.32
162.98
119.81
70.42
23.47
-15.23
-45.04
-68.13
-84.31
-94.01
-99.31
-105.68
-115.61
-126.56
-132.69
-128.59
-111.72
-86.64
-64.19
-57.28
-77.26
-123.50
-182.96
-237.55
-272.72
-281.58
-266.00
-233.41
-175.03
-100.70
-30.65
21.98
57.33
80.59
94.91
100.51
97.23
87.15
71.90
56.67
47.72
47.90
54.85
63.23
67.99
66.57
59.53
47.69
34.86
26.05
23.99
27.60
33.25
37.22
37.08
32.65
24.20
14.26
6.36
2.69
3.04
5.71
9.19
12.57
15.12
14.89
9.95
-0.63
-15.92
-32.48
-45.38
-49.48
-42.09
-24.61
-2.29
18.64
33.80
42.12
45.34
46.30
47.11
48.21
48.85
48.49
47.76
48.23
51.12
56.10
60.72
61.31
54.69
39.99
19.20
-3.70
-24.89
-42.43
-56.47
-68.16
-77.79
-83.77
-83.15
-73.53
-54.79
-30.23
-5.59
13.32
22.72
22.01
13.28
0.07
-15.29
-29.94
-41.54
-48.45
-49.88
-46.32
-39.67
-32.86
-28.77
-28.76
-31.68
-34.47
-33.42
-25.98
-11.94
6.55
26.15
44.00
58.85
71.32
82.79
94.01
104.14
110.45
109.20
97.11
72.92
38.27
-2.54
-43.96
-80.97
-110.48
-131.82
-146.08
-154.90
-159.34
-159.41
-154.37
-143.41
-126.18
-102.81
-73.65
-39.04
0.49
43.80
88.51
130.82
165.90
188.80
195.86
185.87
160.78
125.57
87.31
53.46
30.19
21.01
26.46
44.57
72.00
104.97
139.82
173.14
201.73
222.86
234.86
237.66
232.79
222.71
209.61
194.53
177.20
156.68
132.37
104.64
74.91
45.08
16.81
-8.97
-32.18
-53.36
-73.35
-93.03
-113.38
-135.30
-159.29
-184.95
-210.55
-233.31
-250.30
-259.75
-261.91
-258.98
-253.93
-248.86
-243.90
-237.35
-227.07
-212.10
-193.68
-174.58
-157.55
-143.69
-131.86
-119.30
-102.89
-80.45
-51.62
-18.24
15.81
45.33
65.27
72.41
66.83
52.21
34.42
19.03
8.63
1.53
-7.14
-22.58
-47.11
-78.59
-111.42
-139.42
-159.01
-170.66
-177.89
-184.53
-191.90
-197.58
-196.63
-184.17
-157.89
-118.98
-71.33
-19.75
31.17
77.33
114.91
140.61
153.09
154.52
151.12
151.50
163.20
189.26
226.53
267.15
302.09
324.74
332.60
326.31
307.24
275.63
230.90
173.35
106.22
36.26
-27.82
-78.27
-111.16
-127.35
-131.65
-130.31
-128.84
-130.41
-134.98
-139.53
-138.96
-128.06
-103.49
-65.18
-16.07
38.01
90.12
134.59
168.65
193.07
210.38
223.01
232.08
238.30
240.60
236.67
224.31
202.49
173.04
138.83
102.25
64.37
27.15
-8.20
-40.50
-67.07
-83.79
-84.69
-66.16
-28.63
23.98
88.56
160.58
233.61
299.71
350.33
380.59
388.61
376.27
333.37
263.20
181.60
107.96
57.36
22.18
-5.86
-31.65
-56.02
-78.51
-96.84
-110.99
-123.53
-137.74
-157.10
-180.15
-203.23
-222.67
-236.69
-244.16
-246.79
-248.78
-255.05
-271.67
-299.97
-337.52
-379.09
-418.49
-448.70
-464.62
-464.44
-449.73
-427.12
-402.08
-377.76
-355.06
-334.14
-314.74
-296.86
-280.30
-245.79
-184.91
-102.73
-14.53
64.85
126.98
169.53
193.94
203.83
204.13
199.08
192.67
189.14
192.21
203.94
224.21
251.38
282.42
305.86
310.21
289.86
249.94
204.91
171.07
157.88
162.73
172.20
169.64
144.21
97.02
40.21
-10.49
-44.25
-59.00
-59.31
-51.51
-39.53
-24.10
-5.25
15.74
35.88
51.03
58.47
58.87
54.95
49.50
43.94
37.17
26.89
11.55
-8.42
-30.60
-49.57
-61.69
-66.34
-65.26
-61.16
-55.92
-49.94
-42.69
-33.82
-23.88
-14.81
-8.79
-6.63
-7.62
-10.07
-12.55
-14.51
-16.30
-17.21
-15.31
-7.80
8.36
34.27
67.74
103.82
136.92
163.46
182.97
196.76
205.21
206.77
198.16
176.65
142.84
101.82
61.89
31.36
15.08
12.30
18.61
28.24
36.53
41.08
41.21
36.30
24.16
6.10
-18.85
-50.31
-85.21
-118.04
-142.44
-153.98
-152.16
-140.51
-124.70
-110.42
-100.21
-93.13
-86.41
-77.80
-67.24
-56.81
-49.11
-45.35
-45.11
-46.22
-46.36
-44.59
-41.74
-39.75
-40.42
-44.33
-50.47
-57.02
-61.78
-63.14
-60.65
-55.06
-47.74
-40.09
-33.06
-27.10
-22.51
-19.48
-18.33
-19.51
-23.32
-29.44
-36.85
-44.07
-49.81
-53.44
-55.11
-55.46
-55.22
-54.94
-54.37
-52.64
-48.97
-43.38
-36.73
-30.37
-25.57
-23.10
-23.68
-26.97
-31.86
-37.31
-42.97
-48.89
-55.08
-61.17
-66.47
-71.21
-75.03
-77.19
-77.38
-76.25
-74.91
-74.02
-73.51
-72.79
-72.38
-71.87
-69.90
-64.94
-55.98
-42.34
-23.50
0.55
36.18
79.56
119.79
147.32
160.17
161.98
157.56
150.44
142.24
133.31
122.46
110.08
98.16
88.97
83.35
80.61
79.21
77.55
74.49
68.80
60.94
52.77
46.52
43.50
44.02
47.47
52.37
56.41
56.41
50.82
39.43
24.17
8.12
-5.53
-14.57
-18.52
-18.59
-17.03
-15.57
-14.76
-14.06
-12.81
-10.90
-8.91
-7.81
-8.41
-10.78
-14.19
-17.41
-19.17
-18.89
-16.88
-14.15
-12.07
-11.85
-13.82
-17.58
-22.17
-26.03
-27.84
-26.77
-22.73
-16.52
-9.79
-4.17
-1.59
-3.77
-11.23
-22.68
-35.24
-45.62
-51.73
-53.81
-53.31
-53.12
-55.89
-62.25
-70.13
-75.39
-73.62
-61.69
-38.85
-5.31
36.17
80.81
123.04
157.95
182.72
197.18
203.40
196.35
174.62
139.67
95.61
48.31
4.45
-29.32
-48.48
-52.59
-47.11
-37.83
-30.28
-27.68
-29.50
-32.63
-33.61
-31.68
-27.95
-24.75
-22.90
-22.29
-21.77
-19.12
-12.67
-2.31
10.23
22.30
31.65
37.68
39.61
32.85
14.18
-15.31
-48.84
-77.14
-93.64
-96.95
-87.56
-68.09
-42.36
-13.30
15.25
39.90
58.01
67.99
69.56
63.95
52.93
38.62
23.68
10.50
0.71
-5.35
-8.56
-10.30
-11.63
-13.36
-15.54
-17.09
-16.53
-12.94
-6.92
-0.78
2.55
1.03
-5.77
-16.00
-25.87
-31.42
-30.39
-23.40
-13.36
-3.71
3.62
8.43
12.17
17.16
24.97
35.41
46.55
55.86
61.69
64.29
64.53
63.11
60.01
54.07
43.62
27.71
7.61
-14.23
-30.26
-33.93
-25.68
-12.88
-4.52
-6.02
-17.40
-34.38
-51.34
-64.07
-72.41
-78.87
-85.29
-90.16
-88.00
-72.45
-41.15
0.91
42.15
68.71
71.42
52.03
19.03
-14.91
-38.83
-47.95
-43.87
-31.33
-14.91
3.06
22.14
41.63
58.07
68.22
69.99
63.57
51.82
38.89
28.49
22.87
22.29
25.73
31.10
35.27
34.73
27.07
12.16
-7.42
-27.23
-42.84
-51.60
-53.88
-51.77
-48.02
-44.36
-40.77
-36.20
-29.87
-22.41
-15.76
-12.01
-12.15
-15.35
-19.15
-20.43
-17.03
-8.80
2.22
12.67
19.35
20.59
16.82
10.37
4.65
2.45
4.96
11.43
19.89
28.14
34.66
38.86
39.79
37.23
31.27
22.49
12.08
1.88
-6.06
-10.23
-10.22
-6.67
-0.55
7.32
16.61
27.11
38.20
48.42
55.61
57.49
52.65
41.34
25.36
7.56
-9.10
-22.16
-30.23
-33.20
-32.34
-29.93
-28.57
-30.52
-36.87
-47.08
-58.59
-67.65
-71.01
-67.43
-58.37
-47.26
-38.00
-33.25
-33.41
-36.17
-38.13
-37.06
-33.16
-28.59
-25.64
-25.20
-26.42
-27.92
-28.45
-27.61
-25.94
-23.72
-19.80
-11.38
4.67
30.77
63.03
93.05
113.65
122.41
120.40
109.36
90.65
65.57
36.14
5.33
-22.89
-44.77
-59.23
-66.69
-68.48
-66.26
-61.67
-56.38
-51.91
-48.85
-46.60
-43.80
-39.03
-31.73
-22.55
-12.72
-4.58
-0.12
0.41
-1.38
-3.00
-2.57
0.22
4.16
7.45
8.77
8.13
6.92
7.24
10.66
17.59
27.13
37.44
46.34
51.82
52.47
47.71
37.86
24.20
9.09
-4.24
-12.22
-11.96
-2.44
14.74
35.47
54.41
66.80
70.20
65.24
54.95
43.08
32.44
23.92
16.79
9.74
2.10
-5.70
-12.48
-17.02
-18.79
-18.26
-16.52
-14.65
-13.13
-11.65
-9.43
-5.80
-0.69
5.15
10.48
14.23
16.04
16.48
16.77
18.09
20.91
24.60
27.72
28.72
26.71
22.01
15.90
10.05
5.81
3.75
3.67
4.89
6.62
8.26
9.43
9.93
9.67
8.60
6.73
4.11
0.92
-2.60
-6.16
-9.49
-12.49
-15.23
-17.97
-21.05
-24.71
-28.85
-33.03
-36.51
-38.52
-38.61
-36.79
-33.56
-29.66
-25.73
-21.97
-18.23
-14.14
-9.53
-4.64
-0.08
3.44
5.48
6.13
5.89
5.40
5.09
4.93
4.55
3.45
1.40
-1.40
-4.35
-6.71
-7.95
-8.01
-7.33
-6.62
-6.48
-7.13
-8.27
-9.29
-9.68
-9.31
-8.54
-8.01
-8.21
-9.19
-10.54
-11.58
-11.78
-11.09
-9.99
-9.26
-9.63
-11.47
-14.62
-18.48
-22.27
-25.24
-26.84
-26.78
-24.91
-21.22
-15.82
-9.03
-1.47
5.98
12.32
16.79
19.12
19.69
19.38
19.29
20.26
22.49
25.55
28.50
30.39
30.66
29.34
27.10
24.85
23.39
22.94
23.07
22.79
20.98
16.93
10.65
2.98
-4.64
-10.65
-14.03
-14.63
-13.28
-11.43
-10.58
-11.64
-14.59
-18.49
-21.79
-23.14
-22.05
-19.15
-16.00
-14.46
-15.95
-20.82
-28.20
-36.03
-41.93
-43.87
-40.60
-31.96
-19.29
-5.88
3.46
3.80
-7.25
-27.82
-51.46
-69.13
-72.90
-59.67
-32.63
0.48
31.32
54.98
70.95
81.57
89.30
94.79
96.66
93.05
83.43
67.49
47.99
29.31
14.79
4.86
-2.32
-8.85
-15.61
-22.09
-27.08
-29.09
-27.55
-23.18
-17.64
-12.78
-9.92
-9.49
-11.02
-13.43
-15.22
-15.46
-14.18
-12.15
-10.33
-9.45
-9.66
-10.78
-12.27
-13.48
-14.17
-14.59
-15.35
-17.07
-20.19
-24.95
-30.63
-36.24
-40.63
-43.19
-43.78
-42.36
-38.52
-31.36
-19.95
-3.89
14.83
33.13
47.22
54.41
54.18
48.57
41.16
36.01
35.31
39.94
49.67
62.83
76.77
87.64
91.13
83.60
63.97
34.79
1.08
-28.65
-48.60
-57.36
-57.85
-55.32
-54.71
-58.21
-64.91
-70.82
-71.53
-64.30
-48.72
-26.99
-3.10
18.39
33.39
40.89
42.44
40.75
37.77
34.19
29.69
23.98
17.61
12.25
9.83
11.32
16.05
21.91
26.47
28.05
26.29
22.05
17.01
13.15
12.19
15.27
22.40
31.85
40.09
42.83
35.98
18.20
-8.15
-37.82
-64.78
-84.54
-95.12
-96.27
-88.35
-71.59
-46.73
-16.53
13.47
36.20
45.89
41.09
25.66
7.06
-7.19
-12.83
-10.26
-3.39
3.14
6.38
5.88
2.94
-0.92
-4.81
-8.60
-12.18
-14.55
-13.65
-7.84
2.74
15.64
26.88
33.01
32.25
25.10
14.03
2.64
-6.46
-12.46
-16.07
-18.81
-21.67
-25.42
-29.89
-33.94
-34.98
-30.57
-19.66
-2.94
17.07
37.83
56.58
70.86
78.91
80.17
73.82
58.73
34.46
-0.02
-38.84
-72.10
-91.59
-98.36
-94.96
-84.22
-69.15
-49.76
-27.54
-3.42
21.33
44.75
64.29
77.72
82.53
76.91
61.21
38.28
13.79
-6.24
-17.53
-18.52
-10.22
3.74
18.51
29.65
33.78
29.07
14.56
-9.33
-39.65
-70.31
-94.10
-105.20
-101.69
-86.58
-65.94
-45.78
-28.81
-13.36
4.98
27.78
51.73
70.35
78.69
76.50
67.85
58.17
51.34
48.11
46.70
45.11
42.63
40.26
39.37
40.43
42.02
41.16
34.86
21.58
2.48
-18.96
-38.32
-52.01
-58.56
-58.60
-54.08
-47.16
-40.16
-33.69
-28.16
-23.76
-20.44
-18.06
-16.32
-14.90
-13.61
-12.36
-11.02
-9.61
-8.14
-6.81
-5.99
-6.10
-7.34
-9.45
-11.76
-13.39
-13.82
-13.03
-11.54
-10.26
-10.01
-11.30
-14.06
-17.80
-21.59
-24.65
-26.59
-27.48
-27.93
-28.61
-30.01
-32.27
-35.13
-38.16
-40.97
-43.27
-44.83
-45.36
-44.20
-40.48
-33.69
-24.23
-13.81
-5.10
-0.59
-1.41
-6.76
-13.87
-19.25
-20.28
-16.05
-7.34
4.31
17.73
32.06
46.03
58.12
66.42
69.09
65.50
57.11
47.25
40.27
39.09
43.27
50.42
57.22
60.44
58.47
51.89
43.05
35.66
32.14
31.83
33.34
34.94
34.91
32.44
28.05
23.26
21.01
23.14
28.43
35.60
42.76
46.56
42.82
27.98
-5.09
-53.72
-99.08
-130.07
-141.24
-129.84
-98.45
-54.25
-6.35
36.99
71.42
95.16
106.83
107.71
100.49
88.03
73.06
58.09
44.83
34.68
27.38
20.61
13.20
5.34
-2.05
-7.85
-11.29
-12.36
-11.31
-9.03
-7.11
-5.87
-4.63
-2.68
0.27
3.83
7.09
9.18
9.13
5.94
-0.27
-8.35
-16.49
-22.58
-24.81
-22.20
-15.24
-6.19
1.73
5.85
4.93
-0.57
-9.03
-18.47
-27.17
-34.45
-40.64
-46.09
-50.35
-52.30
-50.84
-45.73
-37.87
-28.41
-18.82
-10.51
-4.14
0.41
3.19
3.74
1.09
-5.94
-15.41
-23.41
-27.75
-29.89
-33.33
-40.47
-50.19
-58.00
-57.94
-46.20
-21.91
11.11
46.14
76.63
98.26
109.91
112.96
104.60
87.74
66.77
44.65
22.76
2.81
-14.26
-26.55
-32.79
-33.49
-30.21
-26.31
-24.41
-26.36
-31.69
-37.96
-42.04
-42.04
-38.13
-31.65
-25.07
-20.72
-19.59
-20.80
-22.38
-22.23
-19.29
-13.72
-6.10
2.41
10.52
17.14
21.73
24.02
23.99
21.69
17.27
11.42
5.04
-0.86
-5.41
-7.78
-7.56
-5.00
-1.25
1.75
2.07
-1.32
-8.02
-16.19
-23.28
-27.15
-27.02
-23.45
-17.77
-11.14
-3.95
3.86
12.12
19.99
26.08
28.85
27.37
21.44
11.11
-2.13
-15.77
-27.02
-33.53
-33.79
-27.48
-15.74
-1.44
11.62
20.23
22.98
20.79
16.32
12.98
12.02
12.91
13.66
12.20
8.01
2.41
-2.17
-3.54
-0.76
5.73
14.69
24.31
32.62
37.24
35.74
26.41
9.52
-11.66
-31.17
-42.56
-42.14
-30.82
-13.16
4.76
18.41
26.58
29.80
30.28
30.87
34.03
37.84
40.00
38.61
33.58
25.68
15.89
5.16
-5.76
-16.26
-25.79
-33.36
-38.24
-40.32
-40.36
-39.46
-38.39
-37.28
-35.67
-32.81
-27.63
-19.63
-9.33
1.50
10.34
14.93
14.16
8.62
0.47
-7.08
-11.16
-10.31
-5.00
2.69
10.14
15.19
16.89
15.58
12.63
9.70
8.04
8.24
10.22
13.61
17.96
22.85
27.73
31.83
34.23
34.15
31.42
26.67
21.17
16.14
12.18
9.02
5.85
1.94
-2.76
-7.58
-11.57
-14.11
-15.24
-15.57
-15.77
-16.14
-16.58
-16.84
-16.97
-17.40
-18.62
-20.69
-22.78
-23.41
-21.04
-14.90
-5.48
5.65
16.41
25.01
30.56
33.05
33.09
31.41
28.54
24.63
19.65
13.58
6.66
-0.52
-7.12
-12.23
-15.12
-15.34
-12.79
-7.53
0.27
10.20
21.37
32.29
41.09
45.93
45.91
41.51
34.62
27.70
22.63
19.83
18.23
15.96
11.47
4.48
-3.80
-11.41
-16.74
-19.42
-20.37
-21.03
-22.63
-26.11
-32.41
-42.73
-57.92
-77.31
-97.91
-114.75
-122.91
-120.04
-108.22
-92.41
-77.59
-65.53
-54.41
-40.89
-23.08
-2.43
16.77
29.26
32.92
29.96
26.20
27.26
35.08
47.05
57.99
63.19
59.93
49.42
35.21
21.58
10.56
0.44
-12.80
-32.73
-53.49
-67.04
-67.54
-56.44
-39.04
-20.77
-5.81
4.13
9.66
13.10
13.70
12.47
8.49
1.24
-8.84
-20.84
-32.51
-40.93
-44.04
-42.99
-37.60
-31.59
-28.22
-29.00
-34.31
-42.60
-51.39
-58.21
-61.90
-61.91
-58.31
-49.93
-31.08
-2.64
28.18
53.06
68.54
75.77
77.52
75.65
71.57
66.25
59.94
55.25
54.05
58.96
71.73
90.82
111.31
127.29
133.95
128.95
114.09
94.36
73.48
57.54
49.65
48.36
48.82
44.59
29.55
0.36
-42.33
-91.88
-137.44
-169.11
-180.92
-172.14
-146.87
-111.95
-69.08
-26.17
9.14
35.64
55.96
71.85
82.38
85.42
82.31
73.69
60.78
46.15
32.62
20.96
10.48
-0.05
-11.26
-22.38
-33.16
-43.37
-53.03
-61.62
-68.56
-72.95
-74.53
-74.01
-72.71
-72.24
-73.82
-79.05
-86.48
-95.48
-105.09
-113.06
-115.62
-108.54
-89.44
-59.17
-20.45
24.29
70.18
113.68
152.94
186.31
210.84
222.59
218.55
201.33
179.83
164.61
162.10
170.30
179.47
177.67
157.93
121.17
77.45
39.87
15.98
3.64
-6.81
-25.98
-59.29
-104.71
-156.79
-207.23
-248.35
-275.56
-287.79
-285.54
-269.32
-239.74
-186.93
-116.30
-44.86
11.17
46.07
62.72
67.45
66.88
66.42
69.32
74.30
80.64
85.38
85.30
77.11
59.49
34.67
7.88
-14.71
-30.11
-37.36
-37.82
-33.19
-27.25
-23.55
-23.38
-25.51
-27.45
-27.97
-26.33
-22.39
-16.52
-9.93
-3.65
1.82
6.54
10.62
13.81
16.47
19.44
23.54
28.44
32.98
36.06
37.54
37.91
37.78
37.66
37.69
37.51
36.51
34.70
33.04
33.24
35.77
39.19
41.14
39.76
34.82
27.86
21.79
19.80
24.52
35.81
50.67
64.75
73.75
74.53
65.54
47.52
20.58
-9.04
-32.18
-43.41
-43.97
-39.03
-33.26
-29.17
-27.19
-26.83
-27.13
-27.78
-29.44
-30.61
-28.90
-22.08
-10.11
4.53
17.78
25.97
26.51
18.63
3.52
-16.76
-38.32
-57.64
-72.15
-80.61
-83.02
-80.58
-74.94
-67.28
-57.96
-46.76
-33.85
-20.26
-7.92
0.80
3.80
0.53
-8.02
-20.06
-33.64
-47.18
-59.08
-67.49
-70.68
-67.83
-59.31
-47.57
-36.25
-27.79
-22.08
-16.02
-3.20
19.48
48.43
75.43
92.51
96.58
90.88
81.95
76.45
78.01
87.60
100.92
113.69
121.45
120.68
110.78
93.13
71.26
49.81
33.67
25.50
28.17
40.41
56.57
69.93
73.97
65.00
42.93
11.32
-24.72
-54.76
-71.13
-80.65
-89.39
-101.94
-117.70
-137.76
-162.61
-192.18
-222.18
-246.05
-257.13
-249.65
-222.27
-178.43
-125.04
-61.77
1.32
52.82
86.93
104.81
111.37
110.73
105.87
99.39
94.04
90.44
89.00
88.73
87.30
82.96
76.17
66.77
55.71
44.32
32.53
20.84
10.11
1.32
-4.17
-5.30
-2.03
4.63
12.53
18.59
21.31
20.50
17.16
13.21
10.40
9.00
7.89
5.05
-1.35
-11.18
-22.20
-31.04
-34.54
-31.04
-21.13
-7.08
7.89
20.67
29.31
33.33
33.54
31.24
27.33
21.68
13.65
3.24
-7.72
-16.08
-18.94
-15.28
-6.39
4.85
15.10
21.88
24.04
21.73
16.39
10.43
6.65
7.43
13.40
22.51
30.67
33.57
28.59
15.87
-2.43
-23.96
-47.78
-72.32
-96.78
-120.16
-140.73
-156.26
-164.70
-165.12
-157.83
-143.51
-122.51
-94.41
-58.26
-13.69
37.70
91.98
142.51
181.03
199.60
192.56
159.38
105.77
42.53
-17.75
-63.89
-89.84
-95.65
-85.78
-66.54
-42.51
-15.49
15.44
47.64
76.84
98.54
109.79
113.50
110.66
102.88
92.58
82.32
71.63
62.06
54.60
49.53
46.39
43.89
41.96
41.23
41.56
40.67
34.71
19.25
-6.16
-36.90
-65.44
-83.47
-86.50
-76.59
-61.51
-50.30
-49.05
-55.83
-63.37
-64.63
-54.76
-32.90
-1.42
35.73
73.89
107.15
131.23
141.79
134.11
107.20
64.83
14.76
-29.74
-52.41
-57.68
-53.81
-41.53
-24.02
-4.27
15.32
32.98
47.66
58.40
63.91
65.65
65.48
63.34
58.65
50.52
38.19
21.50
0.78
-23.44
-48.55
-72.22
-94.28
-115.29
-135.73
-155.45
-173.52
-188.65
-200.00
-206.43
-207.55
-204.30
-197.62
-188.11
-176.19
-162.65
-148.65
-135.73
-124.89
-116.16
-108.35
-98.85
-84.80
-64.55
-38.67
-8.59
23.94
57.42
90.32
120.23
143.07
153.52
146.83
121.33
81.76
38.24
2.20
-17.95
-19.19
-4.05
21.89
55.08
87.11
110.03
121.62
124.36
121.25
113.96
103.45
91.28
79.59
69.98
63.90
61.51
60.63
57.66
50.69
38.71
23.46
8.38
-3.60
-10.64
-12.82
-12.32
-11.78
-12.76
-15.23
-17.97
-19.91
-21.15
-22.20
-23.17
-24.25
-25.22
-25.49
-24.67
-23.06
-21.91
-23.04
-27.39
-34.39
-42.05
-47.70
-49.14
-45.62
-38.02
-28.33
-18.73
-10.58
-4.23
0.53
4.07
6.62
8.33
9.62
11.21
13.86
18.03
23.50
29.45
34.90
39.09
41.70
42.69
42.08
39.85
35.99
30.83
25.09
19.83
15.94
13.80
13.17
13.33
13.52
13.24
12.38
11.11
9.68
8.25
6.94
5.85
5.12
4.82
4.88
4.94
4.51
3.15
0.72
-2.57
-6.28
-10.01
-13.62
-17.29
-21.24
-25.57
-29.96
-33.77
-36.34
-37.24
-36.51
-34.63
-32.29
-30.16
-28.57
-27.41
-26.08
-23.70
-19.40
-12.78
-4.21
5.14
13.69
19.97
23.07
22.94
20.13
15.49
9.79
3.49
-3.08
-9.56
-15.32
-19.46
-21.17
-20.01
-16.31
-11.16
-5.95
-1.86
0.70
2.11
3.08
4.06
4.69
4.09
1.48
-2.93
-7.72
-10.68
-9.97
-5.12
2.61
10.76
16.71
18.83
16.83
11.65
4.82
-2.25
-8.57
-13.56
-16.85
-18.11
-17.09
-13.81
-8.71
-2.66
3.24
8.01
11.15
12.78
13.52
14.10
15.01
16.20
17.14
17.06
15.40
12.16
7.96
3.87
0.93
-0.26
0.27
1.91
3.84
5.45
6.50
7.16
7.75
8.50
9.36
10.05
10.25
9.78
8.69
7.26
5.77
4.33
2.87
1.19
-0.86
-3.26
-5.79
-8.18
-10.24
-11.96
-13.44
-14.72
-15.63
-15.78
-14.71
-12.09
-7.95
-2.70
2.97
8.38
13.08
16.97
20.29
23.35
26.44
29.49
32.16
33.91
34.28
33.12
30.78
27.94
25.37
23.57
22.53
21.80
20.76
19.04
16.71
14.24
12.28
11.24
11.12
11.54
11.97
12.05
11.63
10.85
9.85
8.69
7.27
5.34
2.77
-0.43
-4.01
-7.62
-10.89
-13.64
-15.93
-18.05
-20.38
-23.16
-26.38
-29.69
-32.53
-34.35
-34.81
-33.83
-31.58
-28.27
-24.08
-19.07
-13.32
-7.03
-0.58
5.47
10.61
14.48
17.04
18.50
19.22
19.56
19.74
19.80
19.69
19.40
19.03
18.77
18.85
19.38
20.25
21.15
21.68
21.55
20.68
19.26
17.67
16.18
14.90
13.64
12.07
9.92
7.10
3.78
0.26
-3.18
-6.42
-9.56
-12.77
-16.12
-19.55
-22.87
-25.95
-28.85
-31.72
-34.63
-37.35
-39.29
-39.64
-37.75
-33.46
-27.24
-20.05
-13.00
-6.95
-2.29
1.09
3.55
5.48
7.09
8.36
9.18
9.52
9.59
9.72
10.27
11.34
12.70
13.75
13.79
12.27
9.07
4.60
-0.31
-4.70
-7.80
-9.34
-9.60
-9.27
-8.99
-9.09
-9.42
-9.46
-8.78
-7.35
-5.72
-4.76
-5.21
-7.28
-10.60
-14.47
-18.25
-21.73
-25.00
-28.27
-31.38
-33.81
-34.71
-33.39
-29.65
-23.95
-17.16
-10.12
-3.31
3.35
10.18
17.40
24.58
30.64
34.17
34.00
29.94
22.91
14.75
7.55
2.85
1.17
2.04
4.39
7.08
9.42
11.12
12.24
12.85
12.90
12.30
10.98
9.08
6.86
4.58
2.39
0.27
-1.90
-4.23
-6.68
-9.00
-10.81
-11.73
-11.52
-10.31
-8.64
-7.42
-7.61
-9.81
-13.86
-18.76
-22.99
-25.10
-24.33
-20.87
-15.65
-9.80
-4.09
1.38
6.93
12.86
19.10
25.02
29.75
32.66
33.65
33.28
32.40
31.74
31.60
31.81
31.91
31.55
30.69
29.61
28.69
28.20
28.01
27.72
26.85
25.11
22.63
19.92
17.56
15.96
15.08
14.40
13.20
10.91
7.40
3.05
-1.40
-5.26
-8.12
-10.02
-11.35
-12.58
-14.01
-15.75
-17.76
-19.94
-22.26
-24.69
-27.08
-29.11
-30.25
-29.96
-27.85
-23.89
-18.47
-12.32
-6.26
-0.93
3.38
6.83
9.81
12.69
15.51
17.96
19.45
19.55
18.26
16.08
13.87
12.37
11.91
12.21
12.62
12.48
11.51
9.93
8.34
7.30
6.99
7.05
6.70
5.24
2.47
-1.14
-4.57
-6.79
-7.35
-6.65
-5.72
-5.65
-7.00
-9.50
-12.33
-14.63
-16.03
-16.88
-17.93
-19.81
-22.63
-25.83
-28.45
-29.65
-29.05
-26.83
-23.59
-20.00
-16.46
-13.02
-9.45
-5.53
-1.26
3.04
6.81
9.58
11.13
11.65
11.64
11.61
11.83
12.20
12.35
11.93
10.84
9.37
8.01
7.22
7.13
7.42
7.52
6.92
5.52
3.66
2.01
1.13
1.17
1.76
2.19
1.78
0.25
-2.12
-4.69
-6.75
-7.95
-8.42
-8.65
-9.29
-10.71
-12.99
-15.84
-18.86
-21.66
-23.93
-25.43
-25.85
-24.90
-22.37
-18.33
-13.19
-7.63
-2.41
1.90
5.05
7.18
8.60
9.80
11.12
12.73
14.51
16.12
17.11
17.16
16.26
14.69
12.92
11.34
10.09
9.04
7.99
6.85
5.76
4.98
4.72
4.89
5.12
4.90
3.86
2.04
-0.16
-2.17
-3.57
-4.33
-4.81
-5.58
-7.05
-9.32
-12.02
-14.56
-16.39
-17.32
-17.63
-17.97
-19.00
-21.07
-24.01
-27.16
-29.67
-30.81
-30.26
-28.10
-24.67
-20.38
-15.59
-10.62
-5.81
-1.54
1.78
3.87
4.74
4.71
4.43
4.64
5.94
8.59
12.39
16.75
20.88
24.19
26.45
27.84
28.77
29.58
30.25
30.45
29.76
28.01
25.47
22.79
20.64
19.40
18.91
18.60
17.78
16.00
13.30
10.14
7.20
4.97
3.55
2.54
1.26
-0.85
-3.93
-7.57
-10.99
-13.48
-14.73
-15.00
-14.95
-15.15
-15.77
-16.42
-16.44
-15.31
-12.93
-9.71
-6.24
-2.94
0.15
3.33
6.98
11.21
15.73
19.86
22.85
24.20
23.90
22.44
20.61
19.20
18.60
18.75
19.19
19.43
19.29
18.96
18.91
19.48
20.57
21.55
21.58
20.10
17.27
13.97
11.29
9.83
9.21
8.13
5.04
-0.94
-9.49
-19.18
-28.17
-35.12
-39.73
-42.76
-45.33
-48.16
-51.14
-53.57
-54.67
-54.22
-52.68
-50.95
-49.83
-49.42
-48.94
-46.99
-42.27
-34.22
-23.50
-11.80
-1.21
6.49
10.58
11.65
11.27
11.06
11.92
13.66
15.33
15.83
14.50
11.58
8.30
6.27
6.60
9.24
13.20
17.10
19.75
20.19
18.09
14.13
9.90
6.81
5.43
5.39
5.84
5.82
4.09
-0.22
-6.80
-14.20
-20.71
-24.74
-24.38
-17.42
-2.67
17.48
36.51
46.44
41.44
20.55
-11.28
-44.52
-69.04
-73.68
-53.73
-16.92
20.93
47.77
60.82
63.14
58.77
51.55
43.78
37.80
36.30
41.69
54.28
70.92
86.54
96.99
101.44
103.72
108.86
118.48
129.90
137.45
135.27
120.60
95.35
65.03
35.36
9.05
-15.26
-38.85
-61.13
-80.42
-95.86
-108.27
-119.64
-131.90
-146.20
-163.55
-181.94
-197.21
-205.79
-206.55
-200.83
-191.67
-183.01
-178.87
-183.31
-195.28
-208.71
-216.00
-211.95
-195.47
-168.97
-136.59
-88.49
-27.56
34.35
86.52
125.63
152.95
170.41
179.27
182.00
177.96
164.54
142.36
116.19
93.19
80.26
81.19
95.28
116.42
133.48
135.10
117.92
88.43
58.48
38.41
31.19
31.78
31.15
20.03
-4.45
-34.35
-57.03
-65.12
-60.16
-50.11
-42.78
-41.91
-46.75
-53.87
-60.77
-65.80
-70.56
-78.15
-91.25
-109.40
-129.01
-145.08
-153.25
-151.91
-143.23
-132.53
-121.86
-113.80
-107.70
-100.09
-86.87
-65.61
-36.93
-3.82
30.10
62.68
93.19
122.31
150.44
176.82
200.02
218.58
231.49
237.86
236.73
226.88
208.47
183.79
157.33
134.68
120.51
116.80
122.23
133.40
146.36
158.46
168.44
175.52
178.47
175.62
165.64
148.73
127.15
104.44
83.88
66.79
51.80
35.50
14.23
-13.99
-48.33
-85.33
-120.32
-149.10
-169.27
-180.57
-184.33
-182.33
-175.94
-165.65
-151.51
-133.74
-113.44
-92.54
-73.23
-57.12
-44.59
-34.80
-26.43
-18.57
-11.37
-5.98
-3.69
-5.06
-9.42
-15.23
-20.72
-24.78
-27.29
-28.89
-30.50
-32.42
-34.02
-34.17
-31.83
-26.63
-19.16
-10.80
-3.30
1.52
2.95
1.45
-1.95
-6.24
-10.67
-14.81
-18.49
-21.84
-25.91
-31.15
-37.42
-44.63
-52.88
-62.18
-72.16
-82.09
-91.14
-99.90
-108.09
-114.80
-119.72
-123.49
-127.38
-132.46
-139.04
-146.35
-154.05
-159.38
-158.37
-148.44
-129.70
-104.48
-75.73
-45.77
-6.17
40.40
84.22
117.35
137.84
147.13
147.19
140.36
129.46
117.68
106.38
98.05
96.57
102.58
114.49
128.93
142.02
149.85
149.56
139.30
122.21
105.36
95.58
96.47
105.31
118.07
129.54
135.05
130.90
117.84
100.00
81.40
64.00
47.07
28.74
6.90
-20.35
-54.52
-93.03
-128.60
-152.46
-158.20
-145.66
-120.94
-94.19
-68.86
-52.59
-49.70
-54.57
-57.05
-50.99
-38.44
-29.09
-27.38
-34.33
-48.99
-69.30
-92.03
-115.65
-135.78
-150.55
-158.47
-157.24
-145.11
-113.01
-63.88
-9.54
37.66
71.78
91.93
99.34
96.64
87.22
75.09
63.76
58.72
63.03
77.30
98.63
120.36
135.05
137.07
124.32
98.15
64.74
33.09
10.70
4.64
15.97
39.29
65.10
83.45
86.88
73.57
47.21
12.58
-19.71
-39.86
-45.14
-39.48
-28.50
-16.56
-6.29
0.89
4.26
4.12
0.21
-8.47
-21.01
-34.82
-46.63
-53.81
-54.95
-50.12
-40.57
-29.69
-21.48
-18.25
-20.29
-24.48
-29.32
-34.71
-41.33
-49.62
-60.36
-73.92
-89.31
-104.73
-118.53
-129.76
-137.75
-140.66
-135.58
-120.61
-96.16
-64.54
-29.23
6.18
39.12
66.99
86.16
95.31
95.76
89.65
79.82
69.99
63.93
66.18
74.71
85.43
93.29
93.15
81.55
59.55
32.62
6.04
-12.43
-17.50
-7.54
14.81
43.60
69.14
82.51
81.28
70.18
55.94
41.65
27.53
12.93
-0.98
-14.55
-26.60
-35.77
-41.92
-46.21
-50.95
-57.66
-65.72
-73.09
-77.06
-74.55
-63.81
-45.94
-24.89
-6.15
6.19
11.13
10.76
8.70
8.52
11.60
16.61
20.65
21.14
17.59
11.57
5.51
1.26
-0.28
0.78
3.80
8.15
13.43
19.37
25.42
30.44
32.90
31.70
26.56
18.32
8.68
-0.33
-6.88
-9.85
-9.01
-4.91
1.49
9.07
16.76
23.47
28.04
29.53
27.62
23.05
17.53
13.18
11.58
13.05
16.32
18.94
18.59
14.33
7.18
-0.40
-5.84
-7.83
-6.80
-4.73
-4.34
-7.53
-14.25
-22.70
-30.14
-34.13
-33.14
-26.38
-14.23
1.13
15.60
23.87
21.13
5.28
-21.31
-51.62
-75.66
-84.94
-76.40
-53.39
-23.27
6.39
30.96
49.83
61.89
67.36
68.85
69.23
69.03
66.94
61.67
53.02
41.60
28.29
14.55
1.40
-10.84
-22.26
-32.57
-40.95
-46.28
-47.68
-45.70
-40.49
-33.33
-26.28
-21.32
-19.28
-19.59
-20.79
-21.31
-20.23
-17.32
-13.42
-9.97
-8.36
-9.11
-11.75
-15.18
-18.37
-20.28
-20.60
-19.80
-18.69
-17.92
-17.55
-17.15
-16.11
-14.07
-11.08
-7.59
-4.20
-1.42
0.55
1.79
2.55
3.07
3.50
3.90
4.22
4.41
4.48
4.51
4.58
4.77
5.05
5.29
5.28
4.80
3.76
2.29
0.73
-0.55
-1.29
-1.50
-1.44
-1.45
-1.84
-2.68
-3.78
-4.92
-5.96
-6.98
-8.14
-9.54
-11.12
-12.60
-13.56
-13.68
-13.02
-12.16
-12.01
-13.50
-16.95
-21.90
-27.07
-30.89
-31.95
-29.78
-25.00
-18.93
-12.91
-7.65
-3.05
1.54
6.77
13.03
19.83
25.95
30.07
31.60
31.07
29.73
29.06
29.98
33.02
37.53
41.84
44.17
43.74
41.14
37.82
35.43
34.93
37.07
41.28
45.62
47.81
46.78
43.06
38.27
34.35
32.62
34.67
40.91
50.00
59.41
66.51
68.68
63.13
47.77
16.60
-27.29
-70.20
-96.01
-97.49
-79.18
-52.77
-30.30
-17.58
-14.34
-16.33
-19.19
-20.89
-21.84
-22.90
-24.02
-24.42
-21.86
-14.99
-3.55
10.62
24.23
34.13
39.14
39.89
38.25
36.83
37.03
39.13
42.01
43.84
42.69
37.33
26.51
7.69
-16.94
-41.41
-59.56
-68.64
-69.27
-65.40
-57.99
-47.67
-35.09
-20.46
-4.65
10.96
23.04
28.16
24.98
15.57
4.28
-3.35
-2.71
6.68
19.94
29.18
25.94
8.26
-16.37
-37.12
-46.90
-45.21
-37.04
-28.98
-25.09
-25.00
-24.84
-20.44
-10.83
1.91
13.64
21.88
25.35
24.54
21.45
18.61
17.83
18.62
19.01
17.03
11.91
4.17
-4.66
-12.98
-20.01
-23.72
-24.57
-24.26
-24.58
-26.33
-29.48
-33.48
-37.90
-42.58
-46.95
-50.85
-54.47
-58.25
-62.62
-68.22
-75.66
-85.09
-95.69
-104.27
-106.90
-100.56
-84.12
-58.38
-25.72
10.70
48.40
79.40
97.35
102.37
98.92
91.42
82.54
73.58
64.95
56.65
48.44
41.22
36.15
33.58
32.96
33.45
34.21
34.36
33.25
30.49
26.86
23.60
21.41
20.45
20.58
21.84
24.22
27.39
30.25
31.38
29.04
21.69
9.55
-5.89
-21.32
-33.14
-39.19
-39.67
-36.55
-32.45
-29.33
-27.62
-26.47
-24.56
-21.44
-17.92
-15.69
-16.12
-19.51
-24.82
-30.03
-32.99
-32.20
-27.46
-19.94
-11.70
-4.95
-1.39
-1.64
-5.02
-9.79
-13.42
-13.37
-7.78
3.89
20.59
39.20
54.87
62.73
60.04
48.14
32.40
20.26
17.93
27.62
46.52
68.10
84.99
91.88
87.26
73.20
53.64
32.47
12.63
-4.13
-17.01
-26.08
-32.04
-35.97
-38.96
-41.94
-45.53
-49.82
-54.13
-57.14
-57.50
-54.23
-47.61
-39.79
-34.98
-38.17
-52.50
-74.85
-95.26
-101.24
-86.10
-53.46
-14.09
20.18
41.35
47.34
41.02
28.77
14.70
1.81
-6.96
-8.10
1.64
23.62
56.15
91.94
119.79
130.13
119.50
91.46
54.13
16.60
-14.15
-34.53
-45.14
-47.81
-44.63
-37.80
-29.52
-21.70
-15.76
-12.60
-12.33
-14.42
-17.57
-19.97
-20.49
-18.93
-16.04
-13.11
-11.37
-11.44
-13.23
-15.73
-17.72
-18.37
-17.62
-16.19
-15.08
-15.09
-16.45
-18.84
-21.41
-23.28
-23.88
-23.10
-21.16
-18.31
-14.66
-10.15
-4.70
1.63
8.54
15.56
22.15
27.76
32.01
34.86
36.52
37.34
37.61
37.49
37.19
36.75
35.96
34.57
32.57
30.23
27.93
25.91
24.29
23.42
23.40
23.88
24.22
23.90
22.59
20.22
16.78
12.54
8.79
7.23
9.11
14.62
22.56
29.97
32.93
27.16
8.15
-22.81
-57.64
-86.06
-101.99
-105.31
-99.94
-90.21
-79.81
-70.95
-64.28
-60.37
-60.21
-63.94
-69.11
-70.65
-62.93
-41.83
-7.93
33.76
75.14
108.04
127.39
132.94
123.98
107.89
91.72
79.15
70.75
64.90
59.18
51.36
41.46
28.72
14.51
0.35
-12.59
-23.21
-30.83
-35.20
-36.24
-33.84
-28.38
-20.12
-10.75
-2.64
2.31
3.31
0.97
-3.32
-7.96
-11.82
-14.11
-15.14
-15.76
-16.63
-18.02
-19.82
-21.73
-23.43
-24.74
-25.32
-25.00
-23.71
-21.36
-17.93
-13.60
-8.79
-4.06
0.02
3.20
5.56
7.48
9.47
11.87
14.63
17.30
19.21
19.79
18.89
16.84
14.29
11.93
10.20
9.20
8.68
8.31
7.78
6.96
5.92
4.81
3.73
2.65
1.38
-0.34
-2.65
-5.44
-8.33
-10.83
-12.58
-13.57
-14.16
-14.93
-16.27
-18.15
-20.08
-21.35
-21.49
-20.59
-19.36
-18.81
-19.73
-22.27
-25.81
-29.19
-31.23
-31.18
-28.99
-25.17
-20.38
-15.17
-9.72
-4.00
1.97
7.93
13.31
17.51
20.18
21.42
21.77
21.92
22.37
23.20
24.01
24.18
23.23
21.14
18.36
15.67
13.78
13.01
13.17
13.68
13.91
13.49
12.49
11.25
10.15
9.29
8.41
7.02
4.77
1.68
-1.82
-5.04
-7.46
-8.98
-9.98
-11.17
-13.14
-16.02
-19.53
-23.05
-25.98
-28.04
-29.24
-29.75
-29.61
-28.63
-26.47
-22.86
-17.84
-11.85
-5.59
0.25
5.22
9.22
12.42
15.10
17.46
19.49
21.01
21.78
21.68
20.82
19.53
18.25
17.32
16.84
16.59
16.24
15.54
14.60
13.74
13.37
13.62
14.16
14.34
13.50
11.38
8.32
5.10
2.52
1.02
0.37
-0.11
-1.25
-3.47
-6.64
-10.12
-13.11
-15.05
-15.95
-16.36
-17.10
-18.83
-21.70
-25.18
-28.29
-29.96
-29.51
-26.90
-22.65
-17.53
-12.22
-7.05
-2.03
2.94
7.88
12.56
16.60
19.63
21.52
22.38
22.49
22.10
21.31
20.09
18.42
16.49
14.68
13.48
13.20
13.73
14.51
14.73
13.76
11.47
8.38
5.42
3.47
2.91
3.33
3.72
2.87
0.02
-4.83
-10.85
-16.61
-20.62
-21.72
-19.45
-14.41
-8.40
-4.12
-4.52
-11.58
-25.39
-43.71
-62.61
-77.72
-85.67
-85.08
-76.60
-62.30
-44.81
-26.57
-9.61
4.62
15.21
21.94
25.26
26.14
25.75
25.05
24.57
24.46
24.62
24.80
24.66
23.87
22.19
19.57
16.29
12.94
10.38
9.40
10.40
13.15
16.79
20.01
21.53
20.52
16.99
11.83
6.44
2.26
0.23
0.53
2.52
5.02
6.59
6.13
3.25
-1.53
-6.98
-11.60
-14.22
-14.42
-12.68
-10.24
-8.54
-8.56
-10.46
-13.66
-17.13
-19.66
-20.15
-17.75
-12.23
-3.90
6.37
17.21
26.95
33.86
36.83
35.58
30.91
24.40
18.38
15.62
18.68
28.64
43.85
59.24
68.62
68.37
58.69
42.91
25.62
10.72
0.07
-7.09
-12.31
-16.45
-19.29
-20.18
-18.74
-15.31
-10.97
-7.19
-5.32
-4.92
-5.39
-5.88
-5.91
-5.58
-5.52
-6.41
-8.73
-12.47
-17.15
-22.29
-27.53
-32.92
-38.75
-45.18
-51.94
-58.30
-63.29
-65.96
-65.93
-63.30
-58.58
-52.47
-45.50
-38.00
-30.12
-22.08
-14.22
-7.04
-0.91
4.06
8.12
11.72
15.28
18.92
22.40
25.25
27.01
27.57
27.24
26.62
26.31
26.60
27.35
28.09
28.31
27.77
26.65
25.38
24.46
24.08
24.03
23.86
23.08
21.43
19.01
16.14
13.18
10.36
7.73
5.20
2.69
0.25
-1.96
-3.74
-5.01
-5.89
-6.69
-7.85
-9.75
-12.49
-15.85
-19.27
-22.11
-23.83
-24.21
-23.33
-21.51
-18.97
-15.80
-11.94
-7.32
-2.06
3.45
8.61
12.85
15.80
17.47
18.17
18.34
18.33
18.21
17.81
16.88
15.28
13.14
10.85
8.91
7.68
7.17
7.05
6.85
6.19
5.06
3.85
3.11
3.24
4.23
5.62
6.72
6.99
6.26
4.81
3.09
1.50
0.08
-1.41
-3.26
-5.56
-8.07
-10.35
-12.03
-13.04
-13.75
-14.73
-16.49
-19.11
-22.23
-25.08
-26.84
-26.95
-25.30
-22.19
-18.17
-13.72
-9.14
-4.49
0.30
5.20
9.96
14.11
17.17
18.86
19.31
18.99
18.48
18.15
18.05
17.84
17.12
15.72
13.86
12.07
10.89
10.59
11.03
11.72
12.09
11.74
10.60
8.88
6.99
5.28
3.88
2.72
1.60
0.36
-1.06
-2.62
-4.25
-5.93
-7.80
-10.08
-12.85
-15.81
-18.43
-20.17
-20.98
-21.41
-22.40
-24.85
-29.12
-34.53
-39.46
-42.19
-41.53
-37.49
-31.23
-24.51
-19.02
-15.89
-14.98
-14.96
-14.04
-10.34
-2.96
7.58
19.15
28.19
30.62
23.57
5.37
-22.44
-53.70
-80.46
-96.59
-98.57
-85.04
-56.98
-19.53
23.83
67.46
104.88
130.88
143.28
143.58
136.04
121.63
103.93
86.50
71.23
58.73
48.49
39.50
30.72
21.55
11.83
2.26
-6.36
-13.87
-20.36
-26.02
-30.86
-34.54
-36.55
-36.62
-34.63
-31.12
-27.34
-24.30
-22.31
-20.92
-19.27
-16.71
-13.24
-9.13
-4.90
-1.08
2.31
5.67
9.27
13.04
16.37
18.53
19.15
18.42
16.65
14.41
12.16
9.89
7.22
3.61
-1.32
-7.52
-14.59
-22.27
-29.96
-37.02
-42.86
-46.98
-48.99
-48.84
-46.95
-44.30
-42.62
-43.08
-45.83
-49.91
-53.53
-55.28
-55.06
-54.66
-53.97
-54.18
-56.12
-59.93
-65.21
-71.06
-76.07
-77.81
-72.55
-56.40
-29.84
6.31
47.68
87.06
117.57
135.55
141.50
138.90
132.04
123.74
111.91
96.34
77.94
59.07
42.78
31.38
25.36
23.32
22.63
21.18
18.39
14.66
11.02
8.46
7.54
8.25
10.30
13.11
16.14
19.00
21.09
21.90
21.33
19.68
17.55
15.41
13.33
10.98
8.02
3.97
-1.30
-7.46
-13.81
-19.63
-24.48
-28.40
-31.84
-35.37
-39.43
-44.04
-48.69
-52.53
-54.78
-55.03
-53.39
-50.36
-46.55
-42.46
-38.32
-34.09
-29.56
-24.57
-19.09
-13.37
-7.88
-3.16
0.42
2.81
4.28
5.28
6.21
7.19
7.99
8.29
7.90
7.03
6.14
5.74
6.04
6.79
7.43
7.34
6.23
4.29
2.18
0.66
0.20
0.78
1.88
2.71
2.49
0.81
-2.25
-6.10
-9.92
-12.97
-14.80
-15.28
-14.63
-13.46
-12.50
-12.40
-13.46
-15.61
-18.43
-21.20
-22.81
-22.23
-19.11
-13.85
-7.42
-0.90
4.75
9.04
12.11
15.04
19.08
24.70
31.32
37.65
42.25
43.93
42.23
37.68
32.38
28.87
28.85
32.68
39.42
47.21
53.49
55.40
47.27
26.14
-5.29
-39.24
-67.21
-83.40
-85.60
-74.91
-54.96
-30.85
-7.32
13.63
30.27
41.04
45.37
43.90
38.20
30.28
22.10
15.56
10.52
6.25
1.35
-5.28
-13.62
-22.67
-30.85
-36.71
-39.18
-37.94
-33.56
-27.13
-19.49
-11.07
-2.07
7.04
15.43
22.31
27.25
30.45
32.67
34.81
37.40
40.00
41.22
39.51
34.27
26.43
18.12
11.54
7.82
6.45
5.67
3.41
-1.41
-8.16
-14.82
-19.07
-19.60
-16.53
-10.91
-3.95
3.23
9.63
13.97
14.54
9.28
-3.35
-23.11
-47.02
-70.04
-86.97
-93.84
-88.95
-72.69
-47.84
-19.02
8.60
31.19
46.77
54.63
55.19
49.46
39.27
26.04
10.67
-5.71
-20.57
-29.46
-29.68
-23.53
-18.13
-19.65
-30.63
-48.54
-66.57
-76.83
-72.17
-50.42
-14.67
28.22
71.98
111.68
144.73
162.37
160.69
142.57
114.33
85.71
56.55
27.44
0.30
-22.49
-38.36
-44.17
-38.61
-23.64
-4.27
12.79
22.89
23.69
15.88
2.93
-9.59
-17.35
-19.70
-19.54
-21.30
-26.95
-35.45
-43.30
-46.24
-40.77
-26.07
-4.45
20.33
44.60
66.61
85.78
102.15
115.99
127.99
138.80
148.61
157.17
163.57
166.63
164.93
157.31
143.37
124.08
101.55
78.25
56.96
40.32
30.22
26.98
29.19
33.86
37.18
35.39
24.67
3.72
-25.62
-59.21
-92.45
-121.62
-144.49
-160.41
-170.02
-176.88
-183.25
-189.02
-192.71
-193.55
-191.91
-188.74
-184.97
-181.64
-183.30
-192.20
-206.65
-222.59
-236.51
-246.50
-252.02
-253.25
-251.70
-254.03
-263.98
-279.77
-296.02
-307.70
-311.73
-306.58
-291.51
-238.38
-143.07
-28.32
74.55
148.97
195.16
220.98
235.06
245.92
257.45
265.65
267.41
263.32
256.16
247.92
239.50
227.51
211.91
193.99
172.37
147.75
123.67
104.43
92.20
86.42
85.02
86.29
88.48
88.16
83.73
75.93
66.39
55.72
43.52
29.44
14.56
0.54
-11.89
-21.99
-28.98
-32.51
-33.06
-31.76
-29.82
-28.00
-27.24
-28.75
-33.19
-40.22
-48.58
-56.55
-62.55
-65.47
-64.82
-60.95
-54.80
-47.52
-40.03
-32.78
-25.69
-18.37
-10.55
-2.14
6.71
15.84
25.27
35.14
45.29
54.95
62.73
67.17
67.55
64.34
59.06
53.38
48.13
42.78
35.86
26.10
13.54
-0.04
-11.96
-20.04
-23.97
-25.50
-27.44
-32.03
-40.02
-50.87
-64.04
-79.90
-99.36
-122.37
-146.26
-165.33
-172.45
-162.06
-132.99
-89.47
-39.63
7.42
44.64
68.73
79.97
80.88
74.80
64.93
54.05
44.42
37.69
34.70
35.43
39.04
44.11
49.06
52.56
53.75
52.42
48.99
44.40
39.84
36.45
34.90
35.12
36.39
37.58
37.72
36.35
33.74
30.61
27.85
26.07
25.49
25.94
26.95
27.99
28.55
28.29
26.99
24.67
21.50
17.69
13.46
8.96
4.24
-0.65
-5.62
-10.47
-14.94
-18.73
-21.75
-24.08
-26.08
-28.27
-31.09
-34.62
-38.52
-42.03
-44.22
-44.42
-42.41
-38.53
-33.45
-27.83
-22.02
-16.06
-9.78
-3.17
3.46
9.51
14.29
17.44
19.14
19.98
20.76
22.01
23.70
25.29
26.02
25.31
23.20
20.34
17.75
16.33
16.39
17.46
18.51
18.44
16.58
13.11
8.92
5.37
3.67
4.47
7.61
12.17
16.70
19.60
19.51
15.64
7.86
-3.19
-16.17
-29.24
-40.44
-48.14
-51.50
-50.68
-46.86
-41.81
-37.25
-34.12
-32.24
-30.52
-27.63
-22.68
-15.63
-7.20
1.57
9.80
16.98
22.87
27.08
28.94
27.71
23.43
17.16
10.65
5.66
3.47
4.40
7.78
12.29
16.50
19.95
23.13
26.76
31.15
36.05
40.72
43.74
43.48
38.75
30.30
20.78
12.97
8.61
8.02
10.01
11.62
8.85
-2.19
-22.37
-48.27
-73.12
-88.79
-88.25
-68.41
-32.07
13.79
54.15
73.99
70.04
51.59
30.99
15.86
7.50
2.79
-1.94
-9.24
-20.07
-33.72
-48.64
-61.99
-69.04
-64.08
-43.96
-9.09
35.27
80.06
113.45
125.96
114.06
80.58
32.21
-24.37
-82.06
-133.69
-171.74
-188.92
-180.26
-145.69
-91.18
-23.70
39.72
83.19
102.22
103.84
98.38
92.51
87.24
79.95
67.77
49.43
27.92
8.35
-4.81
-9.69
-7.23
-0.26
7.68
13.48
14.86
12.95
10.46
10.10
13.41
20.77
31.60
44.57
57.91
69.65
78.88
84.80
86.37
82.05
70.59
51.47
25.04
-7.82
-46.54
-88.22
-130.01
-169.18
-202.74
-226.79
-237.05
-230.22
-206.20
-169.02
-125.78
-85.41
-55.32
-38.82
-34.01
-35.16
-35.03
-28.22
-12.87
9.22
32.58
50.86
60.00
60.86
58.60
60.33
70.76
90.38
116.04
141.52
160.42
168.31
164.11
148.94
125.03
93.72
54.62
13.36
-21.51
-44.27
-55.94
-61.12
-67.57
-76.17
-85.90
-95.08
-101.88
-106.73
-108.80
-111.20
-118.64
-134.98
-159.79
-187.98
-210.47
-218.00
-206.57
-179.53
-145.70
-113.42
-85.96
-59.70
-27.09
19.18
82.48
159.48
241.34
316.08
372.30
401.76
400.84
370.38
316.03
247.86
178.56
121.29
85.82
75.27
84.59
102.18
113.91
108.90
83.67
42.81
-3.39
-45.04
-77.60
-102.71
-124.74
-147.06
-169.69
-190.18
-206.37
-217.24
-224.53
-232.58
-245.05
-261.57
-277.64
-286.36
-281.65
-260.64
-222.22
-167.43
-100.42
-27.05
47.12
115.66
171.89
209.64
214.80
179.26
111.90
35.49
-28.06
-66.00
-78.69
-71.95
-49.98
-15.94
28.76
83.09
141.21
195.76
242.87
279.51
302.63
308.88
295.35
262.37
214.21
157.27
89.59
22.46
-30.21
-63.32
-82.35
-95.73
-107.00
-114.13
-114.27
-106.91
-93.29
-78.68
-69.63
-69.71
-77.85
-88.41
-93.95
-88.55
-70.32
-40.63
-5.50
26.90
50.95
65.19
68.55
65.08
58.51
49.67
37.65
21.71
-0.50
-27.28
-53.47
-73.28
-81.81
-77.82
-63.52
-42.95
-20.75
-0.78
15.61
29.35
38.77
42.29
39.14
30.27
18.18
5.76
-4.09
-10.90
-14.75
-16.59
-17.22
-17.56
-18.33
-19.56
-20.64
-20.86
-19.69
-16.93
-12.92
-7.73
-1.40
5.89
13.61
20.99
27.05
31.01
32.68
32.15
30.04
26.89
22.97
18.15
12.15
4.75
-4.03
-13.74
-23.71
-33.07
-40.89
-46.44
-49.30
-49.47
-47.41
-43.79
-39.21
-34.05
-28.36
-22.15
-15.68
-9.71
-5.42
-3.98
-6.05
-11.40
-18.82
-26.51
-32.63
-35.87
-35.84
-33.03
-28.53
-23.53
-18.95
-15.10
-11.81
-8.62
-5.12
-1.17
3.12
7.58
12.19
17.10
22.48
28.35
34.34
39.84
44.19
47.03
48.36
48.56
48.08
47.25
46.16
44.75
43.01
41.07
39.24
37.77
36.75
35.99
35.10
33.73
31.73
29.29
26.75
24.49
22.64
21.08
19.45
17.40
14.78
11.68
8.41
5.28
2.51
0.07
-2.21
-4.51
-6.92
-9.39
-11.77
-13.94
-15.87
-17.68
-19.50
-21.36
-23.06
-24.24
-24.48
-23.51
-21.32
-18.25
-14.81
-11.49
-8.55
-5.91
-3.30
-0.47
2.69
5.94
8.80
10.79
11.62
11.38
10.52
9.68
9.40
9.91
11.04
12.37
13.41
13.84
13.55
12.67
11.39
9.89
8.29
6.68
5.18
4.03
3.47
3.64
4.46
5.57
6.38
6.37
5.26
3.18
0.57
-2.03
-4.20
-5.87
-7.26
-8.73
-10.55
-12.75
-15.15
-17.43
-19.33
-20.67
-21.40
-21.49
-20.87
-19.44
-17.08
-13.83
-9.93
-5.85
-2.14
0.77
2.72
3.93
4.83
5.91
7.43
9.34
11.29
12.81
13.56
13.42
12.50
11.10
9.54
8.06
6.82
5.88
5.25
4.89
4.71
4.60
4.38
3.87
2.93
1.54
-0.15
-1.86
-3.36
-4.55
-5.53
-6.59
-8.01
-9.91
-12.10
-14.19
-15.75
-16.58
-16.80
-16.87
-17.30
-18.44
-20.23
-22.16
-23.50
-23.55
-21.97
-18.94
-15.06
-11.04
-7.41
-4.30
-1.49
1.37
4.50
7.75
10.71
12.91
14.07
14.27
13.87
13.34
12.99
12.83
12.62
12.05
10.94
9.40
7.75
6.41
5.65
5.53
5.79
6.08
6.06
5.56
4.63
3.42
2.10
0.72
-0.78
-2.47
-4.33
-6.19
-7.80
-8.96
-9.69
-10.21
-10.86
-11.94
-13.53
-15.43
-17.30
-18.78
-19.65
-19.88
-19.55
-18.73
-17.40
-15.44
-12.69
-9.10
-4.81
-0.23
4.06
7.53
9.85
11.02
11.39
11.45
11.61
12.05
12.62
13.01
12.97
12.47
11.76
11.24
11.18
11.58
12.09
12.28
11.86
10.84
9.55
8.39
7.59
7.08
6.53
5.63
4.26
2.63
1.13
0.13
-0.32
-0.42
-0.62
-1.29
-2.55
-4.22
-5.92
-7.30
-8.20
-8.80
-9.41
-10.39
-11.80
-13.37
-14.52
-14.73
-13.69
-11.53
-8.71
-5.75
-3.01
-0.53
1.84
4.30
6.86
9.25
11.11
12.16
12.40
12.11
11.72
11.54
11.61
11.69
11.39
10.46
8.98
7.37
6.21
5.98
6.82
8.40
10.04
10.97
10.56
8.54
5.05
0.59
-4.07
-8.06
-10.56
-11.03
-9.34
-5.81
-1.25
3.32
6.94
8.86
8.79
6.84
3.44
-0.83
-5.37
-9.66
-13.22
-15.62
-16.51
-15.69
-13.18
-9.31
-4.63
0.13
4.29
7.32
8.95
9.15
8.11
6.15
3.70
1.17
-1.08
-2.81
-3.94
-4.47
-4.50
-4.10
-3.40
-2.51
-1.61
-0.90
-0.51
-0.46
-0.63
-0.82
-0.81
-0.51
0.02
0.57
0.85
0.63
-0.18
-1.48
-3.03
-4.53
-5.79
-6.76
-7.59
-8.47
-9.56
-10.84
-12.16
-13.34
-14.31
-15.16
-16.11
-17.26
-18.47
-19.30
-19.15
-17.59
-14.56
-10.48
-6.09
-2.14
0.91
3.03
4.51
5.70
6.83
7.85
8.56
8.80
8.58
8.10
7.56
7.03
6.27
4.94
2.74
-0.35
-3.93
-7.39
-10.03
-11.39
-11.38
-10.32
-8.81
-7.57
-7.06
-7.39
-8.15
-8.65
-8.18
-6.41
-3.64
-0.59
1.82
3.01
2.92
1.96
0.71
-0.49
-1.65
-3.11
-5.17
-7.88
-10.91
-13.69
-15.62
-16.35
-15.79
-14.15
-11.70
-8.71
-5.44
-2.07
1.17
4.01
6.21
7.65
8.33
8.41
8.16
7.82
7.55
7.33
7.04
6.53
5.75
4.77
3.77
3.00
2.60
2.58
2.81
3.08
3.28
3.39
3.47
3.58
3.65
3.47
2.85
1.73
0.38
-0.65
-0.79
0.23
2.12
4.05
4.96
4.01
1.03
-3.44
-8.29
-12.35
-14.79
-15.40
-14.60
-13.20
-12.01
-11.55
-11.83
-12.44
-12.82
-12.59
-11.73
-10.61
-9.71
-9.30
-9.29
-9.28
-8.88
-7.96
-6.75
-5.62
-4.87
-4.48
-4.19
-3.58
-2.39
-0.61
1.58
3.99
6.50
9.02
11.28
12.89
13.44
12.64
10.42
7.01
2.93
-1.20
-4.90
-7.92
-10.14
-11.12
-10.26
-7.10
-1.50
6.28
15.64
25.71
35.50
43.98
50.39
53.43
51.14
41.74
25.21
4.45
-15.10
-27.27
-27.79
-15.55
6.48
32.58
56.85
75.66
88.33
95.97
99.55
95.13
79.80
54.36
23.86
-5.23
-28.00
-42.23
-48.34
-48.60
-45.97
-42.37
-38.74
-35.32
-32.15
-29.22
-26.57
-24.35
-22.75
-21.78
-20.72
-18.86
-16.03
-12.78
-10.03
-8.54
-8.48
-9.40
-10.32
-9.93
-7.44
-3.19
1.44
4.73
5.46
3.63
0.44
-2.18
-2.38
0.66
6.20
12.25
16.60
17.56
14.44
7.52
-2.11
-12.43
-20.06
-21.13
-12.78
4.97
27.87
48.38
58.49
53.52
34.59
8.28
-16.64
-33.49
-40.50
-40.72
-39.21
-39.67
-42.51
-45.50
-45.82
-42.29
-36.36
-31.29
-30.39
-35.31
-45.51
-58.53
-70.82
-78.97
-80.06
-72.41
-55.70
-31.07
-1.21
29.74
56.85
75.79
84.51
84.74
80.80
77.66
78.32
82.49
87.11
88.42
84.46
73.19
56.48
37.94
21.16
8.29
0.30
-2.06
2.52
15.52
37.33
66.79
100.54
134.36
164.80
190.17
210.13
224.40
231.69
229.51
215.51
188.23
148.00
96.95
38.61
-22.54
-81.41
-132.27
-169.19
-186.73
-181.71
-154.63
-110.03
-55.43
0.91
52.35
95.35
129.35
155.38
173.99
184.05
183.03
168.48
139.87
99.63
52.47
3.86
-41.39
-80.30
-111.83
-136.63
-156.64
-174.56
-193.09
-214.04
-237.09
-258.78
-272.83
-272.08
-251.52
-211.19
-156.91
-98.70
-48.00
-14.03
-1.20
-8.79
-32.28
-65.52
-102.88
-139.41
-170.02
-191.10
-201.04
-200.27
-191.33
-177.69
-162.05
-145.73
-127.18
-101.96
-68.15
-28.58
10.19
39.64
52.42
44.81
16.43
-28.05
-77.77
-122.16
-152.99
-163.98
-152.22
-119.02
-70.12
-16.42
31.18
67.82
90.79
99.31
95.60
82.82
63.75
53.13
57.69
58.56
52.82
48.79
48.93
53.00
59.02
64.88
69.36
70.42
67.43
63.82
61.20
58.56
54.92
50.13
45.37
42.64
42.27
44.53
51.95
65.34
82.24
98.08
107.17
104.46
87.15
54.74
10.74
-36.24
-76.02
-100.60
-105.99
-92.51
-63.55
-24.44
18.37
58.40
84.16
89.88
80.64
65.08
48.78
33.85
20.41
7.93
-3.77
-14.05
-21.21
-23.80
-22.74
-20.24
-18.38
-18.41
-20.53
-23.89
-26.49
-26.00
-19.70
-7.39
9.23
27.61
45.35
60.71
72.93
82.30
90.03
98.74
109.65
123.15
139.31
157.62
176.63
194.03
207.98
208.46
192.68
162.44
123.93
85.43
53.79
31.57
16.36
2.76
-14.58
-36.82
-62.33
-87.62
-109.31
-125.42
-135.57
-140.13
-139.51
-134.18
-123.76
-109.21
-92.79
-77.48
-65.94
-59.41
-57.22
-57.20
-56.79
-53.56
-46.99
-38.48
-30.56
-25.74
-25.30
-28.85
-34.49
-39.72
-42.09
-40.41
-34.98
-27.22
-18.96
-11.71
-6.28
-2.61
-0.10
2.06
4.35
6.74
8.90
10.52
11.51
12.11
12.61
13.10
13.34
12.98
11.84
10.23
8.85
8.43
9.38
11.39
13.55
14.71
14.11
11.75
8.37
5.14
3.01
2.22
2.08
1.42
-0.79
-4.67
-9.34
-13.22
-14.80
-13.46
-9.66
-4.65
0.31
4.54
8.01
11.10
13.96
16.30
17.46
17.01
15.06
12.20
9.36
7.36
6.59
6.84
7.58
8.36
9.48
11.62
15.26
20.21
25.55
30.09
32.79
33.31
31.83
29.03
25.00
18.73
8.69
-5.95
-24.52
-44.86
-63.88
-78.73
-86.58
-86.62
-81.01
-73.69
-68.13
-66.02
-67.02
-69.08
-69.71
-64.49
-51.12
-31.86
-12.03
3.65
13.06
16.74
17.18
16.51
19.25
26.72
34.63
36.43
29.02
14.57
-1.05
-10.74
-10.00
7.86
45.94
101.02
166.13
235.23
303.10
364.07
412.02
411.53
345.12
234.13
120.51
31.09
-30.02
-71.53
-104.71
-129.69
-147.09
-149.52
-132.58
-101.60
-70.24
-49.41
-47.44
-69.98
-109.64
-146.85
-156.91
-128.73
-72.66
-13.66
24.49
30.00
6.66
-31.31
-69.90
-99.01
-116.05
-123.59
-124.55
-118.38
-103.27
-79.36
-49.81
-20.55
4.17
21.99
32.25
34.75
29.66
18.10
2.44
-13.49
-25.96
-32.37
-33.32
-32.60
-35.43
-45.06
-60.40
-76.36
-85.26
-80.69
-60.11
-26.74
12.00
46.74
67.52
70.72
59.76
42.87
27.98
19.65
17.57
18.38
17.59
13.09
5.84
-1.28
-4.39
-1.66
7.16
20.74
37.82
56.69
76.03
93.79
103.56
100.31
80.86
47.16
7.32
-25.39
-42.35
-39.06
-17.80
13.27
44.28
67.30
79.16
77.97
68.60
55.41
40.98
26.10
11.60
-0.23
-6.44
-4.49
5.65
21.85
38.00
47.85
47.04
35.05
15.52
-5.31
-20.86
-26.71
-21.71
-8.84
7.33
22.51
34.65
43.93
51.72
59.21
66.41
72.35
75.24
74.09
68.04
58.58
48.22
39.22
32.63
27.92
23.41
16.57
5.01
-13.04
-38.41
-71.25
-111.09
-156.56
-205.11
-252.80
-294.68
-325.74
-342.24
-342.91
-329.83
-307.95
-283.68
-263.00
-249.76
-244.66
-245.30
-247.10
-244.70
-233.60
-211.18
-177.06
-133.12
-83.04
-31.58
16.09
55.35
83.10
98.43
102.83
99.51
91.95
82.64
72.53
61.74
50.81
41.84
38.38
43.95
60.06
84.87
113.39
139.29
157.29
164.95
163.25
155.66
146.46
139.38
136.83
139.77
148.00
160.26
174.24
186.75
194.22
193.89
185.18
170.43
154.52
143.11
140.40
147.42
161.78
178.95
194.46
205.60
211.93
214.34
213.55
209.09
199.31
182.40
157.47
125.12
87.11
45.38
1.39
-44.08
-90.42
-136.50
-180.24
-219.00
-250.36
-272.97
-287.06
-294.25
-296.83
-296.96
-296.00
-294.38
-291.75
-287.37
-280.57
-271.03
-258.91
-244.73
-229.19
-212.87
-195.84
-177.54
-156.84
-132.62
-104.35
-72.80
-40.12
-9.28
16.90
36.98
51.42
62.39
72.73
84.76
99.32
115.61
131.80
145.93
156.71
163.77
167.41
168.17
166.35
162.00
155.07
145.74
134.66
122.81
111.29
100.89
91.82
83.69
75.71
67.13
57.56
47.24
36.98
27.87
20.90
16.63
15.05
15.68
17.76
20.58
23.70
27.00
30.58
34.61
39.09
43.80
48.34
52.30
55.41
57.62
59.12
60.17
60.98
61.67
62.19
62.45
62.43
62.19
61.85
61.49
61.06
60.39
59.19
57.18
54.23
50.35
45.68
40.47
34.93
29.26
23.68
18.43
13.76
9.75
6.23
2.70
-1.51
-7.00
-14.04
-22.43
-31.62
-41.02
-50.13
-58.70
-66.62
-73.78
-79.88
-84.51
-87.25
-87.83
-86.26
-82.75
-77.71
-71.64
-65.08
-58.56
-52.56
-47.43
-43.29
-40.09
-37.53
-35.26
-32.87
-30.11
-26.84
-23.09
-18.96
-14.57
-10.01
-5.44
-1.05
2.91
6.18
8.59
10.07
10.71
10.64
10.05
9.04
7.70
6.04
4.07
1.78
-0.82
-3.67
-6.68
-9.68
-12.44
-14.75
-16.41
-17.35
-17.66
-17.50
-17.11
-16.64
-16.09
-15.27
-13.88
-11.63
-8.41
-4.37
0.12
4.65
8.91
12.79
16.38
19.77
22.94
25.71
27.81
29.05
29.46
29.32
29.06
29.08
29.58
30.47
31.43
32.03
31.87
30.72
28.48
25.15
20.81
15.57
9.65
3.36
-2.83
-8.39
-12.83
-15.90
-17.57
-18.12
-17.96
-17.49
-16.98
-16.56
-16.24
-15.97
-15.76
-15.66
-15.78
-16.22
-17.06
-18.30
-19.85
-21.59
-23.31
-24.81
-25.86
-26.24
-25.73
-24.19
-21.64
-18.22
-14.26
-10.17
-6.32
-2.96
-0.13
2.26
4.40
6.38
8.27
10.00
11.50
12.73
13.70
14.48
15.14
15.69
16.10
16.26
16.11
15.63
14.87
13.96
12.99
12.04
11.06
10.01
8.81
7.40
5.81
4.07
2.21
0.32
-1.51
-3.13
-4.45
-5.41
-6.08
-6.68
-7.43
-8.49
-9.92
-11.62
-13.41
-15.07
-16.40
-17.27
-17.55
-17.13
-15.93
-13.97
-11.35
-8.34
-5.21
-2.24
0.39
2.65
4.60
6.31
7.80
9.00
9.79
10.09
9.89
9.30
8.49
7.57
6.63
5.70
4.83
4.11
3.62
3.43
3.52
3.74
3.92
3.89
3.59
3.10
2.53
2.02
1.63
1.35
1.08
0.71
0.16
-0.55
-1.34
-2.11
-2.80
-3.46
-4.23
-5.26
-6.60
-8.20
-9.91
-11.48
-12.73
-13.49
-13.67
-13.19
-12.00
-10.13
-7.68
-4.85
-1.90
0.89
3.29
5.18
6.53
7.39
7.89
8.13
8.18
8.03
7.62
6.92
5.97
4.92
3.98
3.31
2.97
2.82
2.70
2.45
2.03
1.54
1.10
0.81
0.62
0.40
-0.03
-0.79
-1.90
-3.22
-4.58
-5.84
-6.92
-7.91
-8.92
-10.06
-11.33
-12.64
-13.89
-15.00
-16.05
-17.16
-18.48
-19.97
-21.44
-22.55
-22.92
-22.32
-20.70
-18.27
-15.30
-12.13
-8.98
-5.97
-3.10
-0.36
2.22
4.52
6.35
7.61
8.25
8.41
8.26
8.01
7.75
7.50
7.22
6.85
6.44
6.09
5.94
6.04
6.38
6.75
6.92
6.68
5.91
4.70
3.25
1.83
0.63
-0.26
-0.93
-1.55
-2.28
-3.22
-4.35
-5.58
-6.78
-7.87
-8.88
-9.91
-11.09
-12.54
-14.29
-16.26
-18.30
-20.19
-21.70
-22.61
-22.77
-22.03
-20.37
-17.82
-14.53
-10.73
-6.71
-2.76
0.91
4.20
7.08
9.57
11.67
13.35
14.55
15.28
15.62
15.70
15.71
15.76
15.88
16.04
16.14
16.13
15.96
15.61
15.08
14.41
13.64
12.83
12.07
11.40
10.85
10.40
10.00
9.56
8.98
8.13
6.95
5.45
3.71
1.94
0.32
-1.08
-2.31
-3.53
-4.94
-6.65
-8.65
-10.74
-12.62
-13.94
-14.47
-14.11
-12.94
-11.13
-8.86
-6.22
-3.23
0.04
3.44
6.67
9.43
11.48
12.82
13.62
14.11
14.47
14.71
14.72
14.40
13.78
13.05
12.47
12.24
12.36
12.69
12.95
12.95
12.63
12.07
11.43
10.82
10.22
9.53
8.60
7.33
5.78
4.10
2.45
0.97
-0.31
-1.47
-2.59
-3.80
-5.19
-6.86
-8.91
-11.33
-14.02
-16.68
-18.88
-20.17
-20.24
-18.98
-16.56
-13.26
-9.45
-5.44
-1.50
2.16
5.36
7.97
9.96
11.44
12.57
13.53
14.36
15.04
15.41
15.37
14.94
14.28
13.62
13.13
12.83
12.60
12.23
11.57
10.60
9.44
8.23
7.12
6.12
5.18
4.20
3.08
1.79
0.41
-0.98
-2.32
-3.61
-4.94
-6.37
-7.94
-9.61
-11.25
-12.71
-13.96
-15.07
-16.23
-17.57
-19.06
-20.47
-21.42
-21.56
-20.68
-18.84
-16.22
-13.09
-9.68
-6.11
-2.47
1.13
4.49
7.36
9.57
11.07
11.98
12.53
12.90
13.16
13.26
13.10
12.68
12.10
11.56
11.24
11.15
11.20
11.16
10.85
10.19
9.26
8.18
7.06
5.95
4.85
3.75
2.67
1.61
0.58
-0.46
-1.56
-2.71
-3.87
-4.95
-5.92
-6.84
-7.85
-9.08
-10.58
-12.31
-14.14
-15.90
-17.46
-18.72
-19.58
-19.92
-19.64
-18.63
-16.87
-14.45
-11.53
-8.33
-5.05
-1.84
1.19
4.00
6.56
8.84
10.79
12.38
13.59
14.43
14.96
15.24
15.30
15.15
14.78
14.25
13.65
13.14
12.84
12.80
12.98
13.23
13.42
13.45
13.33
13.12
12.92
12.79
12.73
12.69
12.63
12.52
12.37
12.25
12.25
12.42
12.76
13.21
13.67
14.03
14.17
14.04
13.71
13.30
13.00
13.00
13.47
14.51
16.15
18.39
21.18
24.42
27.93
31.40
34.47
36.68
37.58
36.73
33.83
28.72
21.53
12.66
2.77
-7.32
-16.86
-25.27
-32.32
-38.05
-42.70
-46.50
-49.58
-51.90
-53.32
-53.77
-53.27
-52.03
-50.36
-48.51
-46.60
-44.59
-42.35
-39.77
-36.87
-33.81
-30.86
-28.25
-26.10
-24.36
-22.84
-21.33
-19.65
-17.81
-15.92
-14.22
-12.93
-12.21
-12.06
-12.35
-12.84
-13.22
-13.14
-12.27
-10.37
-7.36
-3.41
1.09
5.69
9.97
13.74
17.01
19.92
22.59
25.06
27.24
29.02
30.33
31.18
31.65
31.87
31.94
31.96
32.04
32.29
32.77
33.49
34.32
35.10
35.66
35.93
35.88
35.58
35.08
34.37
33.41
32.10
30.36
28.05
24.88
20.47
14.43
6.65
-2.57
-12.45
-21.94
-30.06
-36.30
-40.69
-43.69
-45.90
-47.82
-49.73
-51.66
-53.58
-55.35
-56.76
-57.54
-57.34
-55.92
-53.20
-49.30
-44.53
-39.24
-33.79
-28.51
-23.66
-19.43
-15.91
-13.01
-10.55
-8.31
-6.17
-4.15
-2.41
-1.12
-0.38
-0.15
-0.30
-0.62
-0.98
-1.28
-1.51
-1.67
-1.74
-1.68
-1.40
-0.87
-0.13
0.67
1.37
1.82
2.00
2.05
2.18
2.51
2.99
3.44
3.63
3.47
3.01
2.44
1.97
1.65
1.36
0.83
-0.18
-1.80
-3.97
-6.38
-8.61
-10.22
-10.89
-10.47
-9.08
-7.01
-4.61
-2.15
0.18
2.36
4.41
6.34
8.12
9.67
10.90
11.77
12.32
12.58
12.64
12.56
12.37
12.14
11.90
11.73
11.67
11.76
11.97
12.19
12.27
12.03
11.38
10.34
9.07
7.75
6.54
5.49
4.45
3.22
1.64
-0.28
-2.38
-4.37
-6.03
-7.24
-8.13
-8.93
-9.99
-11.49
-13.48
-15.76
-17.99
-19.78
-20.83
-20.93
-20.04
-18.23
-15.68
-12.56
-9.13
-5.64
-2.33
0.58
2.95
4.76
6.11
7.19
8.20
9.27
10.40
11.47
12.29
12.71
12.69
12.32
11.79
11.29
10.96
10.84
10.88
11.03
11.22
11.37
11.42
11.32
10.99
10.43
9.65
8.71
7.70
6.69
5.69
4.68
3.58
2.30
0.80
-0.85
-2.53
-4.06
-5.37
-6.50
-7.65
-9.04
-10.83
-12.96
-15.15
-16.95
-17.97
-17.95
-16.91
-15.03
-12.61
-9.88
-6.95
-3.84
-0.58
2.75
5.95
8.73
10.90
12.39
13.30
13.86
14.22
14.46
14.51
14.25
13.62
12.70
11.71
10.90
10.43
10.34
10.48
10.65
10.63
10.32
9.72
8.90
7.96
6.97
5.98
4.97
3.91
2.73
1.34
-0.32
-2.22
-4.32
-6.50
-8.65
-10.67
-12.52
-14.19
-15.69
-17.07
-18.44
-19.88
-21.41
-22.87
-23.93
-24.15
-23.19
-20.94
-17.60
-13.66
-9.67
-6.02
-2.83
0.02
2.72
5.38
7.90
10.08
11.70
12.70
13.19
13.44
13.71
14.10
14.54
14.87
14.94
14.77
14.49
14.30
14.30
14.43
14.50
14.32
13.79
12.95
11.92
10.80
9.63
8.34
6.84
5.09
3.15
1.15
-0.76
-2.48
-3.98
-5.38
-6.84
-8.54
-10.60
-13.07
-15.79
-18.44
-20.60
-21.88
-22.03
-21.06
-19.15
-16.57
-13.54
-10.16
-6.52
-2.73
0.99
4.28
6.86
8.62
9.69
10.39
11.05
11.83
12.69
13.38
13.67
13.43
12.75
11.92
11.26
11.01
11.14
11.43
11.55
11.27
10.52
9.43
8.25
7.17
6.23
5.36
4.40
3.24
1.86
0.32
-1.28
-2.89
-4.53
-6.22
-7.97
-9.74
-11.48
-13.14
-14.77
-16.46
-18.31
-20.31
-22.27
-23.80
-24.43
-23.75
-21.62
-18.26
-14.18
-9.94
-6.01
-2.57
0.44
3.20
5.85
8.42
10.79
12.82
14.38
15.42
15.98
16.14
16.03
15.82
15.61
15.50
15.46
15.41
15.26
14.90
14.30
13.45
12.39
11.11
9.64
8.05
6.41
4.80
3.24
1.72
0.14
-1.53
-3.31
-5.12
-6.86
-8.44
-9.82
-11.05
-12.23
-13.53
-15.11
-17.07
-19.43
-22.04
-24.56
-26.53
-27.52
-27.20
-25.50
-22.57
-18.71
-14.30
-9.65
-5.05
-0.71
3.18
6.55
9.37
11.72
13.77
15.65
17.40
18.94
20.08
20.66
20.60
19.99
19.07
18.12
17.36
16.86
16.52
16.13
15.53
14.59
13.35
11.89
10.33
8.72
7.06
5.32
3.51
1.65
-0.20
-1.99
-3.72
-5.40
-7.04
-8.61
-10.08
-11.38
-12.54
-13.59
-14.64
-15.82
-17.18
-18.70
-20.21
-21.44
-22.10
-21.87
-20.59
-18.22
-14.96
-11.10
-7.00
-2.99
0.75
4.12
7.11
9.70
11.89
13.64
14.99
15.99
16.78
17.43
17.95
18.25
18.21
17.73
16.88
15.82
14.74
13.77
12.92
12.09
11.18
10.15
9.00
7.79
6.55
5.26
3.85
2.29
0.57
-1.26
-3.14
-5.00
-6.80
-8.55
-10.23
-11.87
-13.50
-15.17
-16.92
-18.76
-20.62
-22.39
-23.88
-24.83
-24.98
-24.08
-21.99
-18.74
-14.57
-9.88
-5.10
-0.58
3.49
7.07
10.19
12.93
15.28
17.23
18.71
19.69
20.18
20.24
19.96
19.43
18.75
17.99
17.17
16.25
15.16
13.85
12.37
10.84
9.45
8.30
7.39
6.56
5.60
4.31
2.61
0.60
-1.54
-3.60
-5.48
-7.15
-8.69
-10.15
-11.56
-12.92
-14.21
-15.47
-16.87
-18.58
-20.71
-23.13
-25.44
-27.04
-27.40
-26.17
-23.44
-19.58
-15.18
-10.70
-6.41
-2.35
1.55
5.29
8.73
11.60
13.64
14.81
15.31
15.48
15.67
16.02
16.39
16.52
16.12
15.11
13.64
12.04
10.62
9.55
8.78
8.08
7.20
5.93
4.26
2.36
0.50
-1.10
-2.37
-3.41
-4.46
-5.71
-7.23
-8.88
-10.43
-11.66
-12.51
-13.06
-13.51
-14.08
-14.84
-15.77
-16.77
-17.78
-18.76
-19.67
-20.42
-20.83
-20.59
-19.42
-17.15
-13.88
-9.90
-5.61
-1.37
2.61
6.27
9.65
12.76
15.54
17.83
19.44
20.27
20.35
19.85
19.05
18.25
17.62
17.17
16.75
16.15
15.22
13.95
12.49
11.03
9.72
8.59
7.54
6.44
5.19
3.79
2.32
0.84
-0.63
-2.10
-3.63
-5.17
-6.63
-7.85
-8.73
-9.30
-9.73
-10.29
-11.19
-12.52
-14.17
-15.90
-17.38
-18.33
-18.55
-17.97
-16.58
-14.49
-11.83
-8.79
-5.57
-2.34
0.73
3.52
5.95
7.98
9.58
10.78
11.59
12.04
12.16
12.03
11.74
11.42
11.22
11.21
11.39
11.64
11.81
11.74
11.36
10.67
9.76
8.74
7.70
6.68
5.68
4.66
3.57
2.36
1.01
-0.47
-2.03
-3.62
-5.20
-6.76
-8.32
-9.86
-11.39
-12.89
-14.36
-15.87
-17.44
-19.08
-20.63
-21.84
-22.35
-21.88
-20.30
-17.72
-14.40
-10.67
-6.82
-3.06
0.49
3.76
6.69
9.26
11.41
13.08
14.25
14.94
15.19
15.13
14.86
14.51
14.11
13.65
13.07
12.32
11.37
10.28
9.12
7.97
6.86
5.75
4.58
3.30
1.90
0.41
-1.08
-2.53
-3.92
-5.27
-6.62
-7.93
-9.16
-10.18
-10.97
-11.53
-12.02
-12.62
-13.52
-14.76
-16.24
-17.73
-18.92
-19.49
-19.21
-17.95
-15.74
-12.73
-9.23
-5.56
-2.06
1.06
3.70
5.91
7.77
9.37
10.74
11.86
12.74
13.35
13.72
13.85
13.72
13.30
12.62
11.77
10.91
10.20
9.70
9.36
8.98
8.41
7.59
6.62
5.67
4.88
4.27
3.69
2.96
1.93
0.60
-0.94
-2.55
-4.14
-5.69
-7.23
-8.75
-10.17
-11.42
-12.47
-13.40
-14.42
-15.75
-17.50
-19.57
-21.62
-23.17
-23.77
-23.15
-21.33
-18.53
-15.13
-11.51
-7.91
-4.45
-1.11
2.13
5.25
8.11
10.51
12.27
13.32
13.81
14.01
14.21
14.62
15.22
15.79
16.05
15.81
15.08
14.07
13.06
12.24
11.60
10.93
9.99
8.66
7.04
5.35
3.87
2.76
1.94
1.22
0.32
-0.89
-2.39
-4.02
-5.58
-6.97
-8.21
-9.44
-10.84
-12.49
-14.36
-16.24
-17.87
-18.92
-19.17
-18.51
-16.98
-14.71
-11.95
-8.92
-5.86
-2.93
-0.24
2.15
4.25
6.08
7.68
9.07
10.23
11.08
11.57
11.67
11.48
11.16
10.92
10.91
11.12
11.40
11.57
11.45
11.03
10.41
9.75
9.19
8.74
8.32
7.82
7.11
6.12
4.86
3.31
1.52
-0.43
-2.44
-4.38
-6.19
-7.85
-9.46
-11.13
-12.92
-14.82
-16.72
-18.48
-19.92
-20.87
-21.15
-20.62
-19.20
-16.90
-13.89
-10.46
-6.94
-3.58
-0.55
2.11
4.41
6.35
7.92
9.08
9.82
10.19
10.30
10.24
10.12
10.00
9.85
9.62
9.24
8.65
7.90
7.09
6.34
5.72
5.21
4.65
3.87
2.69
1.06
-0.90
-3.01
-5.02
-6.81
-8.38
-9.89
-11.54
-13.43
-15.53
-17.57
-19.19
-20.11
-20.23
-19.76
-19.09
-18.59
-18.40
-18.38
-18.15
-17.39
-15.93
-13.87
-11.48
-9.01
-6.59
-4.19
-1.76
0.68
2.95
4.79
6.00
6.52
6.47
6.08
5.60
5.18
4.90
4.73
4.64
4.61
4.61
4.61
4.58
4.55
4.60
4.92
5.73
7.25
9.51
12.39
15.52
18.46
20.68
21.75
21.42
19.70
16.89
13.50
10.10
7.08
4.58
2.47
0.47
-1.55
-3.56
-5.22
-6.13
-5.97
-4.66
-2.32
0.83
4.60
8.89
13.59
18.43
22.98
26.69
29.00
29.50
27.98
24.45
19.16
12.60
5.50
-1.22
-6.59
-9.91
-10.84
-9.52
-6.42
-2.16
2.74
7.94
13.24
18.52
23.59
28.18
31.93
34.53
35.78
35.69
34.44
32.25
29.13
24.74
18.48
9.77
-1.54
-14.80
-28.64
-41.32
-51.30
-57.78
-60.83
-61.28
-60.26
-58.76
-57.31
-55.87
-54.00
-51.14
-46.87
-41.02
-33.83
-25.72
-17.23
-8.81
-0.85
6.32
12.33
16.77
19.35
19.96
18.90
16.78
14.44
12.66
11.93
12.40
13.83
15.79
17.85
19.68
21.19
22.49
23.77
25.23
26.91
28.68
30.27
31.40
31.92
31.89
31.46
30.79
29.93
28.77
27.17
25.14
22.88
20.73
18.97
17.60
16.22
14.14
10.70
5.57
-1.04
-8.41
-15.59
-21.66
-26.09
-28.80
-30.05
-30.26
-29.77
-28.70
-26.97
-24.43
-21.04
-16.98
-12.68
-8.65
-5.43
-3.37
-2.61
-3.00
-4.13
-5.45
-6.36
-6.43
-5.52
-3.88
-2.11
-0.91
-0.87
-2.18
-4.55
-7.33
-9.74
-11.14
-11.29
-10.34
-8.82
-7.41
-6.73
-7.09
-8.42
-10.27
-12.00
-13.05
-13.18
-12.57
-11.76
-11.38
-11.85
-13.13
-14.76
-16.03
-16.35
-15.45
-13.49
-10.85
-7.94
-4.98
-1.96
1.22
4.59
7.94
10.89
13.03
14.15
14.37
14.10
13.82
13.83
14.15
14.51
14.61
14.34
14.02
14.30
15.86
19.07
23.72
29.03
33.95
37.64
39.83
41.02
42.20
44.44
48.36
53.84
60.03
65.71
69.86
72.13
73.08
73.98
76.34
81.27
89.06
99.04
109.60
118.49
123.22
121.72
112.93
97.51
78.01
58.51
43.42
35.88
36.33
41.94
47.51
47.52
38.64
21.37
0.02
-19.20
-31.03
-33.40
-28.13
-19.49
-11.86
-7.66
-6.87
-8.03
-9.94
-12.54
-16.67
-23.06
-31.24
-39.44
-45.43
-47.71
-46.23
-42.16
-37.35
-33.78
-33.48
-38.39
-50.07
-69.17
-94.89
-124.79
-155.27
-182.47
-203.22
-215.86
-220.15
-217.15
-208.99
-198.39
-188.00
-179.61
-173.60
-169.07
-165.04
-160.38
-154.15
-145.57
-133.95
-118.75
-99.79
-77.43
-52.36
-25.79
2.53
34.40
71.26
111.73
150.18
178.00
186.59
170.76
128.96
65.76
-9.30
-84.41
-148.73
-194.85
-219.74
-224.80
-214.90
-198.64
-182.74
-169.79
-158.35
-145.63
-130.17
-112.96
-96.63
-69.97
-29.80
18.97
66.05
103.02
127.19
140.47
146.95
151.32
157.65
166.15
175.72
184.45
189.93
189.35
180.46
163.10
139.95
115.86
94.09
76.79
64.58
56.72
51.56
47.52
43.87
40.75
38.68
36.81
34.23
30.54
25.94
20.87
15.74
11.01
7.22
4.91
3.89
3.73
3.78
3.28
1.46
-2.18
-7.37
-12.99
-17.54
-19.67
-18.79
-15.31
-10.64
-6.91
-6.52
-11.09
-20.73
-33.12
-43.61
-46.65
-37.92
-16.05
16.13
52.12
83.40
101.80
101.75
82.28
47.76
7.09
-28.78
-50.38
-53.03
-38.43
-13.67
12.11
31.04
40.17
41.18
38.05
33.94
30.06
25.94
20.94
15.50
11.17
9.60
11.43
15.75
20.65
24.29
25.53
24.38
21.82
19.25
17.98
18.54
20.76
23.65
26.08
27.39
27.81
28.60
31.03
35.05
38.38
36.78
25.97
4.19
-26.17
-59.12
-87.26
-105.18
-111.69
-109.69
-103.88
-97.26
-89.23
-76.22
-56.22
-30.50
-4.36
15.45
25.35
26.75
25.13
26.47
33.84
45.35
56.31
62.12
60.70
52.94
40.84
25.70
7.83
-12.07
-31.58
-46.06
-50.30
-41.05
-18.95
11.13
41.80
64.93
75.04
70.56
53.96
30.60
6.98
-11.66
-22.90
-27.30
-27.25
-25.32
-23.15
-20.98
-18.46
-15.55
-12.77
-11.13
-11.33
-13.22
-15.94
-18.29
-19.29
-18.60
-16.62
-14.21
-12.22
-11.37
-11.93
-13.66
-15.96
-18.09
-19.38
-19.52
-18.60
-17.00
-15.32
-14.08
-13.54
-13.90
-15.56
-19.15
-24.99
-32.32
-38.55
-40.01
-33.27
-17.12
6.31
31.94
53.65
66.90
70.14
65.64
57.38
49.02
42.48
37.86
34.31
31.15
28.50
26.83
26.34
26.45
26.23
24.98
23.01
21.94
23.71
29.01
35.94
40.09
36.18
20.76
-5.79
-39.13
-72.68
-100.20
-117.57
-123.25
-116.92
-100.35
-75.67
-45.99
-15.60
10.74
29.22
38.43
39.75
36.32
31.40
27.19
24.54
23.14
22.52
22.70
24.18
27.52
32.68
38.25
41.51
39.24
29.28
12.11
-8.72
-27.74
-39.79
-42.26
-35.89
-23.75
-9.46
4.50
17.27
28.66
37.61
41.70
38.20
25.92
6.91
-13.79
-30.00
-37.23
-34.99
-26.64
-17.39
-11.44
-10.13
-11.83
-13.55
-13.19
-10.74
-7.94
-7.12
-9.58
-14.96
-21.71
-28.54
-35.23
-42.24
-49.42
-55.33
-56.27
-48.35
-29.61
-1.73
30.04
58.49
76.85
82.45
77.30
66.49
55.17
46.48
40.88
37.04
33.53
30.15
28.10
28.81
32.47
37.24
39.81
36.58
25.75
8.29
-12.27
-31.56
-46.08
-54.62
-58.29
-59.23
-59.03
-57.95
-55.57
-51.83
-47.71
-44.75
-43.85
-44.42
-44.47
-41.87
-35.90
-27.98
-20.83
-16.69
-15.82
-16.07
-14.07
-7.16
5.37
21.37
36.39
45.52
45.10
34.07
14.55
-8.47
-28.75
-40.34
-40.04
-28.30
-8.85
12.78
31.12
42.44
45.52
41.56
34.21
27.89
26.77
33.88
50.43
75.51
106.30
138.50
162.34
169.50
154.30
114.98
54.11
-21.94
-103.57
-178.87
-235.60
-263.93
-258.99
-224.18
-171.52
-118.20
-80.45
-67.03
-75.86
-95.48
-110.73
-108.96
-85.29
-43.08
9.11
61.86
107.99
143.30
165.75
174.51
170.22
155.32
134.77
115.29
103.19
101.94
110.43
123.55
134.64
138.56
133.23
119.55
99.97
77.04
52.76
28.89
7.32
-10.03
-22.06
-29.42
-34.46
-40.00
-47.74
-57.17
-65.85
-70.99
-71.11
-66.84
-60.29
-53.63
-47.74
-42.02
-35.30
-27.37
-19.83
-15.73
-18.07
-28.07
-44.43
-63.88
-82.89
-99.18
-112.36
-123.30
-133.07
-142.29
-151.28
-160.57
-170.98
-182.86
-195.11
-204.57
-206.55
-196.36
-171.16
-131.01
-79.00
-20.42
38.63
92.55
137.30
170.73
192.34
202.55
201.93
190.84
169.85
140.57
106.14
70.83
38.64
12.10
-8.25
-23.04
-32.82
-36.92
-33.77
-22.24
-3.19
19.91
41.76
57.30
63.79
61.82
54.98
47.95
44.13
43.98
44.97
43.16
35.70
22.67
7.30
-5.67
-12.72
-13.38
-10.33
-7.41
-7.17
-9.38
-11.32
-9.70
-2.85
8.31
21.00
32.40
41.36
49.00
57.79
69.98
86.10
104.36
121.22
132.74
136.28
131.59
120.79
107.36
94.62
84.42
76.82
70.62
64.39
57.08
48.01
36.28
20.42
-1.20
-29.23
-62.19
-96.19
-125.98
-146.98
-157.10
-157.45
-151.60
-143.67
-136.42
-130.33
-123.86
-114.81
-101.85
-85.46
-67.63
-50.72
-36.21
-24.01
-12.96
-1.97
8.95
18.43
24.69
26.95
26.33
25.54
27.30
32.65
40.12
46.42
48.31
44.48
36.26
26.95
20.03
17.43
18.85
22.21
25.01
25.59
23.86
21.05
18.80
18.29
19.65
22.06
24.27
25.33
25.00
23.79
22.60
22.23
22.89
24.12
25.11
25.12
24.00
22.19
20.55
19.80
20.24
21.47
22.66
22.89
21.64
18.96
15.47
12.04
9.40
7.84
7.15
6.83
6.43
5.62
4.16
1.67
-2.49
-9.06
-18.39
-29.89
-41.86
-51.93
-57.75
-57.91
-52.35
-42.39
-30.09
-17.65
-6.86
1.21
6.36
9.25
11.28
14.20
19.60
28.36
40.20
53.49
65.51
73.19
74.19
67.87
55.78
41.23
27.99
18.77
13.98
11.72
8.74
2.21
-8.86
-23.11
-37.50
-48.82
-55.06
-55.98
-52.74
-47.02
-40.13
-32.60
-24.32
-15.16
-5.47
3.69
10.83
14.67
14.72
11.54
6.71
2.24
-0.20
0.08
2.46
5.24
6.40
4.57
-0.15
-6.14
-10.55
-10.51
-4.11
9.07
27.71
48.89
68.29
80.77
81.58
68.25
42.32
9.71
-20.76
-40.71
-45.57
-36.46
-19.32
-2.05
8.87
10.41
2.98
-11.04
-28.98
-48.55
-67.36
-82.36
-90.16
-88.33
-77.07
-60.00
-43.39
-34.24
-37.50
-54.11
-80.48
-109.62
-133.60
-146.19
-144.90
-131.56
-111.43
-90.79
-74.59
-64.87
-60.46
-58.33
-55.47
-50.42
-43.43
-35.49
-27.01
-17.49
-6.38
5.78
16.76
23.52
23.99
18.57
10.24
2.98
-0.22
1.32
6.41
13.39
21.76
32.38
46.51
64.12
83.00
99.37
109.54
111.80
106.92
97.66
87.26
77.99
70.62
64.81
59.97
56.02
53.43
52.68
53.65
55.36
56.21
54.65
49.70
41.27
30.09
17.50
5.14
-5.38
-12.99
-17.41
-19.23
-19.49
-19.06
-18.27
-17.01
-15.28
-13.69
-13.39
-15.39
-19.69
-24.83
-28.45
-28.51
-24.35
-17.10
-9.02
-2.26
2.16
4.66
6.61
9.33
13.22
17.54
20.81
21.72
19.83
15.74
10.77
6.29
3.14
1.37
0.45
-0.24
-1.06
-2.14
-3.71
-6.39
-10.82
-17.17
-24.88
-32.67
-38.87
-42.01
-41.46
-37.71
-32.33
-26.81
-22.05
-18.17
-14.74
-11.05
-6.41
-0.87
4.16
5.98
2.60
-5.89
-16.64
-25.02
-26.54
-19.06
-3.95
15.10
31.33
39.31
38.64
33.81
30.17
30.79
36.25
46.37
59.58
72.90
82.50
83.88
73.25
48.84
11.96
-33.53
-79.37
-114.94
-133.25
-133.93
-122.40
-105.50
-88.71
-75.34
-66.87
-63.21
-62.84
-64.29
-62.79
-53.68
-34.24
-5.83
26.44
56.08
78.07
90.29
93.38
90.24
81.78
69.96
56.17
41.31
26.54
13.47
3.49
-3.12
-6.99
-9.45
-11.35
-12.91
-13.57
-12.19
-7.80
-0.32
9.01
18.19
25.03
28.45
28.35
25.36
20.29
13.55
5.02
-5.54
-17.61
-29.54
-38.66
-42.60
-40.43
-33.23
-23.61
-14.43
-7.63
-3.62
-1.66
-0.70
-0.35
-1.05
-3.54
-8.13
-14.18
-20.30
-24.89
-26.86
-26.01
-22.87
-18.27
-12.86
-6.90
-0.28
7.15
15.37
24.05
32.71
40.84
48.06
54.30
59.82
65.18
71.13
78.21
86.41
94.86
102.07
106.46
107.20
104.62
100.01
94.83
89.81
84.48
77.49
67.55
54.35
38.83
22.80
7.96
-4.94
-16.14
-26.42
-36.23
-45.18
-52.17
-55.94
-55.75
-51.75
-44.96
-36.86
-29.06
-22.93
-19.38
-18.69
-20.48
-23.88
-27.75
-31.11
-33.46
-34.79
-35.41
-35.60
-35.45
-34.95
-34.18
-33.53
-33.48
-34.30
-35.77
-37.20
-37.69
-36.65
-34.03
-30.24
-25.84
-21.18
-16.26
-10.88
-4.89
1.54
7.93
13.60
17.90
20.34
20.63
18.70
14.79
9.44
3.45
-2.22
-6.67
-9.34
-9.98
-8.78
-6.13
-2.61
1.15
4.50
6.86
7.81
7.21
5.25
2.29
-1.37
-5.70
-10.96
-17.41
-24.99
-33.06
-40.52
-46.31
-49.89
-51.46
-51.74
-51.38
-50.43
-48.31
-44.14
-37.56
-29.18
-20.56
-13.58
-9.51
-8.39
-9.03
-9.62
-8.64
-5.66
-1.46
2.31
4.08
3.05
-0.45
-5.13
-9.44
-12.27
-13.48
-13.85
-14.68
-17.19
-21.91
-28.64
-36.84
-46.03
-55.84
-65.49
-73.19
-76.32
-72.53
-61.39
-45.46
-29.71
-19.42
-17.53
-23.16
-32.08
-39.03
-40.13
-34.17
-22.02
-5.17
15.49
39.69
66.89
95.52
123.22
148.09
169.76
189.59
209.63
231.01
252.75
271.72
283.74
285.04
273.51
249.01
213.06
168.12
116.99
62.38
6.71
-48.18
-101.50
-153.74
-206.53
-261.55
-318.91
-375.95
-427.02
-465.02
-483.79
-480.45
-456.34
-416.15
-365.92
-311.27
-256.70
-205.76
-161.40
-125.57
-98.19
-76.26
-54.29
-26.30
11.26
57.38
106.60
151.23
184.63
203.89
210.47
208.87
204.19
200.00
197.48
195.92
194.04
191.21
188.19
186.68
188.25
193.08
199.32
203.46
201.66
191.54
173.47
150.80
128.66
111.84
103.10
102.29
106.95
113.56
118.67
119.24
112.42
95.52
66.94
27.79
-16.97
-59.04
-89.44
-102.26
-97.38
-80.72
-61.34
-47.19
-41.78
-43.60
-48.36
-52.29
-54.23
-55.30
-57.06
-59.53
-60.85
-58.41
-50.81
-38.78
-24.79
-11.62
-1.04
6.58
11.80
15.18
16.88
16.76
14.90
11.92
8.86
6.73
6.12
6.96
8.65
10.35
11.35
11.26
10.00
7.67
4.28
-0.19
-5.63
-11.53
-16.90
-20.55
-21.70
-20.44
-17.77
-15.02
-13.24
-12.63
-12.63
-12.46
-11.66
-10.35
-9.07
-8.42
-8.75
-10.24
-13.00
-17.16
-22.78
-29.51
-36.53
-42.62
-46.52
-47.39
-45.06
-39.96
-32.93
-24.90
-16.76
-9.41
-3.78
-0.73
-0.79
-3.83
-8.91
-14.49
-18.92
-20.93
-20.04
-16.60
-11.54
-5.98
-0.91
3.03
5.64
7.15
8.14
9.35
11.38
14.45
18.28
22.17
25.40
27.56
28.71
29.19
29.33
29.11
28.22
26.29
23.30
19.74
16.47
14.30
13.47
13.56
13.63
12.79
10.62
7.41
3.96
1.06
-0.93
-2.29
-3.74
-6.01
-9.39
-13.65
-18.25
-22.78
-27.29
-32.17
-37.86
-44.44
-51.54
-58.52
-64.87
-70.41
-75.13
-78.83
-80.89
-80.48
-77.11
-71.10
-63.48
-55.54
-48.06
-40.83
-32.79
-22.66
-9.64
6.20
24.24
44.04
65.80
90.29
118.14
148.77
179.95
208.13
229.60
241.77
243.87
236.71
221.92
201.20
176.15
148.79
122.04
99.33
83.37
74.54
69.95
64.02
50.53
25.31
-11.70
-56.07
-100.39
-137.07
-160.80
-169.95
-166.40
-154.31
-138.32
-122.12
-108.05
-97.21
-90.02
-86.41
-85.84
-87.15
-88.69
-88.56
-85.19
-77.78
-66.67
-53.34
-39.75
-27.81
-18.68
-12.66
-8.90
-5.68
-1.06
6.29
16.05
26.92
37.07
44.98
49.27
49.75
47.68
45.53
45.90
49.56
56.47
65.55
75.05
81.47
81.54
73.40
57.71
37.78
17.52
2.54
-2.26
5.09
19.44
31.10
29.19
5.97
-40.27
-106.26
-181.55
-251.72
-302.26
-325.69
-321.10
-293.49
-251.49
-192.08
-123.22
-58.57
-16.01
7.36
17.67
21.76
23.31
24.65
27.31
30.17
33.07
36.64
42.38
48.78
54.06
57.25
58.88
60.36
61.52
62.58
63.95
66.34
68.38
68.75
66.99
63.85
60.66
57.61
55.06
53.36
53.00
53.04
52.45
50.56
47.36
43.23
38.23
32.82
27.67
23.66
20.76
18.54
16.36
13.69
10.33
6.27
1.90
-2.16
-5.29
-7.38
-8.64
-9.49
-10.27
-11.20
-12.35
-13.72
-15.36
-17.32
-19.68
-22.39
-25.19
-27.61
-29.10
-29.14
-27.50
-24.32
-20.02
-15.23
-10.51
-6.20
-2.46
0.69
3.25
5.18
6.36
6.71
6.32
5.45
4.50
3.79
3.46
3.36
3.22
2.75
1.92
1.01
0.45
0.64
1.66
3.27
4.97
6.29
6.98
7.11
6.92
6.64
6.39
6.06
5.45
4.34
2.65
0.40
-2.31
-5.36
-8.61
-11.99
-15.38
-18.73
-21.97
-25.11
-28.16
-31.04
-33.57
-35.39
-36.00
-34.89
-31.71
-26.46
-19.56
-11.83
-4.28
2.24
7.34
11.23
14.62
18.36
22.93
28.09
32.92
36.18
37.02
35.52
32.74
30.38
29.88
31.75
35.30
38.88
40.73
39.66
35.59
29.47
22.95
17.79
15.27
15.57
17.21
16.90
10.17
-7.06
-36.38
-75.30
-117.09
-152.46
-172.59
-172.31
-151.77
-116.06
-73.04
-30.43
6.43
35.49
57.53
74.71
89.05
101.23
110.20
113.72
109.40
95.94
74.03
46.20
15.97
-13.56
-40.79
-66.06
-91.05
-117.71
-147.05
-178.25
-208.53
-233.72
-249.62
-253.38
-244.58
-225.19
-198.54
-167.96
-135.60
-102.22
-67.75
-32.15
4.03
39.52
72.62
101.73
125.64
143.68
155.79
162.59
165.23
165.30
164.55
164.38
165.36
166.91
167.16
163.40
152.90
134.12
107.51
75.62
42.29
11.50
-13.77
-31.93
-42.57
-46.09
-43.49
-36.30
-26.55
-16.36
-7.27
0.18
6.39
12.13
17.73
22.88
26.85
29.07
29.54
28.76
27.37
25.77
24.00
21.93
19.55
17.04
14.69
12.69
10.93
8.99
6.19
1.87
-4.44
-12.79
-22.79
-33.59
-44.07
-53.13
-59.88
-63.69
-64.10
-60.73
-53.28
-41.69
-26.54
-9.20
8.37
24.22
36.95
46.09
51.92
55.06
56.03
54.92
51.57
45.90
38.42
30.27
22.94
17.63
14.81
14.22
14.90
15.71
15.97
15.82
16.10
17.83
21.49
26.63
32.27
36.80
38.42
35.92
29.39
20.33
11.17
4.29
1.20
2.84
8.45
15.88
22.73
27.75
31.26
34.63
39.42
46.50
57.14
71.09
86.21
98.73
104.94
102.44
91.25
74.32
57.13
47.63
51.00
66.76
88.38
107.03
115.19
109.49
91.15
54.77
3.20
-53.70
-105.25
-147.71
-183.32
-215.51
-244.08
-264.16
-270.06
-257.38
-227.65
-185.71
-141.55
-104.43
-79.12
-64.78
-56.53
-48.40
-34.72
-13.35
14.05
43.08
69.50
90.07
102.61
105.81
99.72
87.18
72.24
58.78
48.74
42.19
37.78
33.96
30.00
26.47
25.00
26.56
30.47
34.44
36.22
34.90
31.25
27.06
23.88
22.31
21.69
20.86
18.84
15.75
12.60
10.61
10.44
11.90
13.98
15.33
14.72
11.48
5.79
-1.48
-9.14
-16.12
-21.90
-26.83
-32.10
-39.24
-49.48
-63.25
-80.09
-98.74
-116.97
-131.54
-138.60
-134.65
-117.68
-88.43
-50.78
-11.19
23.01
46.03
55.52
52.81
41.77
27.13
13.07
2.65
-2.66
-2.85
0.83
6.05
9.41
6.87
-5.01
-26.40
-52.66
-75.82
-89.48
-92.36
-86.92
-76.29
-62.11
-44.49
-23.20
1.17
25.90
47.05
61.42
68.46
70.21
69.60
69.35
69.29
68.59
66.51
63.29
60.38
60.17
64.81
74.75
88.24
100.43
106.54
102.51
87.83
63.56
34.26
7.16
-10.59
-14.72
-5.43
13.32
35.27
54.53
67.77
73.17
71.11
63.11
50.78
35.14
16.78
-4.09
-27.10
-51.45
-75.54
-97.18
-114.58
-127.25
-136.17
-142.90
-148.42
-151.85
-150.58
-141.32
-122.03
-93.98
-62.09
-33.59
-15.18
-10.64
-19.68
-38.35
-60.38
-78.85
-87.83
-83.68
-66.02
-38.12
-6.68
19.75
33.32
29.71
10.03
-19.50
-50.16
-74.48
-89.19
-95.88
-99.18
-103.35
-109.65
-115.55
-116.11
-106.63
-85.25
-54.40
-20.18
9.88
29.70
36.71
32.58
22.05
10.49
1.66
-3.66
-7.46
-12.87
-22.22
-35.50
-50.25
-62.60
-68.89
-66.86
-56.20
-38.06
-14.31
13.20
42.83
73.25
103.17
130.96
154.90
173.52
186.09
192.90
195.08
193.93
190.15
183.52
173.22
158.56
139.72
118.00
95.53
74.62
57.45
45.78
41.17
45.03
58.34
80.97
110.86
143.73
173.57
193.97
199.68
187.74
158.01
113.32
59.36
4.26
-42.56
-72.41
-79.96
-65.21
-33.94
3.98
37.94
60.09
67.46
61.97
48.49
32.28
17.08
4.58
-4.78
-10.68
-12.22
-8.38
0.75
12.70
22.37
23.24
9.90
-19.21
-60.44
-105.89
-146.33
-174.74
-188.75
-190.68
-185.52
-177.98
-170.50
-162.92
-153.87
-142.56
-129.88
-118.16
-109.86
-106.14
-106.04
-106.87
-105.43
-99.44
-88.44
-73.88
-58.34
-44.43
-33.82
-26.82
-22.63
-19.92
-17.60
-15.19
-12.75
-10.58
-8.75
-6.98
-4.78
-1.81
1.80
5.39
8.00
8.73
7.10
3.20
-2.41
-8.88
-15.36
-21.14
-25.68
-28.71
-30.22
-30.59
-30.45
-30.58
-31.58
-33.56
-36.09
-38.28
-39.15
-38.03
-34.73
-29.63
-23.40
-16.68
-9.80
-2.61
5.44
15.04
26.55
39.70
53.46
66.29
76.63
83.43
86.36
85.78
82.39
76.99
70.22
62.72
55.08
47.91
41.64
36.39
31.85
27.49
22.75
17.35
11.38
5.23
-0.59
-5.65
-9.74
-12.98
-15.70
-18.42
-21.54
-25.25
-29.33
-33.19
-36.06
-37.22
-36.27
-33.17
-28.29
-22.15
-15.30
-8.19
-1.12
5.69
11.99
17.52
22.03
25.35
27.52
28.73
29.33
29.71
30.17
30.79
31.47
32.02
32.27
32.19
31.90
31.53
31.17
30.75
30.13
29.18
27.88
26.29
24.46
22.40
19.99
17.17
13.97
10.61
7.38
4.54
2.10
-0.09
-2.28
-4.65
-7.18
-9.70
-11.88
-13.44
-14.27
-14.46
-14.26
-14.03
-13.98
-14.15
-14.32
-14.17
-13.39
-11.86
-9.70
-7.15
-4.46
-1.74
1.05
3.94
6.92
9.76
12.17
13.90
14.95
15.64
16.47
17.92
20.18
23.08
26.08
28.60
30.19
30.71
30.30
29.18
27.58
25.61
23.36
20.95
18.60
16.55
14.98
13.85
12.93
11.86
10.29
8.08
5.30
2.17
-0.99
-3.92
-6.46
-8.59
-10.34
-11.76
-12.85
-13.63
-14.08
-14.28
-14.33
-14.37
-14.59
-15.11
-16.02
-17.20
-18.29
-18.66
-17.57
-14.55
-9.86
-4.75
-1.22
-1.18
-5.42
-13.10
-21.99
-29.37
-32.80
-30.46
-21.04
-3.67
21.58
52.99
86.73
117.47
139.95
150.90
150.13
140.29
125.31
108.65
92.13
76.01
59.93
43.87
28.60
15.50
5.93
0.57
-0.99
-0.19
1.04
1.11
-0.50
-3.17
-5.74
-7.56
-9.25
-12.65
-19.79
-31.69
-47.75
-66.05
-84.41
-101.37
-116.53
-130.12
-142.24
-152.41
-159.71
-163.51
-163.94
-161.95
-158.64
-154.37
-148.16
-137.99
-121.80
-98.86
-70.54
-40.08
-11.44
12.17
29.39
40.86
48.27
53.22
56.35
57.39
56.01
52.66
48.89
46.72
47.58
51.44
56.82
61.61
64.26
64.53
63.48
62.62
63.04
64.79
66.94
67.98
66.33
60.64
50.10
34.79
15.83
-4.51
-23.31
-37.85
-46.64
-49.93
-49.43
-47.39
-45.45
-44.01
-42.34
-39.39
-34.53
-27.99
-20.61
-13.20
-5.98
1.59
10.44
21.29
34.13
48.08
61.69
73.54
82.64
88.67
91.81
92.42
90.80
87.05
81.17
73.16
63.01
50.83
36.94
21.95
6.76
-7.49
-19.82
-29.62
-36.80
-41.59
-44.22
-44.69
-42.78
-38.32
-31.59
-23.48
-15.37
-8.68
-4.44
-2.96
-3.73
-5.67
-7.48
-8.11
-7.07
-4.64
-1.62
0.93
2.07
1.30
-1.31
-5.17
-9.30
-12.53
-13.73
-12.11
-7.50
-0.32
8.51
17.99
27.36
36.15
44.08
50.65
55.16
56.82
55.22
50.52
43.43
34.80
25.26
15.15
4.75
-5.23
-13.58
-18.82
-19.90
-16.81
-10.71
-3.49
3.12
8.20
11.93
15.17
18.97
23.93
30.14
37.39
45.47
54.43
64.63
76.40
89.70
103.90
117.81
130.07
139.64
146.33
150.98
155.14
160.44
167.81
177.05
186.80
194.91
199.08
197.42
188.76
172.80
150.10
121.90
89.79
55.38
19.82
-16.47
-53.72
-92.13
-131.07
-168.45
-200.89
-224.77
-237.56
-238.94
-230.97
-217.38
-202.09
-187.94
-176.08
-166.26
-157.73
-150.13
-143.83
-139.60
-137.88
-138.07
-138.40
-136.45
-130.20
-118.91
-103.69
-87.11
-72.10
-60.71
-53.40
-49.11
-46.06
-42.90
-39.37
-36.39
-35.45
-37.74
-43.41
-51.39
-59.73
-66.32
-69.78
-70.02
-68.34
-66.80
-67.30
-70.66
-76.27
-82.43
-87.28
-89.63
-89.24
-86.41
-81.42
-74.17
-64.63
-53.51
-42.68
-34.53
-30.77
-31.15
-33.27
-33.69
-29.61
-20.14
-6.33
10.00
27.62
46.42
66.79
88.30
108.88
125.15
133.64
132.38
121.83
104.82
85.65
68.54
56.22
48.91
44.23
37.98
25.68
4.38
-26.14
-63.37
-103.18
-141.42
-175.06
-202.33
-222.33
-234.56
-238.74
-235.22
-225.51
-212.36
-198.76
-186.66
-175.32
-161.92
-143.05
-116.36
-81.61
-40.68
3.11
46.78
88.55
129.47
171.26
214.46
257.17
295.46
324.91
342.02
346.16
339.11
326.16
312.38
300.40
289.76
278.44
265.01
249.16
232.83
218.25
209.49
208.79
215.56
226.61
238.14
247.48
253.03
255.30
239.02
195.87
128.72
51.40
-20.75
-79.01
-118.21
-144.58
-162.64
-175.05
-180.97
-179.90
-172.91
-162.68
-151.96
-142.13
-133.74
-125.89
-118.31
-109.70
-99.47
-88.01
-76.59
-66.62
-59.11
-55.33
-55.75
-60.55
-67.75
-74.29
-77.02
-74.01
-65.13
-51.94
-37.45
-24.47
-15.28
-10.53
-9.74
-11.87
-15.87
-20.63
-25.03
-27.99
-28.47
-26.04
-20.87
-13.84
-6.33
0.28
5.08
7.77
8.75
8.83
8.47
7.42
4.74
-0.54
-8.69
-18.68
-28.68
-36.30
-39.53
-37.65
-31.58
-23.60
-16.47
-12.53
-12.83
-17.23
-23.93
-30.18
-33.34
-31.93
-26.32
-18.21
-9.66
0.84
14.10
30.32
48.34
65.75
79.37
86.29
85.66
78.26
65.91
50.25
32.41
12.70
-9.11
-31.44
-51.72
-66.72
-73.96
-72.96
-66.06
-57.17
-50.05
-46.61
-46.20
-46.54
-45.20
-41.15
-35.11
-29.10
-24.85
-22.89
-22.48
-22.25
-21.25
-19.36
-17.35
-16.26
-16.93
-19.52
-23.57
-28.26
-32.65
-35.97
-37.67
-37.38
-34.91
-30.18
-23.31
-14.69
-4.96
5.04
14.56
22.89
29.48
34.11
37.03
38.90
40.43
42.12
44.07
46.23
48.00
48.42
46.67
42.79
37.96
33.99
32.47
33.94
37.83
41.95
43.38
40.24
33.27
25.70
21.51
23.16
30.62
42.38
55.95
68.94
79.78
87.63
91.45
89.05
77.55
51.66
12.33
-32.02
-69.93
-94.10
-104.31
-105.07
-101.47
-96.48
-90.05
-79.53
-62.71
-39.91
-14.19
10.26
30.22
44.69
54.05
59.77
64.02
67.82
70.49
70.39
66.59
59.97
53.05
48.72
48.95
53.92
61.48
67.05
66.44
57.72
42.21
23.75
6.71
-5.93
-13.54
-17.79
-21.23
-25.42
-29.97
-32.90
-32.01
-26.37
-16.78
-5.23
6.13
16.04
24.52
32.23
39.54
45.68
48.71
46.33
37.03
20.90
-0.29
-23.72
-46.59
-67.00
-84.07
-97.52
-106.90
-111.28
-109.60
-101.54
-88.26
-72.45
-57.57
-46.49
-40.35
-38.32
-38.22
-37.75
-35.65
-32.06
-28.17
-25.35
-24.23
-24.42
-24.76
-24.11
-21.96
-18.68
-15.25
-12.69
-11.57
-11.78
-12.73
-13.74
-14.42
-14.74
-14.91
-15.20
-15.72
-16.41
-17.04
-17.27
-16.59
-14.37
-9.95
-2.81
7.12
19.33
32.68
45.57
56.28
63.31
65.79
63.73
58.10
50.54
42.85
36.34
31.31
26.98
21.98
14.97
5.40
-6.21
-18.48
-29.67
-38.32
-43.54
-45.13
-43.35
-38.74
-31.96
-23.73
-14.82
-5.99
2.10
8.95
14.27
17.99
20.19
21.07
20.90
20.04
18.93
18.11
18.01
18.78
20.07
21.02
20.51
17.72
12.70
6.57
1.26
-1.30
-0.02
4.79
11.56
17.94
21.69
21.33
16.40
7.39
-4.62
-18.17
-31.60
-43.19
-51.49
-55.67
-55.74
-52.39
-46.67
-39.52
-31.64
-23.49
-15.53
-8.56
-3.65
-1.60
-2.39
-4.91
-7.36
-7.91
-5.48
0.12
7.46
13.77
16.04
12.29
2.26
-12.62
-29.84
-46.68
-60.29
-69.34
-74.37
-76.70
-77.33
-76.67
-74.84
-72.06
-68.89
-64.71
-59.55
-54.55
-50.91
-48.58
-45.91
-39.67
-25.67
-0.14
40.33
94.44
154.84
210.38
250.21
267.13
259.87
232.84
184.06
121.04
58.55
8.89
-26.28
-53.63
-80.03
-107.76
-131.38
-142.56
-133.27
-102.05
-55.72
-5.95
36.19
60.51
62.99
46.55
19.22
-8.17
-27.77
-37.08
-36.85
-28.55
-13.28
8.48
32.96
54.12
68.29
74.84
75.06
71.40
68.92
67.53
66.67
65.23
62.16
57.17
50.13
38.53
22.53
4.18
-13.58
-26.76
-32.17
-28.45
-16.41
1.00
19.93
37.97
54.66
70.86
88.25
107.37
127.23
146.00
162.14
175.31
186.35
195.56
201.14
199.53
186.39
158.86
117.52
66.60
12.40
-38.76
-83.11
-120.25
-152.09
-181.63
-211.84
-245.28
-284.04
-329.24
-379.82
-431.61
-477.35
-508.31
-517.37
-501.80
-464.37
-412.11
-353.37
-294.66
-239.17
-187.02
-136.79
-87.13
-37.33
12.73
62.91
112.81
161.29
206.06
243.91
271.68
287.25
290.57
283.69
270.02
253.19
235.93
219.53
203.91
188.13
171.10
152.12
131.23
109.13
87.04
66.46
48.77
35.03
25.63
20.18
17.68
16.83
16.49
16.02
15.36
14.95
15.32
16.77
19.17
21.99
24.48
25.83
25.46
23.28
19.78
15.84
12.38
10.06
9.04
9.10
9.52
9.49
8.53
6.59
3.83
0.30
-3.99
-8.97
-14.18
-19.21
-23.55
-26.32
-26.46
-23.41
-17.55
-10.25
-3.37
1.69
3.88
3.23
1.37
1.08
4.85
14.07
28.93
48.73
72.09
95.49
113.57
120.44
111.76
85.79
44.43
-6.97
-62.12
-109.48
-138.72
-147.33
-140.96
-127.73
-113.79
-102.01
-93.07
-86.52
-81.00
-75.21
-67.71
-58.22
-45.10
-28.57
-11.10
3.67
12.75
15.46
12.88
7.32
1.37
-2.84
-4.77
-5.21
-5.31
-5.71
-5.82
-4.81
-2.06
2.11
6.59
9.65
9.91
7.21
2.72
-1.45
-3.66
-2.78
1.49
9.40
21.35
37.94
59.65
84.04
106.08
119.67
122.38
116.18
106.02
96.85
91.66
90.50
90.49
86.72
73.88
51.36
19.84
-16.86
-53.15
-83.82
-106.06
-120.21
-123.87
-119.05
-106.81
-85.52
-51.86
-4.69
52.06
109.12
158.28
192.94
209.89
210.78
200.20
183.44
164.88
147.70
134.16
125.76
122.51
123.88
128.50
134.45
140.40
145.79
150.02
151.62
147.92
135.73
113.18
81.62
45.22
8.91
-24.29
-54.54
-84.28
-116.00
-150.43
-185.79
-218.50
-244.90
-262.81
-272.24
-275.00
-273.64
-270.24
-265.89
-260.46
-253.09
-242.67
-228.55
-210.88
-190.74
-169.77
-149.74
-132.20
-118.07
-107.64
-100.35
-95.09
-90.39
-85.02
-78.26
-70.10
-61.16
-52.24
-43.99
-36.73
-30.53
-25.34
-21.16
-17.98
-15.69
-14.09
-12.98
-12.47
-13.06
-15.56
-20.57
-27.94
-36.30
-43.05
-45.16
-40.24
-27.60
-8.77
13.00
33.90
50.91
62.59
69.01
71.03
69.39
64.45
56.51
46.45
36.09
27.77
23.41
23.58
27.19
32.06
36.05
37.90
37.54
35.76
33.51
31.37
29.40
27.38
25.18
23.04
21.51
21.30
22.83
25.98
30.04
33.78
35.99
35.89
33.47
29.52
25.26
21.77
19.53
18.32
17.43
16.16
14.16
11.55
8.69
5.80
2.78
-0.75
-5.07
-10.07
-15.09
-19.19
-21.62
-22.28
-21.83
-21.38
-21.89
-23.73
-26.55
-29.53
-31.86
-33.09
-33.19
-32.31
-30.48
-27.50
-23.07
-17.14
-10.12
-2.84
3.75
9.05
13.06
16.39
19.85
24.06
29.07
34.33
39.01
42.30
43.83
43.70
42.39
40.49
38.49
36.61
34.82
32.92
30.70
28.11
25.32
22.71
20.70
19.49
18.89
18.41
17.42
15.48
12.48
8.69
4.45
-0.03
-4.77
-9.90
-15.40
-20.91
-25.80
-29.24
-30.76
-30.52
-29.08
-27.08
-24.87
-22.42
-19.46
-15.84
-11.55
-7.10
-3.36
-1.27
-1.26
-3.08
-5.93
-8.75
-10.82
-11.60
-11.47
-11.54
-13.11
-16.79
-22.21
-28.25
-33.62
-37.64
-39.39
-39.34
-39.20
-40.92
-45.36
-51.99
-59.60
-66.78
-72.58
-73.79
-68.11
-54.97
-35.41
-11.10
15.73
41.74
63.54
78.03
87.84
96.38
105.93
117.64
132.91
153.47
180.01
212.92
251.30
298.76
355.75
416.96
472.23
511.38
527.66
518.76
488.39
412.04
287.18
134.06
-16.48
-143.53
-240.89
-306.10
-343.85
-353.64
-335.56
-288.74
-219.79
-143.26
-77.95
-37.54
-25.79
-38.08
-63.99
-93.29
-113.67
-118.40
-107.75
-86.74
-60.48
-31.96
-2.75
27.16
50.05
61.97
61.66
50.12
29.16
1.79
-27.54
-54.40
-75.51
-90.59
-99.38
-102.88
-102.99
-101.11
-97.35
-91.31
-83.34
-74.79
-67.80
-62.99
-60.29
-59.32
-59.58
-60.14
-59.36
-55.80
-48.42
-37.13
-22.57
-6.68
7.60
17.69
22.89
25.27
28.81
37.42
52.69
73.08
94.45
112.12
123.16
127.40
126.73
123.36
118.32
111.18
101.05
87.52
71.08
52.56
32.30
9.97
-14.74
-40.95
-66.25
-87.31
-101.21
-106.77
-104.90
-97.96
-88.67
-79.04
-69.85
-60.97
-52.06
-43.02
-34.07
-25.61
-17.75
-10.40
-3.19
4.38
12.57
20.94
28.58
34.48
38.06
39.78
40.55
41.63
44.00
47.77
51.36
52.41
48.87
39.94
26.92
11.54
-3.90
-16.99
-25.88
-30.84
-33.27
-34.65
-35.82
-35.73
-34.78
-33.58
-32.26
-30.28
-27.91
-24.73
-19.27
-9.53
6.99
27.37
45.74
55.72
52.45
31.92
-6.45
-59.14
-119.45
-177.91
-230.80
-278.33
-322.48
-348.38
-342.05
-297.48
-221.17
-141.22
-61.59
15.93
87.01
147.54
189.55
205.04
190.69
149.67
91.46
31.51
-18.01
-47.98
-53.23
-34.16
1.56
41.54
72.15
82.54
69.21
32.72
-20.20
-77.37
-124.72
-151.09
-150.71
-124.18
-77.02
-15.83
51.73
120.01
185.77
246.29
297.36
333.63
350.76
348.46
332.10
309.65
288.68
273.12
261.95
250.93
235.87
215.63
192.42
169.83
149.33
128.87
103.87
70.04
26.32
-23.98
-74.29
-117.48
-148.91
-167.96
-177.76
-183.23
-188.72
-196.30
-205.41
-213.72
-218.72
-219.05
-215.02
-208.14
-200.15
-192.10
-184.00
-175.11
-164.62
-152.35
-138.98
-125.76
-113.92
-104.04
-95.81
-88.27
-80.37
-71.61
-62.31
-53.41
-45.89
-40.19
-35.96
-32.17
-27.78
-22.22
-15.78
-9.37
-4.06
-0.50
1.39
2.34
3.33
4.97
7.26
9.61
11.31
11.96
11.79
11.57
12.21
14.30
17.83
22.25
26.81
30.97
34.52
37.59
40.44
43.14
45.57
47.38
48.31
48.25
47.40
46.15
44.89
43.85
42.97
41.97
40.55
38.56
36.11
33.47
30.90
28.44
25.89
22.89
19.22
14.93
10.46
6.45
3.51
1.93
1.53
1.74
1.79
0.99
-1.02
-4.22
-8.32
-12.91
-17.68
-22.45
-27.13
-31.62
-35.75
-39.29
-42.07
-44.08
-45.44
-46.38
-47.03
-47.26
-46.70
-44.78
-41.00
-35.19
-27.62
-18.93
-9.93
-1.27
6.77
14.21
21.22
27.88
33.94
39.00
42.61
44.56
45.02
44.42
43.29
42.10
41.02
39.97
38.66
36.73
33.84
29.88
25.06
19.87
14.97
10.84
7.52
4.53
0.93
-4.24
-11.59
-21.13
-32.15
-43.41
-53.53
-61.40
-66.34
-68.34
-68.30
-67.98
-69.92
-77.00
-91.74
-115.35
-146.92
-182.94
-217.82
-245.00
-258.64
-255.29
-234.49
-198.35
-150.28
-93.73
-31.82
32.14
93.85
147.89
189.01
214.17
224.20
223.87
219.88
217.87
219.82
223.57
224.25
216.89
198.88
171.10
137.31
102.37
70.39
43.64
22.48
6.20
-6.13
-15.01
-20.58
-23.05
-23.04
-21.70
-20.41
-20.26
-21.69
-24.44
-27.90
-31.38
-34.26
-35.98
-35.91
-33.58
-28.94
-22.62
-15.86
-10.06
-6.28
-4.97
-5.90
-8.56
-12.45
-17.27
-22.76
-28.43
-33.35
-36.24
-36.02
-32.34
-25.83
-17.94
-10.29
-4.15
-0.04
2.16
2.97
3.11
3.37
4.43
6.78
10.42
14.83
19.13
22.37
24.07
24.34
23.74
22.93
22.24
21.52
20.36
18.37
15.56
12.45
9.85
8.54
8.86
10.53
12.70
14.22
14.10
11.87
7.79
2.63
-2.69
-7.54
-11.80
-15.86
-20.31
-25.50
-31.24
-36.88
-41.58
-44.73
-46.07
-45.50
-42.92
-38.09
-30.82
-21.31
-10.50
-0.04
8.17
12.89
14.56
14.87
16.00
19.51
25.58
33.18
40.68
46.83
51.21
54.74
57.89
59.92
59.29
55.25
49.17
44.52
45.44
54.77
74.13
101.57
132.02
159.41
179.24
190.04
192.81
189.62
182.44
175.21
170.45
168.35
167.23
165.21
161.64
156.87
151.60
146.58
145.82
151.87
164.19
179.25
192.75
201.49
203.66
198.36
166.01
99.55
8.26
-86.19
-164.22
-217.56
-247.95
-262.22
-268.28
-273.13
-276.33
-274.91
-266.24
-249.43
-224.73
-192.85
-154.33
-112.29
-73.36
-41.73
-19.23
-6.10
-2.72
-9.67
-26.45
-50.51
-77.68
-102.92
-121.75
-131.34
-131.64
-124.87
-113.52
-99.21
-82.92
-66.10
-50.80
-37.43
-26.28
-17.02
-8.70
0.01
10.06
21.26
31.88
39.49
42.57
41.12
36.67
31.60
28.38
28.72
32.78
39.01
44.65
46.82
43.40
33.83
19.56
4.31
-6.40
-6.65
7.66
36.51
74.26
110.21
131.50
127.80
95.74
40.91
-23.84
-83.29
-125.59
-146.12
-147.96
-138.90
-127.34
-119.00
-115.95
-117.54
-122.10
-128.00
-133.63
-136.86
-134.91
-125.27
-107.02
-81.69
-53.09
-25.86
-4.02
10.32
17.24
18.49
16.61
14.05
12.56
12.89
14.74
17.07
18.63
18.64
17.21
15.35
14.49
15.76
19.51
25.17
31.66
38.02
43.79
49.12
54.34
59.58
64.47
68.33
70.65
71.51
71.80
72.92
76.08
81.71
89.07
96.37
101.24
101.46
95.60
83.60
67.17
49.77
35.94
30.02
34.55
49.10
69.96
91.03
105.52
107.90
95.41
68.58
30.81
-12.73
-56.39
-95.13
-125.27
-144.78
-153.25
-151.69
-142.20
-127.63
-111.19
-95.90
-84.12
-76.96
-74.14
-74.13
-74.76
-73.93
-70.27
-63.45
-54.06
-43.29
-32.52
-22.94
-15.28
-9.59
-5.41
-2.22
0.41
2.84
5.52
8.90
13.25
18.51
24.31
30.02
34.53
36.87
36.90
35.63
34.79
35.78
39.14
44.51
50.88
56.45
59.60
59.81
58.24
57.10
58.64
64.34
74.19
86.21
95.46
95.42
80.63
49.15
3.47
-50.44
-105.18
-154.32
-188.93
-201.97
-193.54
-171.71
-146.78
-125.23
-108.98
-97.34
-88.45
-79.58
-70.12
-57.18
-37.86
-10.43
24.86
65.46
107.32
146.11
178.12
200.26
206.29
194.46
167.88
133.64
100.23
74.58
60.06
56.11
59.02
64.48
69.69
73.45
75.42
74.96
70.75
61.41
46.35
26.07
2.32
-21.96
-43.98
-61.98
-75.65
-85.91
-94.12
-101.23
-107.36
-111.82
-113.38
-111.24
-105.45
-96.89
-86.89
-76.71
-67.20
-58.86
-51.92
-46.37
-42.09
-38.70
-35.65
-32.37
-28.48
-23.88
-18.69
-13.06
-6.99
-0.42
6.60
13.81
20.71
26.68
31.24
34.18
35.64
36.00
35.71
35.13
34.45
33.70
32.76
31.44
29.57
27.07
23.98
20.49
16.83
13.16
9.46
5.56
1.30
-3.32
-8.04
-12.45
-16.17
-19.08
-21.29
-23.06
-24.60
-25.96
-27.01
-27.66
-27.92
-27.98
-28.10
-28.51
-29.22
-30.13
-31.05
-31.83
-32.40
-32.70
-32.63
-31.95
-30.28
-27.29
-22.89
-17.28
-11.04
-4.84
0.76
5.57
9.70
13.53
17.29
21.02
24.53
27.51
29.73
31.12
31.74
31.71
31.16
30.19
28.91
27.46
25.96
24.51
23.14
21.89
20.77
19.87
19.27
19.01
19.01
19.11
19.10
18.86
18.32
17.45
16.16
14.24
11.45
7.61
2.73
-2.89
-8.80
-14.44
-19.45
-23.68
-27.30
-30.56
-33.66
-36.58
-39.00
-40.44
-40.36
-38.49
-34.90
-30.06
-24.59
-18.98
-13.48
-7.95
-2.20
3.84
9.89
15.41
19.83
22.88
24.74
25.94
27.03
28.25
29.37
29.89
29.35
27.68
25.32
23.00
21.40
20.80
20.93
21.18
20.87
19.60
17.36
14.45
11.26
8.05
4.87
1.64
-1.75
-5.27
-8.76
-11.99
-14.79
-17.13
-19.09
-20.82
-22.44
-23.97
-25.37
-26.57
-27.52
-28.14
-28.30
-27.77
-26.29
-23.66
-19.84
-15.04
-9.63
-4.08
1.23
6.09
10.44
14.39
18.05
21.52
24.80
27.74
30.13
31.74
32.46
32.35
31.66
30.71
29.78
28.96
28.13
27.04
25.47
23.35
20.83
18.19
15.68
13.35
11.10
8.69
5.95
2.91
-0.20
-3.04
-5.34
-7.05
-8.40
-9.73
-11.37
-13.47
-15.90
-18.35
-20.50
-22.15
-23.35
-24.37
-25.57
-27.15
-29.11
-31.12
-32.63
-33.08
-32.06
-29.46
-25.49
-20.63
-15.33
-9.99
-4.70
0.53
5.76
10.87
15.59
19.54
22.42
24.18
25.00
25.18
24.95
24.35
23.24
21.43
18.91
15.88
12.72
9.85
7.49
5.64
4.08
2.56
0.91
-0.80
-2.38
-3.60
-4.40
-4.90
-5.32
-5.87
-6.59
-7.39
-8.11
-8.77
-9.56
-10.74
-12.50
-14.69
-16.97
-18.91
-20.38
-21.65
-23.36
-26.11
-30.20
-35.30
-40.53
-44.78
-47.13
-47.17
-45.20
-42.06
-38.92
-36.78
-36.05
-36.20
-35.70
-32.36
-24.09
-9.67
10.66
35.16
61.03
85.23
105.18
119.19
126.52
127.32
122.31
112.64
99.61
84.46
68.26
51.90
36.22
22.11
10.61
2.74
-0.81
-0.07
4.02
9.79
15.13
17.91
16.38
9.54
-2.54
-18.52
-36.04
-52.24
-64.56
-71.44
-72.92
-70.63
-67.11
-64.74
-64.82
-67.17
-70.20
-71.65
-69.20
-61.72
-49.96
-36.23
-23.29
-13.32
-7.38
-5.15
-5.11
-4.44
-0.41
8.43
21.97
39.07
58.13
77.33
95.20
110.80
124.20
135.05
141.53
140.84
131.09
112.19
85.70
55.05
25.19
2.80
-6.21
0.71
21.57
50.61
79.58
99.74
105.20
86.98
44.89
-8.67
-56.07
-87.50
-104.86
-116.24
-128.96
-146.24
-163.73
-173.73
-169.84
-150.11
-117.54
-78.00
-35.55
0.27
22.09
29.14
26.69
20.22
10.93
-3.80
-24.98
-51.55
-77.87
-95.88
-99.99
-90.30
-72.72
-55.95
-47.10
-47.89
-55.11
-62.31
-62.31
-50.25
-25.01
10.98
52.77
94.42
130.61
157.58
174.17
182.35
186.35
190.48
196.64
202.83
203.57
192.27
164.24
119.06
60.99
-2.65
-63.95
-116.14
-154.18
-174.80
-176.62
-160.73
-131.06
-93.95
-56.59
-24.80
-1.22
15.10
27.63
40.44
56.65
77.80
103.91
133.97
166.31
199.20
231.23
261.51
289.35
313.62
332.06
341.30
337.79
319.32
286.34
242.17
191.90
140.48
91.16
44.94
1.25
-40.89
-82.14
-122.80
-163.57
-205.99
-251.96
-302.28
-355.15
-405.68
-446.93
-472.35
-478.32
-465.52
-438.33
-402.92
-364.81
-327.64
-293.04
-261.66
-234.20
-211.66
-194.82
-183.47
-176.19
-170.88
-165.83
-160.38
-154.99
-150.60
-147.71
-145.85
-143.58
-139.12
-131.05
-118.96
-103.42
-85.57
-66.56
-47.00
-26.92
-5.96
16.15
39.31
62.95
86.08
107.62
126.51
142.04
153.80
161.76
166.08
167.06
165.04
160.49
153.94
146.16
138.05
130.56
124.41
119.82
116.44
113.46
109.92
105.19
99.06
91.77
83.74
75.37
66.98
58.80
51.12
44.29
38.63
34.21
30.89
28.21
25.67
22.79
19.27
15.02
10.09
4.72
-0.74
-5.77
-9.83
-12.43
-13.26
-12.25
-9.53
-5.33
0.06
6.26
12.80
19.14
24.88
29.89
34.38
38.66
42.89
46.78
49.68
50.89
50.12
47.77
44.83
42.38
40.98
40.45
40.06
39.03
37.10
34.67
32.48
31.10
30.53
30.23
29.44
27.68
24.93
21.65
18.37
15.34
12.36
8.91
4.47
-1.06
-7.27
-13.35
-18.26
-21.14
-21.42
-18.96
-14.02
-7.26
0.47
8.15
14.83
19.80
22.82
24.23
24.81
25.36
26.29
27.35
27.86
27.21
25.43
23.28
21.90
22.11
23.80
25.83
26.70
25.41
21.98
17.54
13.76
11.82
11.97
13.68
16.23
19.29
22.96
27.26
31.81
35.86
38.48
39.14
38.03
35.96
34.00
32.85
32.14
31.05
28.94
25.76
22.14
19.25
18.22
19.96
24.49
29.92
33.94
35.08
32.77
27.52
20.54
13.07
6.62
2.27
-1.17
-4.90
-8.79
-12.59
-16.09
-19.07
-21.23
-20.54
-14.29
-3.06
11.48
27.62
41.67
48.77
44.62
27.69
2.12
-23.29
-41.36
-45.50
-30.13
5.65
58.67
123.50
184.19
223.45
249.49
265.47
260.97
231.69
179.68
113.99
48.15
-4.97
-36.60
-45.78
-42.21
-37.85
-39.81
-49.83
-64.82
-79.75
-90.62
-94.71
-90.78
-81.11
-67.48
-49.73
-28.96
-8.40
7.00
12.52
6.47
-9.30
-32.42
-60.25
-90.76
-124.08
-161.00
-200.79
-239.85
-272.00
-291.06
-294.69
-284.86
-266.66
-246.44
-229.00
-215.89
-205.66
-195.47
-183.22
-169.06
-154.71
-141.72
-130.14
-118.01
-102.29
-80.70
-53.28
-22.83
6.16
29.46
45.03
53.75
58.67
63.22
69.41
76.98
83.86
87.60
86.80
81.78
74.27
66.45
59.88
55.07
51.60
48.70
45.86
43.03
40.60
38.99
38.46
38.97
40.20
41.75
43.21
44.30
44.92
45.19
45.42
45.99
47.20
49.09
51.36
53.30
54.07
52.94
49.60
44.29
37.65
30.46
23.38
16.76
10.70
5.19
0.23
-4.15
-7.86
-10.88
-13.28
-15.22
-16.89
-18.54
-20.42
-22.74
-25.60
-28.78
-31.75
-33.77
-34.13
-32.52
-29.11
-24.59
-19.87
-15.76
-12.77
-11.07
-10.66
-11.42
-13.23
-15.89
-19.02
-22.15
-24.68
-26.10
-26.05
-24.28
-20.71
-15.39
-8.56
-0.75
7.30
14.73
20.83
25.26
28.12
29.90
31.17
32.35
33.52
34.48
34.95
34.77
34.02
32.94
31.79
30.66
29.40
27.79
25.66
23.09
20.41
18.09
16.57
16.08
16.61
17.93
19.60
21.09
21.91
21.76
20.67
18.90
16.85
14.76
12.57
9.94
6.54
2.27
-2.61
-7.57
-12.10
-15.96
-19.22
-22.13
-24.83
-27.13
-28.59
-28.69
-27.09
-23.83
-19.31
-14.16
-8.96
-4.05
0.52
4.87
9.07
13.00
16.29
18.53
19.48
19.30
18.45
17.54
16.95
16.68
16.35
15.43
13.60
10.93
7.90
5.14
3.17
2.18
2.03
2.36
2.79
3.07
3.05
2.66
1.85
0.61
-1.00
-2.79
-4.37
-5.28
-5.13
-3.74
-1.30
1.63
4.18
5.42
4.61
1.54
-3.41
-9.34
-15.13
-19.80
-22.83
-24.19
-24.15
-22.99
-20.85
-17.66
-13.29
-7.85
-1.70
4.53
10.13
14.53
17.36
18.54
18.19
16.56
14.00
10.95
7.85
5.03
2.48
-0.18
-3.66
-8.67
-15.50
-23.75
-32.26
-39.48
-43.98
-45.01
-42.74
-38.22
-32.95
-28.35
-25.35
-24.21
-24.62
-25.95
-27.51
-28.74
-29.24
-28.72
-26.99
-23.93
-19.60
-14.32
-8.68
-3.45
0.65
3.23
4.37
4.59
4.62
4.98
5.83
6.91
7.79
8.26
8.54
9.18
10.75
13.50
17.12
20.87
23.93
25.75
26.28
25.84
24.96
24.09
23.46
23.14
23.02
23.04
23.14
23.32
23.58
23.89
24.16
24.16
23.63
22.32
20.18
17.36
14.24
11.26
8.78
6.88
5.39
3.97
2.31
0.34
-1.82
-3.95
-5.97
-8.00
-10.35
-13.29
-16.75
-20.26
-23.05
-24.39
-23.92
-21.83
-18.79
-15.55
-12.63
-10.13
-7.79
-5.28
-2.41
0.72
3.79
6.47
8.61
10.26
11.64
13.00
14.44
15.87
17.09
17.87
18.15
18.07
17.87
17.83
18.07
18.46
18.73
18.60
17.92
16.86
15.72
14.82
14.26
13.87
13.24
11.93
9.71
6.62
3.00
-0.71
-4.15
-7.18
-9.92
-12.64
-15.67
-19.13
-22.95
-26.76
-30.06
-32.35
-33.30
-32.80
-30.93
-27.88
-23.88
-19.14
-13.85
-8.25
-2.61
2.74
7.50
11.48
14.60
16.93
18.57
19.67
20.35
20.72
20.89
20.98
21.10
21.31
21.68
22.17
22.74
23.27
23.68
23.91
23.92
23.69
23.11
22.03
20.20
17.45
13.75
9.30
4.48
-0.30
-4.76
-8.86
-12.77
-16.74
-20.98
-25.61
-30.57
-35.72
-40.79
-45.44
-49.26
-51.85
-52.88
-52.23
-49.98
-46.37
-41.78
-36.61
-31.28
-26.23
-21.82
-18.28
-15.63
-13.63
-11.84
-9.81
-7.25
-4.17
-0.87
2.22
4.73
6.50
7.58
8.20
8.55
8.77
8.84
8.72
8.40
8.03
7.80
7.83
8.11
8.39
8.36
7.76
6.57
4.93
3.08
1.14
-0.97
-3.44
-6.48
-10.03
-13.84
-17.53
-20.78
-23.58
-26.15
-28.78
-31.58
-34.32
-36.42
-37.21
-36.15
-33.16
-28.63
-23.28
-17.89
-12.92
-8.44
-4.16
0.35
5.38
10.88
16.53
21.88
26.56
30.37
33.25
35.21
36.20
36.12
34.97
32.88
30.22
27.45
25.07
23.37
22.44
22.07
21.90
21.52
20.59
18.98
16.73
14.07
11.28
8.62
6.29
4.40
3.00
2.16
1.84
1.89
2.02
1.80
0.85
-1.02
-3.60
-6.43
-8.94
-10.75
-11.84
-12.53
-13.19
-13.97
-14.54
-14.25
-12.42
-8.70
-3.31
2.96
9.10
14.21
17.83
19.98
21.06
21.58
21.98
22.40
22.71
22.58
21.64
19.74
16.99
13.78
10.66
8.09
6.30
5.19
4.48
3.87
3.26
2.75
2.57
2.84
3.45
4.09
4.41
4.27
3.81
3.35
3.17
3.28
3.35
2.91
1.62
-0.58
-3.36
-6.24
-8.89
-11.23
-13.46
-15.89
-18.63
-21.48
-23.99
-25.60
-25.92
-24.86
-22.72
-19.94
-16.93
-13.90
-10.79
-7.44
-3.79
0.04
3.67
6.67
8.76
10.00
10.70
11.29
12.05
13.02
13.96
14.54
14.58
14.12
13.41
12.82
12.56
12.63
12.78
12.62
11.82
10.25
8.05
5.53
3.07
0.85
-1.16
-3.17
-5.41
-7.90
-10.45
-12.72
-14.42
-15.57
-16.49
-17.65
-19.45
-22.01
-25.09
-28.27
-31.15
-33.52
-35.37
-36.71
-37.45
-37.32
-35.95
-33.09
-28.76
-23.28
-17.16
-10.95
-5.01
0.48
5.51
10.11
14.28
17.93
20.89
23.01
24.23
24.64
24.44
23.97
23.58
23.48
23.68
23.98
24.08
23.76
22.98
21.93
20.86
19.95
19.17
18.35
17.31
16.04
14.67
13.42
12.38
11.38
10.05
7.93
4.76
0.60
-4.20
-9.09
-13.61
-17.54
-20.97
-24.24
-27.69
-31.46
-35.33
-38.69
-40.78
-40.98
-39.09
-35.40
-30.49
-24.92
-19.05
-12.97
-6.69
-0.34
5.69
10.86
14.72
17.15
18.39
18.98
19.41
19.95
20.52
20.84
20.59
19.66
18.26
16.78
15.69
15.28
15.50
16.08
16.61
16.82
16.61
16.09
15.45
14.78
14.07
13.21
12.13
10.90
9.64
8.45
7.34
6.15
4.63
2.59
-0.01
-3.03
-6.28
-9.54
-12.68
-15.60
-18.18
-20.22
-21.45
-21.58
-20.39
-17.86
-14.17
-9.69
-4.93
-0.35
3.73
7.19
10.12
12.66
14.91
16.82
18.16
18.68
18.22
16.86
14.88
12.67
10.55
8.66
6.98
5.36
3.69
1.95
0.25
-1.28
-2.56
-3.64
-4.72
-6.04
-7.74
-9.76
-11.88
-13.82
-15.49
-17.04
-18.89
-21.51
-25.17
-29.74
-34.69
-39.28
-42.90
-45.29
-46.64
-47.41
-48.05
-48.67
-49.01
-48.50
-46.56
-42.94
-37.81
-31.70
-25.27
-18.97
-12.91
-6.93
-0.86
5.27
11.15
16.28
20.33
23.25
25.36
27.15
29.00
30.93
32.65
33.74
33.96
33.41
32.47
31.63
31.20
31.16
31.18
30.82
29.75
27.91
25.57
23.16
21.09
19.52
18.27
16.94
15.11
12.58
9.48
6.19
3.15
0.60
-1.53
-3.57
-5.89
-8.65
-11.75
-14.87
-17.70
-20.08
-22.09
-23.86
-25.43
-26.58
-26.86
-25.81
-23.14
-18.93
-13.58
-7.71
-1.85
3.68
8.88
13.88
18.77
23.48
27.69
30.96
32.91
33.46
32.83
31.53
30.09
28.86
27.86
26.81
25.35
23.28
20.74
18.13
15.93
14.41
13.43
12.55
11.27
9.28
6.66
3.81
1.14
-1.15
-3.19
-5.35
-7.94
-10.99
-14.19
-17.01
-18.99
-19.90
-19.91
-19.44
-18.96
-18.78
-18.96
-19.32
-19.56
-19.47
-18.96
-18.11
-17.08
-15.97
-14.79
-13.40
-11.67
-9.56
-7.23
-5.08
-3.53
-2.93
-3.34
-4.58
-6.30
-8.13
-9.81
-11.25
-12.49
-13.65
-14.83
-16.16
-17.70
-19.49
-21.42
-23.27
-24.59
-24.95
-24.19
-22.56
-20.77
-19.80
-20.61
-23.75
-28.78
-33.99
-36.88
-35.06
-27.26
-13.89
3.07
20.78
36.26
47.23
52.57
52.06
46.19
36.03
23.40
10.49
-0.73
-9.34
-15.71
-20.54
-24.85
-29.65
-35.41
-41.43
-45.99
-46.81
-42.18
-31.33
-13.78
8.95
32.80
52.39
63.81
66.59
63.63
59.00
56.31
59.16
68.15
80.43
91.00
95.81
93.22
83.65
67.81
47.67
30.23
24.11
35.72
66.13
110.58
159.87
202.85
228.76
217.31
162.83
80.77
-2.66
-70.60
-120.60
-160.36
-191.36
-210.12
-212.14
-189.72
-142.56
-79.68
-15.64
30.88
48.05
37.77
11.65
-17.48
-40.12
-54.51
-65.03
-78.88
-98.95
-121.98
-141.19
-151.45
-151.54
-142.78
-126.64
-106.98
-87.43
-69.61
-52.81
-35.85
-19.29
-5.35
4.17
8.68
8.85
6.93
6.42
11.17
23.86
44.39
69.91
96.23
119.09
135.08
142.70
142.55
136.63
127.27
116.06
103.91
91.63
80.49
72.08
68.00
69.11
74.96
83.78
92.90
99.42
101.08
96.89
87.53
75.59
65.14
60.39
63.91
74.90
88.70
97.71
93.89
71.65
30.05
-26.51
-89.47
-148.43
-193.82
-219.21
-222.62
-206.75
-178.11
-145.10
-115.63
-94.89
-84.28
-81.87
-84.03
-87.40
-90.16
-91.99
-93.21
-93.83
-93.18
-90.31
-84.81
-77.29
-69.28
-62.50
-58.24
-56.90
-58.02
-60.57
-63.16
-64.03
-61.24
-53.00
-38.39
-18.00
5.94
30.08
51.08
66.60
75.79
79.18
78.08
74.01
68.47
63.06
59.39
58.78
61.72
67.41
73.88
78.52
79.12
74.67
65.79
54.17
41.97
31.13
23.01
18.36
17.37
19.73
24.76
31.76
39.84
47.98
55.09
60.01
61.74
59.57
53.47
44.24
33.84
24.59
18.34
15.89
16.70
19.20
21.40
21.59
18.98
14.40
9.38
5.57
4.06
4.92
7.31
9.75
10.56
5.97
-5.54
-22.57
-41.35
-57.93
-69.95
-76.40
-77.20
-72.97
-65.14
-55.61
-47.01
-42.03
-41.09
-42.96
-44.65
-42.30
-32.83
-15.28
9.15
36.59
61.13
78.74
88.20
90.29
85.86
74.71
55.95
29.90
-0.91
-31.41
-55.72
-70.28
-74.13
-69.07
-58.83
-47.48
-37.86
-31.14
-26.61
-22.49
-17.32
-11.63
-6.65
-3.65
-3.36
-5.62
-9.64
-13.85
-15.25
-11.25
0.28
20.84
50.54
87.01
124.82
152.01
157.21
135.44
89.80
30.71
-28.49
-76.83
-108.84
-124.12
-125.14
-117.17
-101.07
-79.42
-57.61
-42.58
-39.72
-49.30
-65.05
-76.88
-75.38
-56.17
-22.44
18.01
57.42
91.39
117.86
137.70
152.25
161.47
163.81
156.63
139.18
114.38
88.62
69.40
62.77
70.85
91.48
119.57
148.54
172.27
186.08
186.81
172.91
144.77
104.89
57.60
8.33
-38.12
-78.73
-112.52
-139.93
-161.47
-176.70
-184.61
-184.77
-178.37
-168.51
-159.19
-153.72
-153.42
-157.23
-162.53
-166.80
-168.80
-168.78
-167.77
-166.57
-165.16
-162.85
-158.87
-153.01
-145.77
-138.20
-131.36
-125.93
-122.09
-119.49
-117.55
-115.69
-113.57
-111.21
-109.13
-108.12
-109.02
-112.37
-118.24
-126.26
-135.90
-146.76
-158.43
-170.13
-180.16
-185.78
-183.92
-172.22
-150.18
-119.49
-83.23
-44.41
-4.86
34.87
74.66
113.63
149.52
179.19
200.13
211.84
216.32
217.03
217.27
219.07
222.91
228.32
234.49
240.38
244.39
244.36
237.71
222.48
198.77
169.53
139.89
115.16
98.84
91.32
90.72
93.23
94.47
91.19
82.58
70.29
57.34
46.90
40.99
41.62
48.79
60.40
73.60
86.63
99.34
112.07
124.70
135.66
144.85
151.23
152.74
147.67
136.85
123.55
111.70
104.58
103.82
112.99
133.64
163.16
194.99
221.65
237.10
237.66
222.81
174.14
89.87
-13.53
-112.89
-194.64
-256.79
-300.31
-327.15
-334.68
-320.86
-285.08
-232.49
-172.95
-120.66
-88.03
-80.51
-92.86
-112.42
-125.74
-129.30
-125.87
-120.94
-119.48
-121.97
-125.20
-125.29
-120.25
-110.97
-98.28
-82.15
-62.87
-42.01
-21.39
-2.61
13.09
25.02
32.79
37.10
39.44
40.70
41.01
41.09
42.56
47.03
54.87
64.31
72.48
77.17
77.41
73.79
68.28
63.24
60.09
58.74
58.03
56.87
54.83
51.72
47.23
41.04
33.39
25.14
17.75
12.97
12.36
15.79
20.25
20.77
12.90
-4.21
-27.73
-52.55
-73.73
-88.12
-96.07
-101.31
-108.16
-118.42
-129.13
-135.40
-133.29
-121.41
-99.84
-69.36
-31.31
12.42
59.04
105.26
145.22
171.97
173.90
146.68
100.00
52.44
20.13
1.88
-8.49
-17.40
-28.14
-40.80
-52.39
-58.83
-58.14
-51.52
-42.51
-34.32
-30.49
-33.68
-43.05
-55.74
-66.81
-72.68
-73.55
-72.07
-69.30
-63.76
-54.07
-34.68
-2.45
41.41
91.13
138.92
178.52
208.29
226.14
232.22
227.88
214.50
194.41
171.05
148.74
131.55
121.98
119.60
122.04
126.42
130.42
133.01
133.33
129.46
118.44
97.63
66.52
28.21
-11.86
-49.05
-81.68
-111.65
-142.62
-176.87
-213.11
-246.65
-271.52
-283.75
-283.58
-274.95
-263.19
-252.42
-244.06
-237.14
-229.91
-221.29
-211.60
-202.19
-194.15
-187.46
-180.81
-172.45
-161.18
-147.05
-131.35
-116.05
-103.00
-93.22
-86.72
-82.63
-79.67
-76.78
-73.62
-70.82
-69.81
-72.18
-78.77
-89.03
-100.92
-111.57
-118.38
-119.91
-115.99
-107.29
-94.46
-77.52
-55.92
-28.94
3.82
42.25
85.74
133.07
182.17
229.78
271.72
303.79
323.20
329.60
325.19
313.67
298.67
282.54
266.08
249.25
232.07
215.19
199.68
186.46
175.74
166.94
158.79
149.63
137.50
120.48
97.24
67.73
33.57
-2.06
-35.35
-63.03
-83.19
-95.45
-100.51
-99.55
-93.79
-84.59
-73.49
-62.25
-52.48
-45.16
-40.37
-37.35
-34.83
-31.52
-26.42
-19.07
-9.68
0.77
10.70
18.38
22.51
22.78
19.99
15.62
11.17
7.50
4.59
1.83
-1.41
-5.33
-9.50
-13.10
-15.27
-15.51
-13.85
-10.74
-6.85
-2.72
1.39
5.67
10.52
16.26
22.82
29.60
35.56
39.61
41.00
39.50
35.44
29.42
22.11
14.13
6.05
-1.52
-7.97
-12.94
-16.47
-19.04
-21.41
-24.14
-27.30
-30.36
-32.50
-33.12
-32.32
-30.89
-29.99
-30.53
-32.60
-35.44
-37.73
-38.30
-36.70
-33.46
-29.74
-26.80
-25.32
-25.14
-25.36
-24.90
-23.00
-19.64
-15.51
-11.67
-8.97
-7.62
-6.91
-5.55
-2.13
4.20
13.21
23.58
33.26
40.31
43.74
44.03
42.94
42.70
44.87
49.30
54.05
56.09
52.56
41.93
24.49
2.11
-22.05
-43.76
-57.81
-58.83
-43.18
-11.44
29.90
69.30
93.77
94.18
69.27
26.37
-21.91
-63.12
-89.80
-101.09
-101.18
-95.85
-89.62
-84.68
-81.68
-80.88
-82.74
-87.57
-94.62
-101.72
-105.73
-103.51
-93.37
-75.70
-52.91
-28.57
-6.12
12.31
26.39
37.39
47.21
57.28
67.75
77.41
84.33
86.86
84.45
77.94
69.25
60.55
53.51
48.82
46.13
44.34
42.12
38.42
32.79
25.48
17.31
9.23
1.99
-4.16
-9.48
-14.48
-19.68
-25.30
-31.32
-37.60
-44.13
-51.12
-58.93
-67.78
-77.50
-87.38
-96.35
-103.28
-107.30
-108.14
-106.09
-101.89
-96.40
-90.31
-83.99
-77.45
-70.51
-63.02
-54.98
-46.43
-37.33
-27.36
-16.08
-3.15
11.53
27.76
45.44
64.77
86.27
110.35
136.57
163.19
187.35
205.91
216.74
219.63
216.44
210.38
204.84
202.34
203.90
208.83
215.01
219.26
218.05
208.18
187.75
156.83
117.49
73.05
26.87
-18.55
-61.81
-102.07
-138.36
-169.27
-193.29
-209.62
-218.72
-222.23
-222.30
-220.65
-218.04
-214.35
-209.11
-202.06
-193.34
-183.24
-171.81
-158.73
-143.58
-126.48
-108.69
-92.75
-81.91
-78.95
-84.89
-98.08
-114.39
-128.20
-134.03
-128.02
-108.84
-77.84
-38.56
4.17
45.15
79.78
105.02
119.92
125.74
125.36
122.15
118.94
117.28
117.35
118.28
118.68
117.24
113.19
106.71
98.95
91.74
86.83
85.00
85.67
87.19
87.84
86.58
83.42
79.07
74.27
69.17
63.30
56.12
47.63
38.54
29.62
20.84
10.78
-2.61
-21.31
-45.91
-74.71
-103.76
-127.21
-138.70
-132.88
-106.78
-60.78
0.40
67.85
130.19
176.27
199.03
196.50
170.90
126.79
70.66
9.50
-49.01
-96.11
-123.19
-122.35
-90.98
-34.46
34.55
101.31
152.63
179.99
180.61
155.98
113.77
64.12
17.39
-17.28
-31.67
-21.57
11.54
61.04
116.81
172.64
225.82
275.70
309.06
314.10
286.90
234.48
179.45
126.09
76.26
30.70
-12.68
-55.04
-96.16
-135.62
-173.10
-208.53
-243.07
-274.50
-299.60
-315.43
-320.02
-311.82
-291.24
-261.14
-226.22
-192.49
-162.62
-137.25
-116.13
-98.64
-83.47
-69.20
-54.54
-38.61
-21.80
-4.08
13.57
28.80
38.81
41.76
37.40
26.84
11.66
-7.17
-28.48
-50.69
-71.24
-86.39
-92.10
-85.93
-68.56
-43.82
-17.18
6.83
26.04
40.27
50.09
55.44
55.51
49.79
39.57
28.48
21.49
22.90
34.35
54.08
77.58
99.44
115.09
121.70
118.17
104.64
81.90
50.95
13.18
-28.97
-71.47
-108.42
-133.02
-139.42
-124.82
-90.99
-44.04
7.22
53.86
88.86
108.26
110.73
97.00
70.04
35.50
1.77
-21.54
-26.44
-9.89
24.69
67.87
107.07
130.56
130.74
105.63
58.44
-3.67
-70.89
-131.81
-176.08
-196.89
-192.63
-167.02
-127.63
-84.45
-47.47
-24.58
-19.69
-33.71
-65.51
-111.72
-166.55
-221.06
-265.46
-291.33
-293.38
-269.37
-221.36
-155.52
-80.28
-4.68
63.94
118.90
154.22
161.26
139.49
99.73
57.85
26.82
10.50
10.48
26.91
57.86
99.20
146.95
195.18
236.11
263.41
266.74
242.53
195.72
137.80
81.14
35.37
4.75
-14.20
-25.81
-34.05
-40.14
-43.86
-43.02
-36.66
-24.56
-8.57
7.54
20.07
26.68
28.59
28.95
30.60
34.25
38.95
42.24
41.70
36.58
27.47
16.70
6.67
-1.19
-6.54
-9.28
-9.95
-9.27
-7.91
-6.83
-6.81
-8.63
-12.95
-19.79
-27.70
-34.99
-39.90
-41.38
-39.98
-37.85
-38.22
-44.43
-58.60
-77.38
-95.60
-107.69
-110.56
-104.39
-91.26
-73.85
-55.09
-39.99
-28.73
-20.82
-14.75
-8.00
2.55
19.74
45.18
76.26
104.79
119.76
112.39
82.25
38.01
-6.53
-38.32
-50.11
-42.73
-20.95
8.78
39.45
65.42
82.96
90.47
84.95
67.22
41.04
12.08
-14.03
-33.89
-46.92
-54.78
-60.04
-64.80
-69.24
-72.42
-72.79
-68.78
-59.09
-42.76
-19.47
9.94
43.01
76.31
105.62
127.25
139.04
140.80
133.99
120.95
104.09
85.55
67.52
51.88
40.02
32.49
28.91
28.28
29.49
31.51
33.51
34.65
33.73
29.23
20.00
6.04
-10.97
-28.11
-42.29
-51.54
-55.63
-56.06
-55.08
-54.47
-54.81
-55.47
-55.28
-53.40
-49.77
-45.04
-40.00
-35.04
-29.95
-24.16
-17.11
-8.54
1.46
12.64
24.64
36.95
48.57
57.81
62.43
60.35
50.61
34.13
13.83
-6.31
-22.59
-33.08
-38.07
-39.56
-39.97
-40.80
-42.08
-42.69
-41.41
-37.86
-32.80
-27.68
-23.85
-21.82
-21.12
-20.69
-19.53
-17.16
-13.75
-9.81
-5.80
-1.82
2.27
6.64
11.17
15.28
18.12
18.91
17.32
13.55
8.22
1.96
-4.83
-12.11
-20.07
-28.79
-38.10
-47.45
-55.97
-62.60
-66.16
-65.65
-60.54
-51.14
-38.69
-25.14
-12.62
-2.76
3.71
7.01
8.00
7.71
7.09
6.85
7.52
9.46
12.71
16.84
21.02
24.26
25.86
25.71
24.37
22.84
22.09
22.66
24.39
26.56
28.09
28.09
26.15
22.52
18.01
13.66
10.37
8.57
8.11
8.39
8.63
8.18
6.67
4.12
0.78
-3.01
-7.04
-11.24
-15.65
-20.33
-25.27
-30.36
-35.46
-40.40
-44.89
-48.35
-49.73
-47.64
-40.99
-29.66
-14.99
0.52
14.14
24.08
30.20
33.90
37.26
41.86
48.08
55.11
61.63
66.60
69.88
72.24
74.85
78.63
83.70
89.22
93.63
95.32
93.33
87.82
80.07
71.95
65.25
61.09
59.77
60.67
62.27
62.15
57.31
45.04
24.19
-3.85
-34.99
-63.64
-84.89
-96.45
-99.41
-97.34
-94.26
-92.73
-92.95
-93.37
-92.23
-88.89
-84.24
-79.98
-77.45
-76.66
-76.28
-74.38
-69.56
-61.64
-51.67
-41.29
-31.85
-23.91
-17.24
-11.18
-5.20
0.79
6.51
11.54
15.64
18.76
20.97
22.40
23.08
23.01
22.29
21.15
19.88
18.71
17.67
16.54
14.93
12.54
9.33
5.60
1.84
-1.54
-4.43
-7.01
-9.68
-12.67
-15.90
-19.03
-21.69
-23.73
-25.22
-26.23
-26.62
-26.02
-24.10
-21.02
-17.71
-15.52
-15.47
-17.42
-19.85
-20.48
-17.49
-10.63
-1.49
7.30
13.49
16.27
16.58
16.32
17.28
20.15
24.42
28.82
32.07
33.60
33.65
33.17
33.37
35.29
39.37
45.42
52.90
61.35
70.60
80.51
90.47
98.81
102.89
100.00
88.50
68.59
42.02
11.36
-20.76
-51.78
-78.66
-97.57
-104.46
-97.01
-76.38
-48.06
-20.35
-1.33
4.26
-3.39
-20.04
-39.63
-56.96
-69.14
-75.56
-76.95
-74.41
-69.00
-61.78
-54.00
-47.00
-41.91
-39.16
-38.35
-38.42
-38.08
-36.14
-31.81
-24.89
-15.70
-5.12
5.68
15.48
23.39
29.10
32.91
35.53
37.61
39.52
41.08
41.82
41.25
39.23
36.07
32.40
28.94
26.11
23.93
22.00
19.69
16.39
11.75
5.80
-0.97
-7.77
-13.78
-18.51
-22.10
-25.31
-29.14
-34.28
-40.59
-46.97
-51.76
-53.46
-51.45
-46.22
-39.04
-31.24
-23.64
-16.29
-8.77
-0.66
8.07
17.05
25.74
33.64
40.42
45.82
49.51
51.26
51.06
49.33
46.87
44.58
43.05
42.29
41.83
41.04
39.43
36.86
33.46
29.41
24.92
20.26
15.90
12.47
10.54
10.23
11.11
12.18
12.38
10.96
7.84
3.53
-1.10
-5.16
-7.96
-9.10
-8.48
-6.33
-3.10
0.68
4.60
8.55
12.66
17.07
21.54
25.23
26.88
25.36
20.33
12.65
4.10
-3.46
-9.10
-13.33
-17.72
-23.94
-32.57
-42.56
-51.54
-56.99
-57.33
-52.42
-43.40
-32.15
-20.95
-12.37
-9.09
-13.20
-24.98
-41.89
-58.61
-68.71
-67.11
-52.31
-27.04
2.99
31.42
53.48
66.92
71.64
68.42
57.92
40.27
15.47
-15.75
-50.99
-85.84
-114.37
-130.82
-131.64
-117.08
-91.27
-60.45
-30.30
-3.82
19.05
39.83
59.29
76.09
87.25
90.07
84.13
72.10
58.56
48.02
42.97
43.30
46.98
51.45
54.85
56.51
56.86
56.79
57.12
58.14
59.56
60.62
60.48
58.63
55.03
50.07
44.39
38.60
33.20
28.56
24.95
22.47
20.98
19.98
18.79
16.75
