1.593115159000000000e+09
-2.999999999999999889e-02
5.059999999999999609e+00
1.791000000000000014e+01
7.934000000000000341e+01
2.282500000000000000e+02
-4.865000000000000000e+02
-5.900000000000000355e+00
1.556800000000000068e+02
4.546000000000000085e+01
-9.699999999999999734e-01
-1.996000000000000085e+01
2.317000000000000171e+01
-3.788000000000000256e+01
-2.687999999999999901e+01
4.240999999999999659e+01
-2.037000000000000099e+01
-1.819000000000000128e+01
8.130000000000000782e+00
1.682999999999999829e+01
8.151000000000000512e+01
2.126399999999999864e+02
-1.589499999999999886e+02
-2.128899999999999864e+02
-2.495999999999999943e+02
1.478400000000000034e+02
1.091500000000000057e+02
7.957999999999999829e+01
7.970999999999999375e+01
-2.325099999999999909e+02
6.899999999999999467e-01
-2.450600000000000023e+02
-1.115100000000000051e+02
1.123299999999999983e+02
-1.258900000000000006e+02
4.464399999999999977e+02
8.332999999999999829e+01
-2.398100000000000023e+02
-9.757999999999999829e+01
-1.632999999999999829e+01
-9.853000000000000114e+01
2.128999999999999915e+01
2.039999999999999858e+01
-2.912999999999999901e+01
6.751000000000000512e+01
-4.625000000000000000e+01
9.523000000000000398e+01
-4.950000000000000000e+01
-9.670000000000000284e+01
-3.750000000000000000e+00
-3.317999999999999972e+01
-2.354799999999999898e+02
2.287400000000000091e+02
4.234499999999999886e+02
-1.792000000000000171e+01
-1.876999999999999886e+02
-1.294099999999999966e+02
2.094399999999999977e+02
-8.007999999999999829e+01
-2.059099999999999966e+02
-1.543999999999999950e+01
5.999000000000000199e+01
5.614000000000000057e+01
1.019999999999999929e+01
-2.217000000000000171e+01
-2.240000000000000213e+00
-1.837000000000000099e+01
-1.325000000000000000e+01
2.369999999999999929e+01
-2.032999999999999829e+01
-1.152999999999999936e+01
-1.312400000000000091e+02
4.500000000000000000e+00
3.892099999999999795e+02
-3.243999999999999773e+01
-9.706000000000000227e+01
-1.642999999999999972e+01
-2.234300000000000068e+02
6.992000000000000171e+01
5.677000000000000313e+01
8.104999999999999716e+01
8.604999999999999716e+01
-1.668400000000000034e+02
-1.863000000000000114e+02
1.355000000000000071e+01
3.108199999999999932e+02
-9.520000000000000284e+01
-1.469900000000000091e+02
1.713700000000000045e+02
9.123999999999999488e+01
-3.445000000000000284e+01
1.017999999999999972e+01
-3.590999999999999659e+01
5.643999999999999773e+01
3.120000000000000107e+00
9.904999999999999716e+01
5.727000000000000313e+01
5.917000000000000171e+01
-1.116599999999999966e+02
3.739999999999999858e+01
8.539999999999999147e+00
-7.879000000000000625e+01
-1.755999999999999872e+01
7.245999999999999375e+01
-9.668999999999999773e+01
-3.292000000000000171e+01
9.995000000000000284e+01
-1.113000000000000078e+01
-7.228000000000000114e+01
1.119000000000000057e+02
-1.060000000000000053e+00
5.735999999999999943e+01
4.467999999999999972e+01
-1.671000000000000085e+01
-1.222600000000000051e+02
-7.114000000000000057e+01
-1.069999999999999929e+01
-8.720000000000000639e+00
4.691800000000000068e+02
-2.123999999999999844e+01
-3.746899999999999977e+02
-1.279800000000000040e+02
-2.985600000000000023e+02
4.521100000000000136e+02
1.145499999999999972e+02
-3.682699999999999818e+02
1.991500000000000057e+02
-1.651999999999999957e+01
4.506399999999999864e+02
5.503999999999999915e+01
1.136999999999999922e+01
-5.571000000000000085e+01
-2.496200000000000045e+02
5.570000000000000284e+01
-8.960999999999999943e+01
2.895899999999999750e+02
-4.009000000000000341e+01
6.859999999999999432e+01
-1.086299999999999955e+02
-8.359999999999999432e+01
1.531000000000000050e+01
6.379999999999999893e+00
5.346999999999999886e+01
-1.523000000000000043e+01
-1.235000000000000000e+02
8.715000000000000568e+01
3.721999999999999886e+01
-3.247999999999999687e+01
4.822999999999999687e+01
-7.353000000000000114e+01
-3.285999999999999943e+01
1.104500000000000028e+02
-1.261800000000000068e+02
3.019000000000000128e+01
1.771999999999999886e+02
-2.105500000000000114e+02
-1.318600000000000136e+02
-7.139999999999999680e+00
-7.132999999999999829e+01
3.326000000000000227e+02
-1.349799999999999898e+02
2.405999999999999943e+02
2.398000000000000043e+01
-3.164999999999999858e+01
-2.716700000000000159e+02
-2.803000000000000114e+02
2.242100000000000080e+02
-1.049000000000000021e+01
3.717000000000000171e+01
-8.789999999999999147e+00
1.829699999999999989e+02
4.121000000000000085e+01
-8.640999999999999659e+01
-6.178000000000000114e+01
-4.981000000000000227e+01
-3.185999999999999943e+01
-7.237999999999999545e+01
1.422400000000000091e+02
4.402000000000000313e+01
-1.406000000000000050e+01
-1.757999999999999829e+01
-5.381000000000000227e+01
1.971800000000000068e+02
-3.263000000000000256e+01
3.285000000000000142e+01
6.395000000000000284e+01
-7.800000000000000266e-01
3.540999999999999659e+01
-1.288000000000000078e+01
6.870999999999999375e+01
6.357000000000000028e+01
-5.388000000000000256e+01
2.220000000000000195e+00
3.126999999999999957e+01
5.264999999999999858e+01
-7.101000000000000512e+01
-2.844999999999999929e+01
3.614000000000000057e+01
-2.255000000000000071e+01
1.758999999999999986e+01
5.440999999999999659e+01
-1.651999999999999957e+01
2.771999999999999886e+01
6.730000000000000426e+00
-3.678999999999999915e+01
4.929999999999999716e+00
-9.310000000000000497e+00
-2.523999999999999844e+01
2.248999999999999844e+01
-4.639999999999999680e+00
-1.594999999999999929e+01
-7.290000000000000568e+01
1.478999999999999915e+01
-1.522000000000000064e+01
-3.062999999999999901e+01
4.115999999999999659e+01
-5.785000000000000142e+01
3.777000000000000313e+01
1.218999999999999950e+01
-4.672999999999999687e+01
-9.200000000000000400e-01
-1.246000000000000085e+01
8.017000000000000171e+01
4.475000000000000000e+01
2.907000000000000028e+01
7.034999999999999432e+01
2.157999999999999829e+01
-1.490000000000000036e+01
-1.025999999999999979e+01
-4.327000000000000313e+01
-7.339999999999999858e+00
6.043999999999999773e+01
3.560000000000000142e+01
9.515999999999999659e+01
-1.235999999999999943e+01
-2.257999999999999829e+01
-5.229999999999999716e+01
-2.989000000000000057e+01
6.676999999999999602e+01
-3.813000000000000256e+01
2.398999999999999844e+01
-2.328000000000000114e+01
-1.576999999999999957e+01
1.219999999999999929e+01
-4.256000000000000227e+01
1.589000000000000057e+01
-9.330000000000000071e+00
1.263000000000000078e+01
1.217999999999999972e+01
-1.862000000000000099e+01
1.964999999999999858e+01
4.590999999999999659e+01
-2.262999999999999901e+01
-2.307999999999999829e+01
1.056000000000000050e+01
8.490000000000000213e+00
-6.189999999999999858e+01
5.404999999999999716e+01
2.955000000000000071e+01
8.237999999999999545e+01
-6.856000000000000227e+01
-2.044999999999999929e+01
1.579300000000000068e+02
-2.693199999999999932e+02
7.710999999999999943e+01
-2.239000000000000057e+01
3.778000000000000114e+01
2.451999999999999957e+01
-2.719000000000000128e+01
-3.832000000000000028e+01
-8.019999999999999574e+00
4.842999999999999972e+01
4.981000000000000227e+01
-1.019399999999999977e+02
1.048100000000000023e+02
2.083999999999999986e+01
5.049999999999999822e+00
2.167999999999999972e+01
7.429999999999999716e+00
-1.651200000000000045e+02
-1.775000000000000000e+01
9.257999999999999829e+01
-6.543999999999999773e+01
1.312299999999999898e+02
5.839999999999999858e+01
-1.554499999999999886e+02
-9.884999999999999432e+01
-1.794999999999999929e+01
6.150999999999999801e+01
-2.114999999999999858e+01
-3.802000000000000313e+01
3.909000000000000341e+01
1.110999999999999943e+01
-1.728999999999999915e+01
-1.277999999999999936e+01
-2.001000000000000156e+01
-5.120000000000000107e+00
-2.660000000000000142e+00
-2.600000000000000089e-01
4.330000000000000071e+00
-2.700000000000000178e+00
2.357000000000000028e+01
8.689999999999999503e+00
-3.435000000000000142e+01
1.955999999999999872e+01
1.617999999999999972e+01
-2.885000000000000142e+01
7.089999999999999858e+00
-7.799999999999999822e+00
-1.825000000000000000e+01
2.457999999999999829e+01
1.284999999999999964e+01
-1.031000000000000050e+01
1.285999999999999943e+01
2.819999999999999929e+01
-5.259999999999999787e+00
-2.389000000000000057e+01
1.236999999999999922e+01
-6.790000000000000036e+00
-2.964999999999999858e+01
1.160999999999999943e+01
1.129999999999999893e+00
-1.885999999999999943e+01
1.111999999999999922e+01
4.719999999999999751e+00
-1.639000000000000057e+01
-5.809999999999999609e+00
2.876999999999999957e+01
7.200000000000000178e+00
-1.644000000000000128e+01
2.060999999999999943e+01
1.128999999999999915e+01
-5.467000000000000171e+01
1.126999999999999957e+01
1.808999999999999986e+01
-2.669999999999999929e+00
5.877000000000000313e+01
1.352700000000000102e+02
-1.819399999999999977e+02
-8.848999999999999488e+01
9.528000000000000114e+01
-6.015999999999999659e+01
-1.432299999999999898e+02
2.000200000000000102e+02
1.684399999999999977e+02
-1.203199999999999932e+02
-2.642999999999999972e+01
-3.182999999999999829e+01
-3.742000000000000171e+01
-1.540500000000000114e+02
1.294600000000000080e+02
1.053100000000000023e+02
-1.524600000000000080e+02
-6.929999999999999716e+01
8.721999999999999886e+01
1.597000000000000064e+01
4.259999999999999787e+00
-2.932000000000000028e+01
-2.923000000000000043e+01
8.154999999999999716e+01
1.292999999999999972e+01
-6.150000000000000355e+00
3.799999999999999822e+00
1.489999999999999991e+00
7.179999999999999716e+00
1.559999999999999964e+01
6.884999999999999432e+01
-4.570000000000000284e+01
-1.517999999999999972e+01
1.790000000000000036e+00
2.290000000000000036e+00
-1.259999999999999964e+01
-7.650000000000000355e+00
4.417000000000000171e+01
4.090999999999999659e+01
-1.433999999999999986e+01
3.825000000000000000e+01
-5.799000000000000199e+01
2.594000000000000128e+01
2.535000000000000142e+01
-2.457999999999999829e+01
-1.069000000000000057e+02
4.843999999999999773e+01
2.421999999999999886e+01
-2.646999999999999886e+01
-1.639999999999999902e+00
2.762000000000000099e+01
-4.193999999999999773e+01
-5.346000000000000085e+01
1.301299999999999955e+02
-1.441999999999999993e+01
-1.508999999999999986e+01
2.776000000000000156e+01
2.342000000000000171e+01
2.716000000000000014e+01
-7.065000000000000568e+01
5.135999999999999943e+01
3.310000000000000053e+00
-2.371000000000000085e+01
1.889000000000000057e+01
-2.649999999999999911e+00
-1.973000000000000043e+01
2.017999999999999972e+01
1.391000000000000014e+01
-1.314000000000000057e+01
5.219999999999999751e+00
1.553999999999999915e+01
-3.470000000000000195e+00
-1.753000000000000114e+01
1.648999999999999844e+01
2.000000000000000042e-02
-8.567000000000000171e+01
2.462000000000000099e+01
1.698999999999999844e+01
-1.267999999999999972e+01
3.682999999999999829e+01
7.000000000000000666e-02
-5.519999999999999574e+00
-5.857999999999999829e+01
2.701000000000000156e+01
2.307999999999999829e+01
-9.750000000000000000e+00
1.284999999999999964e+01
6.849999999999999645e+00
-3.259999999999999787e+00
-1.817000000000000171e+01
1.712000000000000099e+01
1.600000000000000089e+00
-2.912000000000000099e+01
1.914999999999999858e+01
1.308799999999999955e+02
-1.386999999999999922e+01
-9.130000000000000782e+00
3.609999999999999876e+00
-4.990999999999999659e+01
6.309999999999999609e+00
2.332000000000000028e+01
1.967999999999999972e+01
-4.403999999999999915e+01
-3.160000000000000142e+00
7.339999999999999858e+00
-1.527999999999999936e+01
9.039999999999999147e+00
4.721000000000000085e+01
4.103999999999999915e+01
-3.793999999999999773e+01
3.950999999999999801e+01
-3.950000000000000178e+00
8.599999999999999645e+00
-3.062999999999999901e+01
5.654999999999999716e+01
-1.969999999999999929e+01
1.279899999999999949e+02
2.919000000000000128e+01
-1.927100000000000080e+02
-2.639800000000000182e+02
2.574499999999999886e+02
8.501999999999999602e+01
-3.306000000000000227e+01
-4.003000000000000114e+01
5.906000000000000227e+01
-6.404000000000000625e+01
7.479999999999999716e+01
3.645000000000000284e+01
2.828999999999999915e+01
-2.826999999999999957e+01
9.509999999999999787e+00
1.746000000000000085e+01
-3.189999999999999947e+00
-7.200000000000000178e+00
1.650000000000000000e+01
1.161999999999999922e+01
1.585999999999999943e+01
1.259599999999999937e+02
1.038400000000000034e+02
1.294999999999999929e+01
-7.820000000000000284e+00
-3.515999999999999659e+01
1.683100000000000023e+02
-1.067300000000000040e+02
1.917999999999999972e+01
1.021800000000000068e+02
-2.325800000000000125e+02
1.792599999999999909e+02
3.088799999999999955e+02
-7.868000000000000682e+01
4.967000000000000171e+01
4.228999999999999915e+01
-1.692999999999999972e+01
4.750000000000000000e+00
-9.710000000000000853e+00
-8.619999999999999218e+00
4.725000000000000000e+01
2.107999999999999829e+01
-1.767999999999999972e+01
5.940000000000000391e+00
9.890000000000000568e+00
-5.870000000000000107e+00
-5.849999999999999645e+00
8.060000000000000497e+00
-6.589999999999999858e+00
-1.894000000000000128e+01
1.283000000000000007e+01
7.199999999999999734e-01
-1.987999999999999901e+01
1.205000000000000071e+01
7.080000000000000071e+00
-8.800000000000000711e+00
9.250000000000000000e+00
8.400000000000000355e+00
8.859999999999999432e+00
7.320000000000000284e+00
-9.000000000000000222e-01
-6.759999999999999787e+00
-1.048000000000000043e+01
4.940000000000000391e+00
-6.410000000000000142e+00
-1.635000000000000142e+01
7.330000000000000071e+00
3.470000000000000195e+00
-1.540000000000000036e+01
-7.959999999999999964e+00
1.264000000000000057e+01
4.397999999999999687e+01
9.596999999999999886e+01
-2.921999999999999886e+01
-3.189999999999999947e+00
-1.242999999999999972e+01
-3.967000000000000171e+01
-3.107000000000000028e+01
3.793999999999999773e+01
2.295099999999999909e+02
5.235000000000000142e+01
-1.566399999999999864e+02
-3.228000000000000114e+01
1.018999999999999950e+01
9.079000000000000625e+01
6.743000000000000682e+01
8.715000000000000568e+01
4.878000000000000114e+01
-1.969999999999999929e+01
2.079799999999999898e+02
-1.355699999999999932e+02
-3.055999999999999872e+01
4.349999999999999645e+00
1.355000000000000071e+01
-9.660000000000000142e+00
7.580000000000000071e+00
-2.451999999999999957e+01
-1.202999999999999936e+01
4.593999999999999773e+01
-1.470900000000000034e+02
6.660000000000000142e+00
2.966000000000000014e+01
1.200000000000000000e+01
7.160000000000000142e+00
4.428000000000000114e+01
4.703999999999999915e+01
7.523999999999999488e+01
-2.051100000000000136e+02
-2.111800000000000068e+02
4.184000000000000341e+01
1.602599999999999909e+02
2.143400000000000034e+02
-2.729700000000000273e+02
-1.775399999999999920e+02
1.459300000000000068e+02
6.712999999999999545e+01
4.379999999999999716e+01
6.039000000000000057e+01
-7.000000000000000000e+00
-7.164000000000000057e+01
-5.440000000000000391e+00
-6.679999999999999716e+00
1.199999999999999956e-01
3.142999999999999972e+01
-1.796000000000000085e+01
-2.585999999999999943e+01
1.150000000000000000e+01
8.810000000000000497e+00
-1.341000000000000014e+01
7.799999999999999822e+00
3.919999999999999929e+00
-4.230000000000000426e+00
3.290000000000000036e+00
2.700000000000000178e+00
-8.919999999999999929e+00
-1.530000000000000071e+01
7.219999999999999751e+00
-9.300000000000000488e-01
-2.169999999999999929e+01
1.455000000000000071e+01
1.207000000000000028e+01
-4.940000000000000391e+00
9.429999999999999716e+00
1.294999999999999929e+01
-3.799999999999999822e+00
2.160000000000000142e+00
1.259999999999999964e+01
-4.940000000000000391e+00
-1.621999999999999886e+01
1.267999999999999972e+01
1.610000000000000098e+00
-1.871999999999999886e+01
1.238000000000000078e+01
1.344999999999999929e+01
1.402999999999999936e+01
3.667999999999999972e+01
-5.189999999999999858e+01
-2.435999999999999943e+01
-7.360000000000000320e+00
3.194000000000000128e+01
3.035999999999999943e+01
-5.165999999999999659e+01
-1.300999999999999979e+01
-1.679999999999999938e+00
2.439999999999999947e+00
-2.149999999999999911e+00
1.173000000000000043e+01
-2.800000000000000266e-01
-1.823000000000000043e+01
1.271000000000000085e+01
8.710000000000000853e+00
-1.296000000000000085e+01
1.239000000000000057e+01
1.032000000000000028e+01
-1.251999999999999957e+01
-2.830000000000000071e+00
1.449000000000000021e+01
-7.600000000000000089e-01
-1.353999999999999915e+01
1.275000000000000000e+01
1.860000000000000098e+00
-2.442999999999999972e+01
1.598000000000000043e+01
6.410000000000000142e+00
-1.942999999999999972e+01
1.172000000000000064e+01
1.458999999999999986e+01
-1.138000000000000078e+01
-2.990000000000000213e+00
1.582000000000000028e+01
-5.000000000000000000e+00
-1.873999999999999844e+01
1.942999999999999972e+01
5.999999999999999778e-01
-2.703999999999999915e+01
1.548000000000000043e+01
2.359999999999999876e+00
-1.576999999999999957e+01
9.650000000000000355e+00
1.249000000000000021e+01
-8.730000000000000426e+00
-5.570000000000000284e+00
1.139000000000000057e+01
-2.029999999999999805e+00
-2.030000000000000071e+01
1.485999999999999943e+01
-1.080000000000000071e+00
-1.892000000000000171e+01
1.274000000000000021e+01
5.669999999999999929e+00
-1.340000000000000036e+01
2.129999999999999893e+00
1.306000000000000050e+01
-5.580000000000000071e+00
-5.860000000000000320e+00
1.111999999999999922e+01
-4.299999999999999933e-01
-1.689999999999999858e+01
1.000000000000000000e+01
-5.019999999999999574e+00
-1.814999999999999858e+01
5.599999999999999645e+00
1.551999999999999957e+01
-6.129999999999999893e+00
1.259999999999999964e+01
3.453000000000000114e+01
-6.128000000000000114e+01
1.676999999999999957e+01
2.523000000000000043e+01
1.760000000000000142e+01
-2.442999999999999972e+01
-9.100000000000000311e-01
-1.305000000000000071e+01
1.219999999999999973e+00
1.585999999999999943e+01
7.307999999999999829e+01
3.632999999999999829e+01
-9.939999999999999503e+00
-9.489000000000000057e+01
-1.541500000000000057e+02
1.289600000000000080e+02
-9.662999999999999545e+01
1.804600000000000080e+02
2.594000000000000128e+01
-1.878999999999999915e+01
1.017500000000000000e+02
2.594000000000000128e+01
2.364999999999999858e+01
-1.096899999999999977e+02
6.211999999999999744e+01
7.056000000000000227e+01
-1.322000000000000064e+01
-1.700000000000000000e+01
6.690000000000000568e+01
2.194000000000000128e+01
-4.599000000000000199e+01
3.825000000000000000e+01
4.170000000000000284e+01
-7.940000000000000391e+00
7.684999999999999432e+01
2.575000000000000000e+01
-4.446999999999999886e+01
1.455000000000000071e+01
5.042999999999999972e+01
-1.715200000000000102e+02
1.702199999999999989e+02
7.320000000000000284e+00
-3.529999999999999716e+01
-1.709799999999999898e+02
2.019300000000000068e+02
4.175999999999999801e+01
-1.033000000000000007e+01
1.212199999999999989e+02
-2.923000000000000043e+01
-5.071999999999999886e+01
4.447999999999999687e+01
2.532999999999999829e+01
2.289000000000000057e+01
-2.989000000000000057e+01
2.835999999999999943e+01
-2.310999999999999943e+01
1.153999999999999915e+01
4.889000000000000057e+01
-1.103999999999999915e+01
-1.461899999999999977e+02
5.780000000000000249e+00
9.937000000000000455e+01
5.464999999999999858e+01
-1.339000000000000057e+01
2.080999999999999872e+01
-2.487999999999999901e+01
2.600000000000000089e+00
5.957999999999999829e+01
-6.687000000000000455e+01
5.617000000000000171e+01
2.503000000000000114e+01
-7.629999999999999893e+00
-6.900000000000000355e+00
1.064599999999999937e+02
-3.622999999999999687e+01
-3.346000000000000085e+01
-2.583999999999999986e+01
-6.669999999999999929e+00
-1.741000000000000014e+01
-9.509999999999999787e+00
-1.467999999999999972e+01
-2.316000000000000014e+01
2.310099999999999909e+02
-2.615500000000000114e+02
-7.626000000000000512e+01
1.912100000000000080e+02
1.135600000000000023e+02
-4.360000000000000142e+01
1.517999999999999972e+01
-1.900000000000000022e-01
-8.419999999999999929e+00
-9.410000000000000142e+00
7.150000000000000355e+00
1.973999999999999844e+01
-1.365000000000000036e+01
-7.109999999999999432e+01
2.081299999999999955e+02
2.530999999999999872e+01
-8.715000000000000568e+01
2.692000000000000171e+01
3.778000000000000114e+01
-2.934900000000000091e+02
4.878000000000000114e+01
5.335999999999999943e+01
6.269999999999999574e+00
-2.760999999999999943e+01
5.450000000000000178e+00
7.110000000000000320e+00
-2.510999999999999943e+01
1.835999999999999943e+01
2.946999999999999886e+01
-1.160600000000000023e+02
-1.356000000000000050e+01
-1.022199999999999989e+02
1.669099999999999966e+02
-1.635999999999999943e+01
1.703999999999999915e+01
-6.072999999999999687e+01
3.026999999999999957e+01
3.592000000000000171e+01
7.109000000000000341e+01
5.477000000000000313e+01
-6.478000000000000114e+01
4.218999999999999773e+01
2.085999999999999943e+01
-2.682999999999999829e+01
4.603000000000000114e+01
-7.581999999999999318e+01
6.929000000000000625e+01
-1.058999999999999986e+01
-7.554000000000000625e+01
-1.967999999999999972e+01
-8.918999999999999773e+01
1.049000000000000021e+01
7.325000000000000000e+01
7.462000000000000455e+01
4.259999999999999787e+00
-1.067999999999999972e+01
-1.779799999999999898e+02
-4.442999999999999972e+01
8.730000000000000426e+00
-3.828000000000000114e+01
8.343000000000000682e+01
5.230000000000000426e+00
-2.214999999999999858e+01
3.202000000000000313e+01
1.060999999999999943e+01
-1.415000000000000036e+01
1.564000000000000057e+01
1.655000000000000071e+01
-1.363000000000000078e+01
-1.179999999999999938e+00
1.402899999999999920e+02
-3.169999999999999929e+00
-1.635099999999999909e+02
5.321999999999999886e+01
6.479000000000000625e+01
-4.400999999999999801e+01
8.867000000000000171e+01
-4.159000000000000341e+01
-4.639999999999999680e+00
3.614999999999999858e+01
-1.680999999999999872e+01
1.039000000000000057e+02
1.500999999999999943e+02
-2.020900000000000034e+02
-7.209999999999999432e+01
-6.834000000000000341e+01
-3.076999999999999957e+01
1.218299999999999983e+02
-2.223300000000000125e+02
8.854999999999999716e+01
2.491599999999999966e+02
-7.901000000000000512e+01
-8.801000000000000512e+01
-1.052999999999999936e+01
8.830000000000000071e+00
-1.723000000000000043e+01
7.826000000000000512e+01
-4.653999999999999915e+01
-2.826000000000000156e+01
3.889999999999999858e+01
4.024000000000000199e+01
-3.202000000000000313e+01
5.977000000000000313e+01
2.375000000000000000e+01
3.222999999999999687e+01
-1.015400000000000063e+02
-2.410999999999999943e+01
-1.726999999999999957e+01
3.634000000000000341e+01
-1.482000000000000028e+01
2.051000000000000156e+01
-3.160000000000000142e+01
-7.360000000000000320e+00
-7.732999999999999829e+01
1.548400000000000034e+02
-1.332700000000000102e+02
3.296000000000000085e+01
-1.358000000000000007e+01
1.863499999999999943e+02
-2.840400000000000205e+02
-3.732999999999999829e+01
1.881299999999999955e+02
1.494999999999999929e+01
9.490000000000000213e+00
1.689999999999999947e+00
-6.969999999999999751e+00
-2.857000000000000028e+01
2.109999999999999876e+00
1.196700000000000017e+02
-1.202099999999999937e+02
1.476999999999999886e+02
8.910000000000000142e+00
-2.530900000000000034e+02
-6.115999999999999659e+01
-3.629999999999999716e+01
3.609000000000000341e+01
2.151000000000000156e+01
1.416000000000000014e+01
-2.655000000000000071e+01
1.985000000000000142e+01
2.532000000000000028e+01
-2.580000000000000071e+01
-5.929999999999999716e+00
-4.535999999999999943e+01
1.059300000000000068e+02
2.871800000000000068e+02
-6.399000000000000199e+01
-2.753999999999999915e+01
-5.957999999999999829e+01
9.445000000000000284e+01
-6.625000000000000000e+01
-3.189999999999999947e+00
2.692000000000000171e+01
-1.926999999999999957e+01
-3.420500000000000114e+02
-5.322999999999999687e+01
5.172999999999999687e+01
1.924199999999999875e+02
-2.054099999999999966e+02
-9.581000000000000227e+01
1.389999999999999902e+00
3.452000000000000313e+01
3.610999999999999943e+01
-1.020000000000000018e+00
-4.670000000000000284e+01
4.502000000000000313e+01
9.300000000000000488e-01
-1.469199999999999875e+02
2.241999999999999886e+02
-6.129999999999999893e+00
-2.894000000000000128e+01
-2.582999999999999829e+01
2.433999999999999986e+01
1.186999999999999922e+01
-3.809000000000000341e+01
5.474000000000000199e+01
1.896200000000000045e+02
2.014900000000000091e+02
-2.494300000000000068e+02
-1.313400000000000034e+02
3.949000000000000199e+01
-6.650000000000000355e+00
-1.190000000000000000e+02
1.848999999999999844e+01
3.802000000000000313e+01
1.014599999999999937e+02
-1.273000000000000043e+01
-7.393000000000000682e+01
1.851000000000000156e+01
5.710000000000000142e+01
-1.717100000000000080e+02
2.002599999999999909e+02
6.140999999999999659e+01
-9.689000000000000057e+01
-4.199999999999999845e-01
2.707000000000000028e+01
-2.596000000000000085e+01
-2.728999999999999915e+01
3.171000000000000085e+01
1.885999999999999943e+01
-3.657999999999999829e+01
2.287999999999999901e+01
1.960000000000000142e+01
-2.396999999999999886e+01
1.439000000000000057e+01
2.335000000000000142e+01
-1.347000000000000064e+01
-2.062999999999999901e+01
2.142999999999999972e+01
-5.870000000000000107e+00
-3.529999999999999716e+01
3.515999999999999659e+01
2.740000000000000213e+00
-7.062999999999999545e+01
-4.440000000000000391e+00
5.504999999999999716e+01
-1.162399999999999949e+02
-3.799999999999999822e+00
1.098000000000000043e+01
-2.649999999999999911e+00
7.779999999999999716e+01
1.404799999999999898e+02
-4.655199999999999818e+02
-1.505999999999999943e+02
8.607999999999999829e+01
1.164399999999999977e+02
2.567000000000000171e+01
1.280000000000000071e+01
4.006000000000000227e+01
4.469999999999999751e+00
2.480999999999999872e+01
1.375999999999999979e+01
3.214000000000000057e+01
6.620000000000000107e+00
4.461999999999999744e+01
1.796800000000000068e+02
-6.748000000000000398e+01
-2.910600000000000023e+02
-8.070000000000000284e+01
6.645000000000000284e+01
4.518999999999999773e+01
5.190000000000000391e+00
-3.252000000000000313e+01
-2.428000000000000114e+01
3.477000000000000313e+01
2.108999999999999986e+01
-2.212999999999999901e+01
1.853000000000000114e+01
2.359999999999999876e+00
5.419999999999999929e+00
4.530000000000000249e+00
-2.375000000000000000e+01
-2.871999999999999886e+01
8.259999999999999787e+00
2.303999999999999915e+01
3.970000000000000195e+00
-1.555000000000000071e+01
1.787000000000000099e+01
1.192999999999999972e+01
-3.279999999999999716e+01
2.071999999999999886e+01
1.744999999999999929e+01
-5.185000000000000142e+01
-4.169999999999999929e+00
8.390000000000000568e+00
-2.878000000000000114e+01
1.653000000000000114e+01
2.189999999999999858e+01
8.499999999999999778e-01
9.099999999999999645e+00
6.299999999999999822e+00
3.350000000000000089e+00
-2.271999999999999886e+01
1.396000000000000085e+01
-1.159999999999999920e+00
-3.536999999999999744e+01
2.089000000000000057e+01
1.917000000000000171e+01
-2.096999999999999886e+01
5.690000000000000391e+00
1.550000000000000000e+01
4.629999999999999893e+00
-4.929999999999999716e+00
6.980000000000000426e+00
-1.889000000000000057e+01
-3.781000000000000227e+01
3.264999999999999858e+01
1.826999999999999957e+01
-2.208999999999999986e+01
2.769000000000000128e+01
1.342999999999999972e+01
-1.991000000000000014e+01
-7.230000000000000426e+00
-2.142000000000000171e+01
3.069999999999999840e+00
-3.540999999999999659e+01
6.815000000000000568e+01
2.173100000000000023e+02
3.777000000000000313e+01
-6.960999999999999943e+01
1.350800000000000125e+02
1.010799999999999983e+02
-1.938199999999999932e+02
-9.318000000000000682e+01
5.940000000000000391e+00
7.912000000000000455e+01
6.174000000000000199e+01
4.059999999999999609e+00
-4.700999999999999801e+01
5.595000000000000284e+01
-6.650000000000000355e+00
8.979999999999999716e+01
-7.537999999999999545e+01
6.277000000000000313e+01
-1.399300000000000068e+02
-1.665699999999999932e+02
-1.081200000000000045e+02
-4.440999999999999659e+01
2.403799999999999955e+02
7.029000000000000625e+01
1.476699999999999875e+02
-1.352999999999999936e+01
-1.257399999999999949e+02
1.308999999999999986e+01
6.828000000000000114e+01
2.025000000000000000e+01
-9.984000000000000341e+01
-2.814000000000000057e+01
-6.929999999999999716e+01
1.487400000000000091e+02
-8.168000000000000682e+01
-2.115999999999999943e+02
-7.362000000000000455e+01
3.819999999999999840e+00
2.320699999999999932e+02
-8.318999999999999773e+01
-9.679999999999999716e+00
-1.526999999999999957e+01
3.543999999999999773e+01
-3.232000000000000028e+01
-2.300000000000000000e+01
4.293999999999999773e+01
2.989999999999999858e+01
-8.273999999999999488e+01
6.775000000000000000e+01
1.730999999999999872e+01
-9.634999999999999432e+01
-1.607999999999999829e+01
2.048400000000000034e+02
-1.383600000000000136e+02
-1.435800000000000125e+02
4.514999999999999858e+01
9.173999999999999488e+01
2.083999999999999986e+01
1.990300000000000011e+02
1.806100000000000136e+02
2.868999999999999773e+02
-3.200199999999999818e+02
1.357000000000000028e+01
-1.717999999999999972e+01
1.150900000000000034e+02
5.385999999999999943e+01
1.056299999999999955e+02
-1.117199999999999989e+02
9.973000000000000398e+01
8.114000000000000057e+01
2.894999999999999929e+01
-6.830000000000000071e+00
-1.076899999999999977e+02
1.197600000000000051e+02
4.103999999999999915e+01
4.300999999999999801e+01
2.948999999999999844e+01
-5.481000000000000227e+01
4.857000000000000028e+01
-4.140999999999999659e+01
1.116999999999999993e+01
-6.615999999999999659e+01
1.271000000000000085e+01
1.801000000000000156e+01
-2.526999999999999957e+01
3.725999999999999801e+01
8.006999999999999318e+01
-9.940999999999999659e+01
-5.167000000000000171e+01
2.228999999999999915e+01
-1.590000000000000036e+01
-1.748999999999999844e+01
3.336999999999999744e+01
-2.076000000000000156e+01
-7.556000000000000227e+01
-5.120000000000000107e+00
2.610999999999999943e+01
-4.696999999999999886e+01
4.582000000000000028e+01
2.026000000000000156e+01
-6.330000000000000071e+00
-1.333000000000000007e+01
-4.189000000000000057e+01
-5.099000000000000199e+01
8.412999999999999545e+01
6.047999999999999687e+01
4.639999999999999680e+00
-2.057999999999999829e+01
-1.578999999999999915e+01
2.217000000000000171e+01
-4.321000000000000085e+01
-5.817000000000000171e+01
7.448000000000000398e+01
5.374000000000000199e+01
-2.037000000000000099e+01
4.296999999999999886e+01
8.098999999999999488e+01
5.631000000000000227e+01
-3.256000000000000227e+01
-1.069899999999999949e+02
-4.375000000000000000e+01
-1.250000000000000000e+01
3.496200000000000045e+02
3.810000000000000142e+01
-1.960900000000000034e+02
1.575399999999999920e+02
1.655999999999999872e+01
-7.960999999999999943e+01
2.632999999999999829e+01
1.917999999999999972e+01
-1.714999999999999858e+01
1.584999999999999964e+01
2.382000000000000028e+01
-2.717999999999999972e+01
-1.332000000000000028e+01
2.235000000000000142e+01
6.509999999999999787e+00
-3.675000000000000000e+01
2.228999999999999915e+01
2.025000000000000000e+01
-2.885999999999999943e+01
-2.407999999999999829e+01
1.789999999999999858e+01
8.839999999999999858e+00
-4.099000000000000199e+01
2.128000000000000114e+01
5.429999999999999716e+00
-2.357000000000000028e+01
7.269999999999999574e+00
3.267999999999999972e+01
1.172000000000000064e+01
5.147999999999999687e+01
-6.163000000000000256e+01
-1.126200000000000045e+02
4.211999999999999744e+01
5.459999999999999964e+00
1.133799999999999955e+02
5.279999999999999716e+01
-2.258999999999999986e+01
1.294900000000000091e+02
-6.199999999999999956e-01
-3.126999999999999886e+02
6.011999999999999744e+01
3.392000000000000171e+01
-5.114000000000000057e+01
-1.740999999999999943e+02
-3.164999999999999858e+01
-2.460699999999999932e+02
9.720000000000000639e+00
1.023900000000000006e+02
-1.375000000000000000e+01
1.333999999999999986e+01
-2.691000000000000227e+02
1.562100000000000080e+02
5.490999999999999659e+01
-4.321999999999999886e+01
-7.931999999999999318e+01
1.662899999999999920e+02
-1.039599999999999937e+02
-1.896999999999999886e+02
-3.959000000000000341e+01
2.942500000000000000e+02
-2.860000000000000142e+01
7.379000000000000625e+01
-9.356999999999999318e+01
-4.914999999999999858e+01
-5.179999999999999716e+00
3.568999999999999773e+01
-4.838000000000000256e+01
7.399999999999999911e-01
1.117999999999999972e+01
-2.680999999999999872e+01
-9.890000000000000568e+01
1.857999999999999829e+01
-5.530000000000000249e+00
4.788100000000000023e+02
-1.705300000000000011e+02
-6.901999999999999602e+01
6.870000000000000107e+00
-7.650000000000000000e+01
1.798000000000000043e+01
1.275999999999999979e+01
1.830000000000000071e+01
6.257000000000000028e+01
-7.106999999999999318e+01
3.243999999999999773e+01
-4.617999999999999972e+01
-6.920999999999999375e+01
9.980000000000000426e+00
-5.647999999999999687e+01
2.514999999999999858e+01
-4.349000000000000199e+01
-2.762000000000000099e+01
1.950000000000000000e+01
-2.248000000000000043e+01
3.210000000000000142e+01
8.849999999999999645e+00
2.889999999999999858e+01
-6.953000000000000114e+01
-4.167999999999999972e+01
-1.180000000000000071e+01
-9.682999999999999829e+01
6.529999999999999716e+01
-3.189999999999999947e+00
-3.652000000000000313e+01
1.036700000000000017e+02
8.495000000000000284e+01
-7.929999999999999716e+00
-2.966000000000000014e+01
-5.781000000000000227e+01
-1.786399999999999864e+02
-1.331399999999999864e+02
2.524199999999999875e+02
9.448999999999999488e+01
-6.648000000000000398e+01
8.690000000000000568e+01
1.399000000000000021e+01
-1.102000000000000028e+02
-4.100099999999999909e+02
2.722099999999999795e+02
1.151299999999999955e+02
4.879999999999999716e+01
-4.945000000000000284e+01
1.363799999999999955e+02
5.981000000000000227e+01
-8.662000000000000455e+01
8.287999999999999545e+01
-5.740000000000000213e+00
-1.676999999999999957e+01
1.297000000000000064e+01
-1.330000000000000071e+00
2.000000000000000000e+01
7.654000000000000625e+01
-3.682000000000000028e+01
-2.404000000000000057e+02
1.776299999999999955e+02
1.275799999999999983e+02
-6.775000000000000000e+01
-8.368000000000000682e+01
2.323000000000000043e+01
-1.143999999999999950e+01
-3.176999999999999957e+01
9.462000000000000455e+01
-3.411999999999999744e+01
-8.110999999999999943e+01
3.193399999999999750e+02
3.452000000000000313e+01
-1.593100000000000023e+02
1.704600000000000080e+02
4.682000000000000028e+01
-3.559000000000000341e+01
-3.331000000000000227e+01
6.202000000000000313e+01
-1.130000000000000071e+01
-2.810000000000000053e+00
3.628000000000000114e+01
-5.331000000000000227e+01
-1.482000000000000028e+01
4.711999999999999744e+01
-1.037300000000000040e+02
1.466999999999999993e+01
-5.580000000000000071e+00
-7.879999999999999893e+00
1.041999999999999993e+01
-6.381000000000000227e+01
2.798000000000000043e+01
1.582000000000000028e+01
-1.839999999999999858e+01
2.532000000000000028e+01
2.620000000000000107e+00
-6.900000000000000355e+00
7.669999999999999929e+00
-3.990000000000000213e+00
-1.439000000000000057e+01
1.428999999999999915e+01
1.508000000000000007e+01
-7.299999999999999822e+00
-1.527999999999999936e+01
2.648000000000000043e+01
9.899999999999999911e-01
-1.689000000000000057e+01
3.144000000000000128e+01
-4.929999999999999716e+00
-1.766000000000000014e+01
2.233999999999999986e+01
7.780000000000000249e+00
-2.564000000000000057e+01
-1.942000000000000171e+01
9.710000000000000853e+00
8.529999999999999361e+00
-9.490000000000000213e+00
1.794000000000000128e+01
1.068999999999999950e+01
-3.732999999999999829e+01
4.650000000000000355e+00
5.059999999999999609e+00
-2.007999999999999829e+01
9.650000000000000355e+00
1.238000000000000078e+01
-2.839999999999999858e+00
-1.676999999999999957e+01
3.550000000000000000e+01
4.842999999999999972e+01
-7.651999999999999602e+01
-1.247000000000000028e+02
1.453400000000000034e+02
5.164999999999999858e+01
1.100499999999999972e+02
2.707000000000000028e+01
-9.789999999999999147e+00
-1.323000000000000043e+01
1.558000000000000007e+01
-6.150000000000000355e+00
-9.109999999999999432e+00
1.383999999999999986e+01
1.860000000000000098e+00
-1.561999999999999922e+01
1.769999999999999929e+01
6.639999999999999680e+00
-1.812999999999999901e+01
1.360999999999999943e+01
9.439999999999999503e+00
-1.333999999999999986e+01
3.942999999999999972e+01
8.056999999999999318e+01
-5.459999999999999964e+00
-1.421000000000000085e+01
-4.568999999999999773e+01
-3.839999999999999858e+00
1.017999999999999972e+01
1.926000000000000156e+01
-9.000000000000000000e+00
-7.469999999999999751e+00
2.239999999999999858e+01
-7.000000000000000666e-02
-2.437000000000000099e+01
4.082999999999999829e+01
4.129999999999999893e+00
-3.220000000000000284e+01
-1.421000000000000085e+01
-1.955999999999999872e+01
5.653999999999999915e+01
2.226999999999999957e+01
1.083999999999999986e+01
-1.032399999999999949e+02
9.176000000000000512e+01
2.264000000000000057e+02
-1.284799999999999898e+02
-2.623100000000000023e+02
7.454000000000000625e+01
4.410000000000000142e+01
1.500000000000000000e+00
-1.110999999999999943e+01
2.166000000000000014e+01
-5.977000000000000313e+01
-2.185999999999999943e+01
-1.981500000000000057e+02
7.534000000000000341e+01
4.585999999999999943e+01
-7.895999999999999375e+01
2.978000000000000114e+01
-4.845000000000000284e+01
1.513199999999999932e+02
-5.178999999999999915e+01
1.814999999999999858e+01
9.918999999999999773e+01
6.975000000000000000e+01
-2.448300000000000125e+02
5.382999999999999829e+01
-3.689999999999999947e+00
-4.320000000000000284e+00
-1.771999999999999886e+01
1.639999999999999858e+01
-6.821999999999999886e+01
-3.020000000000000018e+00
4.396999999999999886e+01
-3.669999999999999929e+00
-3.249000000000000199e+01
1.989999999999999858e+01
2.289999999999999858e+01
9.500000000000000000e+00
1.588000000000000078e+01
8.789999999999999147e+00
-6.730000000000000426e+00
-7.215999999999999659e+01
3.799999999999999822e+00
3.771999999999999886e+01
-2.535999999999999943e+01
1.637000000000000099e+01
-2.137999999999999901e+01
2.069999999999999929e+01
1.300000000000000000e+01
1.429999999999999938e+00
3.200000000000000178e+00
-1.582000000000000028e+01
-2.558999999999999986e+01
1.080000000000000071e+01
-2.398000000000000043e+01
2.973999999999999844e+01
-2.132999999999999829e+01
2.975000000000000000e+01
-4.950999999999999801e+01
1.106000000000000050e+01
2.130999999999999872e+01
-2.042999999999999972e+01
1.983999999999999986e+01
1.590000000000000036e+01
-1.283999999999999986e+01
-4.019999999999999574e+00
3.752000000000000313e+01
4.221999999999999886e+01
-1.156800000000000068e+02
1.848000000000000043e+01
8.420999999999999375e+01
4.139999999999999680e+00
-3.239000000000000057e+01
-7.800000000000000266e-01
-1.485099999999999909e+02
9.498999999999999488e+01
6.899999999999999467e-01
1.040000000000000036e+00
4.353999999999999915e+01
-3.108999999999999986e+01
-4.872999999999999687e+01
-9.730000000000000426e+00
-1.514000000000000057e+01
4.071999999999999886e+01
3.069999999999999840e+00
7.284999999999999432e+01
-6.125000000000000000e+01
-8.885999999999999943e+01
1.080499999999999972e+02
4.529999999999999716e+01
-7.023000000000000398e+01
-7.156999999999999318e+01
1.141800000000000068e+02
-7.181000000000000227e+01
3.028000000000000114e+01
-3.160000000000000142e+00
-2.459999999999999964e+00
-5.407000000000000028e+01
-5.414000000000000057e+01
2.135999999999999943e+01
-8.600000000000000000e+01
-1.912000000000000099e+01
6.673999999999999488e+01
1.803000000000000114e+01
-1.191000000000000014e+01
-2.939999999999999947e+00
-6.110000000000000320e+00
-1.214000000000000057e+01
-1.382000000000000028e+01
3.042999999999999972e+01
1.178999999999999915e+01
8.000000000000000167e-02
-1.728999999999999915e+01
2.339999999999999858e+00
-1.746000000000000085e+01
-4.857999999999999829e+01
6.330000000000000071e+00
1.414000000000000057e+01
-1.419999999999999929e+00
-1.160999999999999943e+01
2.617000000000000171e+01
2.557000000000000028e+01
-2.260999999999999943e+01
3.546000000000000085e+01
-6.584000000000000341e+01
-5.007999999999999829e+01
5.378999999999999915e+01
4.435000000000000142e+01
-3.889000000000000057e+01
9.993999999999999773e+01
-7.485999999999999943e+01
9.423999999999999488e+01
9.420000000000000284e+01
-1.879099999999999966e+02
-5.293999999999999773e+01
-4.057999999999999829e+01
-1.327899999999999920e+02
8.157999999999999829e+01
3.395500000000000114e+02
-1.136299999999999955e+02
-6.254999999999999716e+01
3.160000000000000142e+00
-7.980000000000000426e+00
3.178000000000000114e+01
3.432999999999999829e+01
-3.402000000000000313e+01
-3.078000000000000114e+01
1.619000000000000128e+01
-1.867999999999999972e+01
1.912999999999999901e+01
6.956999999999999318e+01
2.514999999999999858e+01
-4.309999999999999609e+00
-3.103000000000000114e+01
8.460000000000000853e+00
7.830000000000000071e+00
-5.747999999999999687e+01
4.727000000000000313e+01
2.160000000000000142e+01
-8.945000000000000284e+01
-3.789000000000000057e+01
2.707000000000000028e+01
-1.771000000000000085e+01
8.580000000000000071e+00
2.623999999999999844e+01
6.599999999999999645e+00
1.413000000000000078e+01
1.018999999999999950e+01
3.499999999999999778e-01
-1.540000000000000036e+00
3.680000000000000160e+00
5.769999999999999574e+00
-1.751999999999999957e+01
2.235000000000000142e+01
1.535999999999999943e+01
6.650000000000000355e+00
-4.789999999999999858e+01
3.207000000000000028e+01
-4.864999999999999858e+01
1.741000000000000014e+01
8.620999999999999375e+01
8.578000000000000114e+01
-2.828999999999999915e+01
-2.416999999999999886e+02
-2.207999999999999829e+01
-1.367400000000000091e+02
5.325999999999999801e+01
-3.092999999999999972e+01
-9.337000000000000455e+01
-2.341000000000000014e+01
1.162399999999999949e+02
-2.337999999999999901e+01
-2.000000000000000000e+01
1.730999999999999872e+01
7.531999999999999318e+01
8.890999999999999659e+01
-5.852000000000000313e+01
-1.994499999999999886e+02
-1.069099999999999966e+02
1.299699999999999989e+02
6.523999999999999488e+01
2.300000000000000000e+01
-3.228999999999999915e+01
4.464000000000000057e+01
1.616000000000000014e+01
2.532000000000000028e+01
1.061999999999999922e+01
3.824000000000000199e+01
-2.019399999999999977e+02
-1.101899999999999977e+02
1.480399999999999920e+02
3.754999999999999716e+01
-9.970000000000000639e+00
1.710000000000000142e+01
1.163000000000000078e+01
-1.511999999999999922e+01
2.701000000000000156e+01
1.629999999999999893e+00
-5.299999999999999822e+00
4.510000000000000142e+01
5.402000000000000313e+01
-1.388400000000000034e+02
6.132000000000000028e+01
7.401999999999999602e+01
3.861999999999999744e+01
-7.035999999999999943e+01
4.280000000000000249e+00
-1.159300000000000068e+02
7.884000000000000341e+01
-2.629999999999999893e+00
-2.592000000000000171e+01
-1.004800000000000040e+02
6.025999999999999801e+01
4.980000000000000426e+00
-1.105600000000000023e+02
-3.442999999999999972e+01
5.269999999999999574e+00
-4.063000000000000256e+01
1.194599999999999937e+02
-2.850000000000000000e+01
-7.975000000000000000e+01
-4.895000000000000284e+01
6.878000000000000114e+01
8.570000000000000284e+00
5.230000000000000426e+00
1.088400000000000034e+02
-4.806000000000000227e+01
1.913799999999999955e+02
-2.260699999999999932e+02
2.243499999999999943e+02
-2.471999999999999886e+01
-7.396999999999999886e+01
2.150000000000000000e+01
-8.100000000000000533e-01
-9.619999999999999218e+00
-2.407000000000000028e+01
4.532000000000000028e+01
3.413000000000000256e+01
1.147000000000000064e+01
2.562999999999999901e+01
4.740000000000000213e+00
-6.881000000000000227e+01
7.045000000000000284e+01
-5.709000000000000341e+01
6.629000000000000625e+01
1.122000000000000064e+01
-2.400000000000000000e+01
-6.039000000000000057e+01
3.653000000000000114e+01
-4.952000000000000313e+01
3.614999999999999858e+01
1.221800000000000068e+02
4.082999999999999829e+01
1.209999999999999964e+00
-2.607999999999999829e+01
-1.202999999999999936e+01
1.026800000000000068e+02
-4.390999999999999659e+01
1.780000000000000071e+01
6.374000000000000199e+01
-6.510999999999999943e+01
-1.628000000000000114e+01
-1.783600000000000136e+02
1.632299999999999898e+02
-2.230000000000000071e+01
6.296999999999999886e+01
-6.200000000000000178e+00
-2.249399999999999977e+02
-7.640999999999999659e+01
6.465000000000000568e+01
8.090999999999999659e+01
2.628000000000000114e+01
2.305999999999999872e+01
1.031000000000000050e+01
-8.075000000000000000e+01
-5.935999999999999943e+01
-3.488000000000000256e+01
-3.586600000000000250e+02
1.033900000000000006e+02
2.393400000000000034e+02
7.675000000000000000e+01
1.646999999999999886e+01
4.297999999999999687e+01
-3.614999999999999858e+01
-1.450000000000000000e+01
-1.698999999999999844e+01
1.770300000000000011e+02
-1.502500000000000000e+02
-1.524900000000000091e+02
1.115999999999999943e+02
5.870000000000000284e+01
-4.799999999999999822e+00
1.384999999999999964e+01
-9.231999999999999318e+01
5.738000000000000256e+01
9.701000000000000512e+01
9.518999999999999773e+01
3.407999999999999829e+01
-1.449399999999999977e+02
-1.607000000000000028e+01
9.365999999999999659e+01
-1.601000000000000156e+01
3.821999999999999886e+01
4.335000000000000142e+01
-5.000000000000000278e-02
4.581000000000000227e+01
-5.000000000000000000e+00
9.631999999999999318e+01
-3.593999999999999773e+01
4.963000000000000256e+01
-6.197999999999999687e+01
-2.392000000000000171e+01
3.599999999999999867e-01
5.142000000000000171e+01
2.889999999999999858e+01
-4.564000000000000057e+01
9.529999999999999361e+00
3.221000000000000085e+01
9.400000000000000355e+00
-1.139999999999999902e+00
-1.664000000000000057e+01
-1.348000000000000114e+02
7.881000000000000227e+01
1.177999999999999972e+02
2.248000000000000043e+01
3.414000000000000057e+01
-1.501500000000000057e+02
7.801000000000000512e+01
-4.639999999999999858e+01
-4.117000000000000171e+01
4.020000000000000284e+01
2.042999999999999972e+01
-2.796000000000000085e+01
-5.557000000000000028e+01
-7.123999999999999488e+01
1.516299999999999955e+02
5.300000000000000266e-01
1.129599999999999937e+02
-8.604000000000000625e+01
-3.643999999999999773e+01
2.671999999999999886e+01
1.064000000000000057e+01
1.691000000000000014e+01
3.660999999999999943e+01
-2.825000000000000000e+01
-6.620000000000000107e+00
-6.620000000000000284e+01
-4.770000000000000284e+01
6.142000000000000171e+01
6.500000000000000000e+00
2.719999999999999929e+01
6.342000000000000171e+01
-8.310000000000000497e+00
-2.882000000000000028e+01
5.932999999999999829e+01
-4.986999999999999744e+01
-2.300000000000000000e+01
1.458999999999999986e+01
-4.274000000000000199e+01
-1.325800000000000125e+02
1.216200000000000045e+02
-1.627299999999999898e+02
1.288700000000000045e+02
5.999999999999999778e-01
6.440999999999999659e+01
7.128000000000000114e+01
-8.568999999999999773e+01
-2.676999999999999957e+01
-3.171999999999999886e+01
1.536999999999999922e+01
3.087000000000000099e+01
-1.826000000000000156e+01
-5.325000000000000000e+01
-2.123000000000000043e+01
1.025999999999999979e+01
5.985999999999999943e+01
1.035999999999999943e+01
6.830000000000000071e+00
5.934000000000000341e+01
-6.232000000000000028e+01
-2.620000000000000107e+00
-1.599000000000000057e+02
-3.299999999999999822e+00
6.136999999999999744e+01
-1.507000000000000028e+01
3.707999999999999829e+01
2.473000000000000043e+01
-3.149999999999999911e+00
3.740999999999999659e+01
-1.500000000000000000e+00
4.145000000000000284e+01
-9.395999999999999375e+01
-3.278000000000000114e+01
5.242000000000000171e+01
-1.100000000000000006e-01
3.160999999999999943e+01
5.485000000000000142e+01
-1.257000000000000028e+02
1.641800000000000068e+02
-1.763199999999999932e+02
1.482000000000000028e+01
7.076000000000000512e+01
8.735999999999999943e+01
-1.368300000000000125e+02
3.828000000000000114e+01
-2.569999999999999840e+00
4.117999999999999972e+01
-1.739799999999999898e+02
9.434999999999999432e+01
-5.000000000000000000e+00
1.302999999999999936e+01
3.871999999999999886e+01
6.059000000000000341e+01
-5.089999999999999858e+00
5.004999999999999716e+01
-1.127800000000000011e+02
4.343999999999999773e+01
-2.701000000000000156e+01
1.008999999999999986e+01
-2.737999999999999901e+01
1.712999999999999901e+01
-9.873999999999999488e+01
-2.987000000000000099e+01
6.371000000000000085e+01
1.205000000000000000e+02
6.865999999999999659e+01
5.915999999999999659e+01
8.925000000000000000e+01
7.598999999999999488e+01
-2.296399999999999864e+02
5.497999999999999687e+01
3.239999999999999858e+01
-8.559999999999999432e+01
6.285000000000000142e+01
3.689000000000000057e+01
-8.276000000000000512e+01
-3.407000000000000028e+01
6.998000000000000398e+01
-2.034199999999999875e+02
-6.940000000000000568e+01
2.073199999999999932e+02
1.107099999999999937e+02
-1.318400000000000034e+02
-7.054000000000000625e+01
3.579999999999999716e+01
4.365999999999999659e+01
1.817999999999999972e+01
-5.030000000000000249e+00
1.040000000000000036e+00
-2.010000000000000142e+01
-5.900000000000000355e+00
-3.300000000000000155e-01
-1.034999999999999964e+01
-8.880000000000000782e+00
4.299999999999999822e+00
-5.690000000000000391e+00
-1.892000000000000171e+01
1.080000000000000071e+00
-4.099999999999999756e-01
-1.892999999999999972e+01
8.179999999999999716e+00
-2.200000000000000178e+00
-7.759999999999999787e+00
1.091999999999999993e+01
-9.560000000000000497e+00
-9.070000000000000284e+00
1.283000000000000007e+01
-4.389999999999999680e+00
-5.870000000000000107e+00
5.457999999999999829e+01
-1.846999999999999886e+01
-2.428000000000000114e+01
-4.969999999999999751e+00
-1.138000000000000078e+01
9.330000000000000071e+00
1.479999999999999982e+00
-4.013000000000000256e+01
2.480999999999999872e+01
-9.832999999999999829e+01
4.300999999999999801e+01
-3.671999999999999886e+01
4.142000000000000171e+01
1.988899999999999864e+02
-6.849999999999999645e+00
-1.209999999999999964e+00
-6.730000000000000426e+00
-7.035999999999999943e+01
-1.869999999999999929e+01
-1.932199999999999989e+02
1.007800000000000011e+02
1.433000000000000007e+01
4.657000000000000028e+01
1.263700000000000045e+02
9.168999999999999773e+01
-3.511999999999999744e+01
1.771000000000000085e+01
-1.272099999999999937e+02
5.950000000000000178e+00
7.298999999999999488e+01
1.719799999999999898e+02
3.046000000000000085e+01
-3.856000000000000227e+01
-1.563100000000000023e+02
3.750000000000000000e+01
-3.899999999999999911e+00
5.160000000000000142e+00
1.600000000000000089e+00
-7.470000000000000284e+01
-5.139999999999999680e+00
-4.828000000000000114e+01
2.032999999999999829e+01
-1.723000000000000043e+01
-6.562999999999999545e+01
-5.902000000000000313e+01
3.132900000000000205e+02
-2.364300000000000068e+02
-1.229200000000000017e+02
5.111999999999999744e+01
1.338300000000000125e+02
-2.576000000000000227e+02
1.812400000000000091e+02
1.109000000000000057e+02
5.099999999999999645e+00
-1.871000000000000085e+01
-2.569999999999999840e+00
5.899999999999999689e-01
-3.299999999999999822e+00
2.657999999999999829e+01
1.213000000000000078e+01
-1.771999999999999886e+01
8.789999999999999147e+00
5.070000000000000284e+00
-8.759999999999999787e+00
-1.353999999999999915e+01
1.969000000000000128e+01
-8.240000000000000213e+00
8.400000000000000355e+00
4.459999999999999964e+00
-1.139000000000000057e+01
-1.950000000000000000e+01
7.379999999999999893e+00
-1.699999999999999956e+00
-2.430000000000000071e+01
1.917999999999999972e+01
1.959999999999999964e+00
-2.010000000000000142e+01
1.472000000000000064e+01
1.136999999999999922e+01
-9.779999999999999361e+00
-5.000000000000000278e-02
1.525999999999999979e+01
-5.200000000000000178e-01
-2.185000000000000142e+01
1.689999999999999858e+01
1.796999999999999886e+01
1.075999999999999979e+01
6.360000000000000320e+00
6.278000000000000114e+01
-4.097999999999999687e+01
4.471000000000000085e+01
-4.515999999999999659e+01
-6.092000000000000171e+01
1.185100000000000051e+02
-8.399999999999999689e-01
1.144300000000000068e+02
-1.027000000000000028e+02
-6.184000000000000341e+01
-9.237000000000000455e+01
1.298700000000000045e+02
4.003000000000000114e+01
-4.274000000000000199e+01
-2.127700000000000102e+02
7.975000000000000000e+01
2.147599999999999909e+02
-8.526999999999999602e+01
-8.554999999999999716e+01
-3.325000000000000000e+01
-1.010000000000000009e+00
6.328999999999999915e+01
-7.581999999999999318e+01
6.637999999999999545e+01
-1.080600000000000023e+02
7.200000000000000000e+01
1.219599999999999937e+02
-1.399000000000000021e+01
1.354300000000000068e+02
-2.793999999999999773e+02
3.018199999999999932e+02
6.875000000000000000e+01
9.203000000000000114e+01
-1.126299999999999955e+02
9.035999999999999943e+01
-7.545999999999999375e+01
-1.871200000000000045e+02
-2.511200000000000045e+02
3.473999999999999773e+02
1.810999999999999943e+02
1.155900000000000034e+02
-2.705699999999999932e+02
3.430000000000000160e+00
-3.221999999999999886e+01
-4.950000000000000178e+00
-1.499999999999999944e-01
-4.278999999999999915e+01
-6.870999999999999375e+01
-5.049999999999999822e+00
-9.830000000000000071e+00
9.009999999999999787e+00
-2.398999999999999844e+01
-2.689999999999999858e+01
-1.683999999999999986e+01
3.278999999999999915e+01
4.232000000000000028e+01
-3.016000000000000014e+01
-1.891000000000000014e+01
6.720999999999999375e+01
-7.540999999999999659e+01
-5.878000000000000114e+01
1.348000000000000043e+01
-1.448000000000000043e+01
1.328999999999999915e+01
3.224000000000000199e+01
1.994000000000000128e+01
-5.157000000000000028e+01
-1.400000000000000133e-01
7.092000000000000171e+01
-1.163000000000000078e+01
-1.655000000000000071e+01
1.159999999999999920e+00
3.680000000000000160e+00
1.565000000000000036e+01
9.019999999999999574e+00
-1.324000000000000021e+01
2.649999999999999911e+00
8.499999999999999778e-01
-3.819999999999999840e+00
1.150999999999999979e+01
-3.717999999999999972e+01
1.341999999999999993e+01
1.657000000000000028e+01
5.530000000000000249e+00
-9.089999999999999858e+00
-3.091000000000000014e+01
-1.899999999999999911e+00
5.546000000000000085e+01
-5.469999999999999751e+00
1.308999999999999986e+01
-1.114000000000000057e+01
2.126000000000000156e+01
-9.080000000000000071e+00
-2.332000000000000028e+01
2.151999999999999957e+01
2.096000000000000085e+01
-1.479999999999999982e+00
2.770000000000000018e+00
8.960000000000000853e+00
-4.839999999999999858e+00
-2.646000000000000085e+01
-2.457999999999999829e+01
-5.139999999999999680e+00
2.817999999999999972e+01
-2.769000000000000128e+01
3.189999999999999858e+01
-5.200000000000000178e-01
-7.450000000000000178e+00
8.900000000000000355e+00
-7.459999999999999964e+00
1.108999999999999986e+01
-1.729999999999999982e+00
-8.789999999999999147e+00
-3.939999999999999947e+00
2.169000000000000128e+01
-6.759999999999999787e+00
1.432000000000000028e+01
-1.976999999999999957e+01
-4.710999999999999943e+01
2.303000000000000114e+01
1.764000000000000057e+01
3.792999999999999972e+01
4.750999999999999801e+01
-2.501999999999999957e+01
-3.364000000000000057e+01
1.140900000000000034e+02
5.025999999999999801e+01
-2.680699999999999932e+02
-2.502299999999999898e+02
-4.917000000000000171e+01
2.544600000000000080e+02
1.173700000000000045e+02
-7.604000000000000625e+01
-2.982999999999999829e+01
-1.896999999999999886e+01
4.889999999999999858e+01
4.592000000000000171e+01
1.469999999999999929e+01
-5.700000000000000178e+00
3.083999999999999986e+01
2.146999999999999886e+01
1.709999999999999964e+00
-2.638000000000000114e+02
1.891500000000000057e+02
7.604999999999999716e+01
4.514999999999999858e+01
1.431800000000000068e+02
-7.719999999999999751e+00
-3.944700000000000273e+02
-3.893600000000000136e+02
-6.520999999999999375e+01
-2.437000000000000099e+01
4.464700000000000273e+02
1.147000000000000028e+02
-3.586700000000000159e+02
-8.150000000000000000e+01
1.433799999999999955e+02
-4.607099999999999795e+02
2.043499999999999943e+02
1.441399999999999864e+02
7.848000000000000398e+01
-1.978999999999999915e+01
-3.347999999999999687e+01
-8.410000000000000142e+00
3.443999999999999773e+01
1.340000000000000080e+00
-3.517000000000000171e+01
-3.385999999999999943e+01
-1.439999999999999947e+00
4.224000000000000199e+01
-2.396000000000000085e+01
2.419999999999999929e+01
1.761100000000000136e+02
-1.989699999999999989e+02
-1.164300000000000068e+02
-2.285999999999999943e+01
-3.660000000000000142e+00
1.375999999999999979e+01
6.215999999999999659e+01
-3.521999999999999886e+01
-9.900000000000000355e+00
-2.621000000000000085e+01
7.245999999999999375e+01
1.252800000000000011e+02
-3.246000000000000085e+01
7.365000000000000568e+01
1.408999999999999986e+01
-1.617999999999999972e+01
-6.704000000000000625e+01
3.970000000000000284e+01
7.318000000000000682e+01
1.514799999999999898e+02
-3.074800000000000182e+02
-2.253100000000000023e+02
2.742500000000000000e+02
2.799900000000000091e+02
-1.178299999999999983e+02
-2.175399999999999920e+02
7.598999999999999488e+01
2.076299999999999955e+02
-6.099999999999999867e-01
-1.730000000000000071e+01
-1.879499999999999886e+02
1.936899999999999977e+02
-2.183999999999999986e+01
4.500999999999999801e+01
-2.723999999999999844e+01
-6.142000000000000171e+01
4.700000000000000000e+01
-3.260000000000000142e+01
2.010399999999999920e+02
-2.526999999999999957e+01
-1.703999999999999915e+01
1.370000000000000107e+00
3.635000000000000142e+01
-4.760999999999999943e+01
-6.306000000000000227e+01
3.166000000000000014e+01
3.745000000000000284e+01
1.614000000000000057e+01
-1.468999999999999950e+01
9.550000000000000711e+00
6.035000000000000142e+01
-2.660000000000000142e+00
-5.275999999999999801e+01
-1.296000000000000085e+01
5.419999999999999929e+00
-1.264000000000000057e+01
1.042999999999999972e+01
8.212999999999999545e+01
2.098000000000000043e+01
1.381000000000000050e+01
-4.709999999999999964e+00
-2.832999999999999829e+01
-1.300999999999999979e+01
-1.391000000000000014e+01
1.683999999999999986e+01
2.160000000000000142e+00
7.769999999999999574e+00
1.457000000000000028e+01
1.306000000000000050e+01
-5.578999999999999915e+01
-4.642000000000000171e+01
-7.839999999999999858e+00
3.155000000000000071e+01
-1.247000000000000064e+01
-2.412000000000000099e+01
4.580000000000000071e+00
2.548000000000000043e+01
-3.759000000000000341e+01
2.459999999999999964e+00
3.141000000000000014e+01
-2.658999999999999986e+01
4.230000000000000426e+00
1.026999999999999957e+01
-2.176999999999999957e+01
8.240000000000000213e+00
-1.692999999999999972e+01
-5.660000000000000142e+00
1.869999999999999929e+01
-5.450000000000000178e+00
1.325999999999999979e+01
-2.332999999999999829e+01
-2.462999999999999901e+01
-1.043999999999999950e+01
3.510999999999999943e+01
9.859999999999999432e+00
2.194000000000000128e+01
1.241000000000000014e+01
-6.290000000000000036e+00
2.741000000000000014e+01
-5.860000000000000142e+01
4.415999999999999659e+01
-1.281000000000000050e+01
2.509999999999999787e+00
-8.800000000000000711e+00
-2.025000000000000000e+01
-2.012999999999999901e+01
-2.782000000000000028e+01
-1.200999999999999979e+01
5.771999999999999886e+01
8.034000000000000341e+01
-3.927000000000000313e+01
3.299999999999999822e+00
4.339999999999999858e+00
-1.408999999999999986e+01
1.314000000000000057e+01
4.845000000000000284e+01
-3.910000000000000142e+00
-7.135999999999999943e+01
8.984999999999999432e+01
9.951999999999999602e+01
-1.026800000000000068e+02
-2.450200000000000102e+02
-6.028999999999999915e+01
-6.409000000000000341e+01
1.977400000000000091e+02
6.725000000000000000e+01
1.325399999999999920e+02
-1.321699999999999875e+02
-1.966500000000000057e+02
2.919999999999999929e+00
2.580000000000000000e+02
-3.310000000000000142e+01
-8.671999999999999886e+01
2.231999999999999886e+02
3.888000000000000256e+01
-8.431999999999999318e+01
-8.968000000000000682e+01
-4.550000000000000000e+01
-1.810999999999999943e+01
5.746000000000000085e+01
-3.232000000000000028e+01
4.139999999999999680e+00
-3.370400000000000205e+02
-5.410000000000000142e+00
2.534000000000000057e+02
5.952000000000000313e+01
2.773999999999999844e+01
4.549999999999999822e+00
-1.846999999999999886e+01
-7.740000000000000213e+00
-7.299999999999999822e-01
-3.870000000000000107e+00
-1.431000000000000050e+01
3.621000000000000085e+01
-2.808999999999999986e+01
7.530000000000000249e+00
6.532999999999999829e+01
-6.046999999999999886e+01
9.454000000000000625e+01
3.997999999999999687e+01
-7.040000000000000036e+00
-1.953600000000000136e+02
1.043700000000000045e+02
8.678000000000000114e+01
6.171999999999999886e+01
1.256000000000000050e+01
-3.200000000000000178e+00
2.267999999999999972e+01
6.038000000000000256e+01
2.573999999999999844e+01
-6.634999999999999432e+01
-5.171000000000000085e+01
-7.070000000000000284e+01
1.943799999999999955e+02
2.164000000000000057e+01
1.696000000000000085e+01
1.532000000000000028e+01
-1.430200000000000102e+02
6.025999999999999801e+01
9.699999999999999289e+00
-5.919999999999999929e+00
1.810000000000000053e+00
-4.493999999999999773e+01
2.069999999999999840e+00
2.108999999999999986e+01
-2.307000000000000028e+01
3.764000000000000057e+01
3.645000000000000284e+01
-8.753000000000000114e+01
3.028000000000000114e+01
5.378999999999999915e+01
8.212000000000000455e+01
-2.810000000000000142e+01
-3.067000000000000171e+01
-2.894999999999999929e+01
6.712999999999999545e+01
-2.770000000000000018e+00
-1.181700000000000017e+02
4.878999999999999915e+01
5.617999999999999972e+01
-3.960999999999999943e+01
-1.746999999999999886e+01
1.305000000000000071e+01
-8.679999999999999716e+00
2.469999999999999929e+01
6.389999999999999680e+00
-5.870000000000000107e+00
3.062999999999999901e+01
-4.277000000000000313e+01
-8.351999999999999602e+01
6.990000000000000568e+01
2.101000000000000156e+01
3.747999999999999687e+01
-6.646999999999999886e+01
3.886999999999999744e+01
-4.467000000000000171e+01
-1.703000000000000114e+01
2.729999999999999982e+00
-1.629999999999999893e+00
1.885000000000000142e+01
-3.178000000000000114e+01
1.407000000000000028e+01
2.098999999999999844e+01
-7.640999999999999659e+01
5.679999999999999716e+00
-4.721999999999999886e+01
2.730999999999999872e+01
2.448000000000000043e+01
-4.440000000000000391e+00
-1.928000000000000114e+01
-3.499999999999999778e-01
-1.878999999999999915e+01
7.059999999999999609e+00
5.464999999999999858e+01
2.744000000000000128e+01
-6.750000000000000000e+01
-9.320000000000000284e+00
-1.987000000000000099e+01
-5.996999999999999886e+01
-2.450000000000000178e+00
1.089800000000000040e+02
1.523600000000000136e+02
-6.985999999999999943e+01
-8.121999999999999886e+01
-2.267999999999999972e+01
-1.205000000000000071e+01
-5.836999999999999744e+01
-1.393999999999999950e+01
6.440000000000000568e+01
5.253999999999999915e+01
1.099899999999999949e+02
-1.828100000000000023e+02
-4.118999999999999773e+01
2.110000000000000142e+01
4.978999999999999915e+01
1.603999999999999915e+01
3.575000000000000000e+01
-1.150999999999999979e+01
-2.979999999999999982e+00
-3.317400000000000091e+02
1.463199999999999932e+02
9.889000000000000057e+01
6.103000000000000114e+01
-3.939999999999999858e+01
-4.121999999999999886e+01
7.256999999999999318e+01
1.518199999999999932e+02
-4.400000000000000022e-01
-6.701999999999999602e+01
-8.390000000000000568e+00
1.998000000000000043e+01
1.808999999999999986e+01
-1.157000000000000028e+01
1.051999999999999957e+01
1.869999999999999929e+01
2.094000000000000128e+01
8.919999999999999929e+00
-1.726999999999999957e+01
-5.370000000000000284e+01
2.069999999999999840e+00
-4.599999999999999645e+00
7.889999999999999680e+00
-2.023000000000000043e+01
9.169999999999999929e+00
-8.660000000000000142e+00
4.900000000000000355e+00
8.900000000000000355e+00
-1.330000000000000071e+00
-2.500000000000000000e-01
-2.669999999999999929e+00
-7.669999999999999929e+00
3.939999999999999947e+00
7.800000000000000266e-01
5.389999999999999680e+00
1.080000000000000071e+01
7.610000000000000320e+00
-1.500000000000000000e+00
-1.870000000000000107e+00
1.817999999999999972e+01
-3.959999999999999964e+00
2.279999999999999805e+00
8.169999999999999929e+00
-1.510000000000000009e+00
1.789000000000000057e+01
2.500000000000000000e+00
-2.655999999999999872e+01
6.480000000000000426e+00
2.270000000000000018e+00
-8.189999999999999503e+00
1.019999999999999929e+01
7.290000000000000036e+00
-1.156000000000000050e+01
1.929999999999999938e+00
5.980000000000000426e+00
-8.279999999999999361e+00
-2.326000000000000156e+01
2.100000000000000000e+01
1.928000000000000114e+01
-3.037999999999999901e+01
-8.100000000000000533e-01
3.089999999999999858e+00
-3.500000000000000000e+00
1.969999999999999973e+00
1.213000000000000078e+01
1.493999999999999950e+01
6.679999999999999716e+00
1.300000000000000000e+01
5.419999999999999929e+00
1.760000000000000009e+00
1.358999999999999986e+01
-2.064999999999999858e+01
-4.542999999999999972e+01
7.089999999999999858e+00
1.773999999999999844e+01
-3.206000000000000227e+01
4.286999999999999744e+01
1.416000000000000014e+01
2.509999999999999787e+00
-3.668999999999999773e+01
2.750000000000000000e+00
-1.182000000000000028e+01
1.092999999999999972e+01
1.976999999999999957e+01
-1.296000000000000085e+01
1.239000000000000057e+01
1.551999999999999957e+01
-1.141999999999999993e+01
-1.909999999999999920e+00
-1.370000000000000107e+00
-2.185000000000000142e+01
-7.070000000000000284e+00
2.987000000000000099e+01
4.859000000000000341e+01
-3.050000000000000000e+01
-1.197000000000000064e+01
-7.600000000000000089e-01
-7.450000000000000178e+00
1.024000000000000021e+01
-7.759999999999999787e+00
-1.075600000000000023e+02
5.269999999999999574e+00
-9.540000000000000568e+01
-2.178999999999999915e+01
1.013199999999999932e+02
1.070900000000000034e+02
6.669999999999999929e+00
-8.765000000000000568e+01
-1.820000000000000000e+02
6.726999999999999602e+01
1.115499999999999972e+02
-1.106899999999999977e+02
-7.719999999999999751e+00
-1.660699999999999932e+02
2.259900000000000091e+02
-4.072999999999999687e+01
6.097999999999999687e+01
2.905999999999999872e+01
6.092999999999999972e+01
-3.946999999999999886e+01
1.469999999999999973e+00
1.739999999999999858e+01
3.232999999999999829e+01
1.318999999999999950e+01
-2.896999999999999886e+01
-3.996999999999999886e+01
-7.184000000000000341e+01
3.234000000000000341e+01
9.279999999999999716e+01
-1.666100000000000136e+02
6.967000000000000171e+01
-9.803000000000000114e+01
-5.786999999999999744e+01
1.266299999999999955e+02
1.669000000000000128e+01
2.133999999999999986e+01
-1.664999999999999858e+01
-2.228000000000000114e+01
-1.971999999999999886e+01
2.998999999999999844e+01
7.718999999999999773e+01
-8.337000000000000455e+01
-3.289000000000000057e+01
-3.720000000000000195e+00
7.399999999999999911e-01
1.919999999999999929e+01
9.189999999999999503e+00
-1.580000000000000071e+01
-2.576999999999999957e+01
3.632000000000000028e+01
1.894999999999999929e+01
3.796999999999999886e+01
-3.010999999999999943e+01
-3.322999999999999687e+01
9.659000000000000341e+01
-1.623000000000000043e+01
5.389999999999999680e+00
5.919999999999999929e+00
2.950000000000000178e+00
8.419999999999999929e+00
9.254999999999999716e+01
2.076500000000000057e+02
-2.608899999999999864e+02
-2.901600000000000250e+02
1.341999999999999993e+01
1.571999999999999886e+02
6.389000000000000057e+01
3.678000000000000114e+01
-9.289999999999999147e+00
6.423999999999999488e+01
-3.100000000000000000e+01
1.463000000000000078e+01
-7.070000000000000284e+01
2.969999999999999929e+01
1.466000000000000014e+01
-1.325000000000000000e+01
1.739999999999999991e+00
-6.165999999999999659e+01
-6.919999999999999929e+00
1.428100000000000023e+02
1.691899999999999977e+02
-1.915200000000000102e+02
7.045000000000000284e+01
-7.799999999999999822e+00
-3.557000000000000028e+01
4.799999999999999822e-01
5.009000000000000341e+01
-3.215999999999999659e+01
-3.285000000000000142e+01
-3.875000000000000000e+01
1.721000000000000085e+01
6.914000000000000057e+01
3.299999999999999822e+00
-1.007000000000000028e+01
1.962999999999999901e+01
-4.036999999999999744e+01
-2.676999999999999957e+01
1.193999999999999950e+01
-9.750000000000000000e+00
-8.220000000000000639e+00
-6.950000000000000178e+00
3.109999999999999876e+00
1.857000000000000028e+01
-7.120000000000000107e+00
-2.305000000000000071e+01
1.440000000000000036e+01
6.809999999999999609e+00
-1.101999999999999957e+01
1.308000000000000007e+01
9.109999999999999432e+00
-1.346000000000000085e+01
1.000000000000000021e-02
1.669000000000000128e+01
-1.084999999999999964e+01
-1.019999999999999929e+01
1.955999999999999872e+01
1.694000000000000128e+01
-1.122000000000000064e+01
4.009000000000000341e+01
6.537999999999999545e+01
-2.539999999999999858e+01
-3.539999999999999858e+01
-2.040000000000000036e+00
-5.839000000000000057e+01
-2.844999999999999929e+01
4.565999999999999659e+01
-4.196000000000000085e+01
2.216000000000000014e+01
-9.812000000000000455e+01
8.993999999999999773e+01
-1.697599999999999909e+02
-1.075699999999999932e+02
8.635999999999999943e+01
2.717000000000000171e+01
-5.043999999999999773e+01
1.628700000000000045e+02
6.459999999999999432e+01
-6.585999999999999943e+01
-8.160000000000000142e+00
-2.739000000000000057e+01
-1.944000000000000128e+01
-2.430000000000000160e+00
1.203999999999999915e+01
-1.307000000000000028e+01
5.040000000000000036e+00
2.455999999999999872e+01
-4.889999999999999680e+00
-3.098999999999999844e+01
3.055999999999999872e+01
3.340999999999999659e+01
-2.044000000000000128e+01
-8.820000000000000284e+00
1.916000000000000014e+01
5.999999999999999778e-01
-3.729999999999999716e+01
5.700000000000000178e+00
1.151999999999999957e+01
1.867000000000000171e+01
-1.327999999999999936e+01
5.919999999999999929e+00
-1.241000000000000014e+01
-6.530000000000000249e+00
1.498000000000000043e+01
-7.650000000000000355e+00
-2.789000000000000057e+01
1.091000000000000014e+01
2.490000000000000213e+00
-1.348000000000000043e+01
1.776999999999999957e+01
1.100999999999999979e+01
-1.100000000000000089e+00
-6.009999999999999787e+00
1.091999999999999993e+01
2.279999999999999805e+00
-2.260000000000000142e+01
1.134999999999999964e+01
7.509999999999999787e+00
-1.222000000000000064e+01
-7.030000000000000249e+00
6.450000000000000178e+00
5.030000000000000249e+00
-2.367000000000000171e+01
1.892000000000000171e+01
4.089999999999999858e+01
1.600000000000000033e-01
-1.633999999999999986e+01
3.403999999999999915e+01
-2.560000000000000053e+00
-2.696999999999999886e+01
1.186999999999999922e+01
1.181000000000000050e+01
-1.546000000000000085e+01
5.389999999999999680e+00
1.603000000000000114e+01
5.530000000000000249e+00
-2.762000000000000099e+01
1.433000000000000007e+01
3.319999999999999840e+00
-2.185000000000000142e+01
8.000000000000000000e+00
1.302999999999999936e+01
-5.419999999999999929e+00
-2.089000000000000057e+01
1.796000000000000085e+01
9.910000000000000142e+00
-1.812999999999999901e+01
1.417999999999999972e+01
1.394999999999999929e+01
-5.259999999999999787e+00
-1.887999999999999901e+01
1.157000000000000028e+01
-3.189999999999999947e+00
-3.407999999999999829e+01
-7.349999999999999645e+00
-1.123000000000000043e+01
-3.506000000000000227e+01
1.624000000000000057e+02
3.055000000000000071e+01
6.640999999999999659e+01
-1.163700000000000045e+02
1.521899999999999977e+02
-5.830000000000000071e+00
-2.664999999999999858e+01
4.410000000000000142e+01
2.357000000000000028e+01
1.703000000000000114e+01
-9.001999999999999602e+01
1.430300000000000011e+02
2.435999999999999943e+01
3.053999999999999915e+01
-7.821999999999999886e+01
3.409000000000000341e+01
4.000000000000000000e+00
-1.617999999999999972e+01
-1.350000000000000000e+01
2.923000000000000043e+01
-5.089999999999999858e+00
-2.548999999999999844e+01
-5.245000000000000284e+01
9.035999999999999943e+01
-9.921999999999999886e+01
4.902000000000000313e+01
-3.899000000000000199e+01
-3.709999999999999964e+00
3.144000000000000128e+01
7.750000000000000000e+00
3.839999999999999858e+00
4.890999999999999659e+01
1.764000000000000057e+01
7.867000000000000171e+01
-1.263599999999999994e+02
-3.253000000000000114e+01
-2.219999999999999929e+01
1.243999999999999950e+01
3.767000000000000171e+01
-6.523999999999999488e+01
-9.289000000000000057e+01
6.685999999999999943e+01
1.708999999999999986e+01
4.917999999999999972e+01
-4.250000000000000000e+00
9.730000000000000426e+00
-2.344999999999999929e+01
1.078900000000000006e+02
-2.762000000000000099e+01
6.325999999999999801e+01
3.117999999999999972e+01
3.166000000000000014e+01
-2.664000000000000057e+01
-2.678000000000000114e+01
1.350000000000000089e+00
4.250000000000000000e+00
-1.356000000000000050e+01
5.870000000000000107e+00
-2.230999999999999872e+01
1.125999999999999979e+01
8.628000000000000114e+01
8.076000000000000512e+01
1.133000000000000007e+01
-1.019800000000000040e+02
-8.759999999999999787e+00
-1.082000000000000028e+01
-4.124000000000000199e+01
2.910000000000000142e+01
1.917999999999999972e+01
-2.312999999999999901e+01
-8.359999999999999432e+00
-9.520999999999999375e+01
6.219999999999999751e+00
-1.063000000000000078e+01
-5.242999999999999972e+01
6.117999999999999972e+01
-1.181000000000000050e+01
4.367000000000000171e+01
6.218999999999999773e+01
5.615999999999999659e+01
8.419999999999999929e+00
-5.136999999999999744e+01
4.000000000000000083e-02
-4.011999999999999744e+01
-1.505000000000000071e+01
3.613000000000000256e+01
7.889999999999999680e+00
-4.919999999999999929e+00
1.350999999999999979e+01
1.261999999999999922e+01
1.685000000000000142e+01
-1.360000000000000098e+00
-4.067000000000000171e+01
2.230000000000000071e+01
-5.699999999999999512e-01
7.492000000000000171e+01
-1.020900000000000034e+02
-7.599999999999999645e+00
8.460000000000000853e+00
2.730999999999999872e+01
-1.629999999999999893e+00
-2.939999999999999858e+01
-3.621000000000000085e+01
2.251999999999999957e+01
4.950000000000000178e+00
4.381000000000000227e+01
4.725000000000000000e+01
4.904999999999999716e+01
-9.756000000000000227e+01
1.335399999999999920e+02
-6.737000000000000455e+01
-1.200000000000000000e+01
6.085000000000000142e+01
-8.560000000000000497e+00
-4.985000000000000142e+01
-4.214999999999999858e+01
-7.115000000000000568e+01
3.314000000000000057e+01
2.307000000000000028e+01
4.179999999999999716e+00
-1.639999999999999858e+01
5.927000000000000313e+01
4.563000000000000256e+01
-2.691000000000000014e+01
-2.009999999999999787e+00
1.962000000000000099e+01
-4.099999999999999645e+00
-8.349999999999999645e+00
-8.900000000000000133e-01
3.513000000000000256e+01
-1.428999999999999915e+01
2.729999999999999982e+00
8.580000000000000071e+00
-1.597000000000000064e+01
3.899999999999999911e+00
8.699999999999999956e-01
-1.003999999999999915e+01
1.000000000000000000e+00
1.716000000000000014e+01
4.690000000000000391e+00
-2.232000000000000028e+01
1.116000000000000014e+01
9.960000000000000853e+00
-9.019999999999999574e+00
2.799999999999999822e+00
7.660000000000000142e+00
9.499999999999999556e-01
-1.473000000000000043e+01
4.889999999999999680e+00
4.500000000000000111e-01
-2.269000000000000128e+01
1.227999999999999936e+01
4.410000000000000142e+00
-8.689999999999999503e+00
1.235999999999999943e+01
9.200000000000000400e-01
-9.519999999999999574e+00
-1.400999999999999979e+01
1.377999999999999936e+01
1.126999999999999957e+01
-1.456000000000000050e+01
1.340000000000000036e+01
-6.199999999999999956e-01
-1.591999999999999993e+01
5.620000000000000107e+00
1.168999999999999950e+01
-8.619999999999999218e+00
-1.347000000000000064e+01
1.664000000000000057e+01
-1.860000000000000098e+00
-2.301000000000000156e+01
2.232000000000000028e+01
5.889999999999999680e+00
-1.034999999999999964e+01
-8.560000000000000497e+00
2.017000000000000171e+01
-6.999999999999999556e-01
-2.166000000000000014e+01
2.078000000000000114e+01
2.220000000000000195e+00
-2.126000000000000156e+01
1.184999999999999964e+01
1.721000000000000085e+01
-1.061999999999999922e+01
-2.046999999999999886e+01
2.085000000000000142e+01
1.820000000000000062e+00
-1.642999999999999972e+01
4.424000000000000199e+01
6.467000000000000171e+01
-2.246000000000000085e+01
-4.040999999999999659e+01
-1.469999999999999929e+01
-6.830000000000000071e+00
-5.334000000000000341e+01
2.610000000000000142e+01
2.337000000000000099e+01
-1.955000000000000071e+01
2.200000000000000000e+01
2.194999999999999929e+01
-8.800000000000000044e-01
-6.410000000000000142e+00
8.779999999999999361e+00
-5.500000000000000000e+00
-4.649000000000000199e+01
-9.759999999999999787e+00
-5.574000000000000199e+01
4.657000000000000028e+01
6.131000000000000227e+01
2.692999999999999972e+01
-1.111400000000000006e+02
8.875000000000000000e+01
2.948000000000000043e+01
7.239000000000000057e+01
2.076999999999999957e+01
-7.392000000000000171e+01
7.889999999999999680e+00
-7.309999999999999609e+00
-5.200000000000000000e+01
-7.418999999999999773e+01
-5.507999999999999829e+01
1.887000000000000099e+01
1.016999999999999993e+01
-2.923999999999999844e+01
-1.350000000000000089e+00
1.848999999999999844e+01
-3.817000000000000171e+01
1.152600000000000051e+02
-1.649999999999999911e+00
-1.850000000000000000e+01
-5.225999999999999801e+01
1.328999999999999915e+01
1.700000000000000000e+01
-2.101999999999999957e+01
-1.750000000000000000e+00
2.598999999999999844e+01
-1.199999999999999956e-01
-1.227999999999999936e+01
2.317999999999999972e+01
2.300000000000000100e-01
-2.964999999999999858e+01
2.337999999999999901e+01
7.000000000000000000e+00
-1.264000000000000057e+01
1.705999999999999872e+01
5.610000000000000320e+00
-1.222000000000000064e+01
-9.970000000000000639e+00
8.039999999999999147e+00
-6.000000000000000000e+00
-2.726999999999999957e+01
1.261999999999999922e+01
8.220000000000000639e+00
-2.462999999999999901e+01
1.515000000000000036e+01
1.267999999999999972e+01
-7.280000000000000249e+00
1.399999999999999911e+00
1.565000000000000036e+01
-7.709999999999999964e+00
-1.775000000000000000e+01
1.555000000000000071e+01
7.500000000000000000e-01
-7.212000000000000455e+01
-1.982999999999999829e+01
8.210999999999999943e+01
-2.189000000000000057e+01
1.229800000000000040e+02
2.426999999999999957e+01
-1.269200000000000017e+02
-6.570999999999999375e+01
-9.785999999999999943e+01
5.634000000000000341e+01
8.006999999999999318e+01
4.161999999999999744e+01
2.364999999999999858e+01
-1.208000000000000007e+01
-4.730000000000000426e+00
-4.260999999999999943e+01
6.040000000000000036e+00
3.940999999999999659e+01
-1.393300000000000125e+02
3.699000000000000199e+01
8.099999999999999645e+00
7.223000000000000398e+01
1.001999999999999957e+01
-1.676999999999999957e+01
5.165999999999999659e+01
-6.239999999999999858e+01
-2.032000000000000028e+01
-1.452999999999999936e+01
2.371999999999999886e+01
-9.260999999999999943e+01
-6.250000000000000000e+01
-1.125100000000000051e+02
1.155000000000000071e+01
1.267000000000000028e+02
5.628000000000000114e+01
2.917999999999999972e+01
1.914000000000000057e+01
1.901000000000000156e+01
1.621000000000000085e+01
4.003999999999999915e+01
-1.258999999999999986e+01
-1.151999999999999957e+01
-1.000000000000000000e+01
1.607999999999999829e+01
-1.494999999999999929e+01
5.303999999999999915e+01
5.995000000000000284e+01
-7.099999999999999645e+00
-2.277599999999999909e+02
-4.882999999999999829e+01
-1.056899999999999977e+02
1.254200000000000017e+02
1.496699999999999875e+02
-2.225000000000000000e+01
-6.915000000000000568e+01
1.528700000000000045e+02
1.894999999999999929e+01
-7.801999999999999602e+01
5.172999999999999687e+01
-4.707999999999999829e+01
7.437000000000000455e+01
6.595999999999999375e+01
-6.579000000000000625e+01
-3.919999999999999929e+00
-4.289999999999999858e+01
-5.252000000000000313e+01
6.599999999999999645e+00
9.039999999999999147e+00
8.929999999999999716e+00
-8.699999999999999289e+00
1.655000000000000071e+01
1.086999999999999922e+01
-4.839999999999999858e+00
8.160000000000000142e+00
6.959999999999999964e+00
8.299999999999999600e-01
-2.287000000000000099e+01
-1.909999999999999920e+00
7.389999999999999680e+00
-1.524000000000000021e+01
2.017999999999999972e+01
-8.820000000000000284e+00
-8.599999999999999645e+00
-5.549999999999999822e+00
7.959999999999999964e+00
5.599999999999999645e+00
-1.139000000000000057e+01
-5.099999999999999645e+00
7.429999999999999716e+00
-5.959999999999999964e+00
-7.870000000000000107e+00
1.399999999999999911e+00
8.609999999999999432e+00
-1.075999999999999979e+01
1.689999999999999947e+00
2.080000000000000071e+00
-1.733999999999999986e+01
5.120000000000000107e+00
9.970000000000000639e+00
-2.029999999999999805e+00
-6.809999999999999609e+00
1.365000000000000036e+01
4.429999999999999716e+00
-1.582000000000000028e+01
7.790000000000000036e+00
1.044999999999999929e+01
-1.119999999999999929e+01
-5.000000000000000000e-01
7.940000000000000391e+00
-5.379999999999999893e+00
-1.441000000000000014e+01
1.067999999999999972e+01
1.979999999999999982e+00
-1.764999999999999858e+01
1.350000000000000000e+01
1.063000000000000078e+01
-7.330000000000000071e+00
-1.065000000000000036e+01
1.483999999999999986e+01
9.470000000000000639e+00
-1.155000000000000071e+01
9.699999999999999289e+00
4.209999999999999964e+00
-6.669999999999999929e+00
-5.509999999999999787e+00
1.840000000000000080e+00
-9.029999999999999361e+00
-1.014000000000000057e+01
1.542999999999999972e+01
-1.614999999999999858e+01
-1.399000000000000021e+01
9.710000000000000853e+00
1.056000000000000050e+01
-1.023000000000000043e+01
-6.799999999999999822e+00
1.739999999999999858e+01
5.139999999999999680e+00
-1.431000000000000050e+01
-2.099999999999999922e-01
8.220000000000000639e+00
-1.744999999999999929e+01
1.150999999999999979e+01
-6.230000000000000426e+00
6.940000000000000391e+00
-1.185999999999999943e+01
9.699999999999999289e+00
7.099999999999999645e+00
-2.235999999999999943e+01
1.290000000000000036e+01
6.230000000000000426e+00
-2.448999999999999844e+01
-4.040000000000000036e+00
1.680999999999999872e+01
5.179999999999999716e+00
-1.660000000000000142e+01
1.309999999999999964e+01
6.269999999999999574e+00
6.599999999999999645e+00
-1.799999999999999933e-01
1.041000000000000014e+01
3.879999999999999893e+00
-1.188000000000000078e+01
1.810000000000000142e+01
2.319999999999999840e+00
2.632999999999999829e+01
-9.619999999999999218e+00
4.567000000000000171e+01
1.864000000000000057e+01
-7.681999999999999318e+01
-1.407400000000000091e+02
-8.573000000000000398e+01
1.797199999999999989e+02
-1.682100000000000080e+02
-1.860000000000000000e+02
4.643999999999999773e+01
1.002000000000000028e+02
-2.655999999999999872e+01
-8.129000000000000625e+01
6.018999999999999773e+01
-1.517999999999999972e+01
-5.929999999999999716e+00
1.021000000000000085e+01
-2.001999999999999957e+01
-5.696000000000000085e+01
-1.118199999999999932e+02
1.248000000000000043e+01
-7.764000000000000057e+01
4.860000000000000320e+00
1.400500000000000114e+02
-9.045000000000000284e+01
-1.603300000000000125e+02
-1.250000000000000000e+00
6.493999999999999773e+01
-4.600000000000000200e-01
2.948999999999999844e+01
9.470000000000000639e+00
-3.536999999999999744e+01
1.213000000000000078e+01
3.290999999999999659e+01
-5.200000000000000178e+00
-1.285999999999999943e+01
2.601000000000000156e+01
7.290000000000000036e+00
-1.882999999999999829e+01
1.778000000000000114e+01
1.535999999999999943e+01
-1.166999999999999993e+01
-1.892999999999999972e+01
-4.353999999999999915e+01
2.227299999999999898e+02
-3.137999999999999901e+01
-3.000000000000000000e+00
-3.689999999999999947e+00
-2.089999999999999858e+01
3.439999999999999947e+00
7.780000000000000249e+00
-1.179999999999999938e+00
-7.790000000000000036e+00
1.193999999999999950e+01
5.699999999999999512e-01
-1.905000000000000071e+01
2.080000000000000071e+00
2.709999999999999964e+00
-1.391000000000000014e+01
9.769999999999999574e+00
1.417999999999999972e+01
-5.030000000000000249e+00
-2.755999999999999872e+01
1.241000000000000014e+01
-1.149999999999999911e+00
4.589999999999999858e+00
-1.350000000000000089e+00
-6.820000000000000284e+00
-4.253999999999999915e+01
2.299999999999999822e+00
1.260999999999999943e+01
-8.480000000000000426e+00
-1.566000000000000014e+01
1.971999999999999886e+01
3.765999999999999659e+01
-4.714999999999999858e+01
4.049999999999999822e+00
1.015000000000000036e+01
-2.607000000000000028e+01
8.429999999999999716e+00
1.151999999999999957e+01
-2.696000000000000085e+01
7.937999999999999545e+01
8.850000000000000000e+01
-4.800000000000000000e+01
-1.914000000000000057e+01
3.037999999999999901e+01
7.370999999999999375e+01
-5.510000000000000142e+01
-3.925000000000000000e+01
-2.459999999999999964e+00
3.393999999999999773e+01
-2.267999999999999972e+01
-3.277000000000000313e+01
7.121999999999999886e+01
-4.946999999999999886e+01
2.251000000000000156e+01
-3.856000000000000227e+01
-4.335999999999999943e+01
1.015400000000000063e+02
-3.399999999999999911e+00
-4.290999999999999659e+01
1.837000000000000099e+01
-1.310999999999999943e+01
-1.707999999999999829e+01
-2.069999999999999929e+01
4.610000000000000320e+00
1.183999999999999986e+01
-1.746000000000000085e+01
5.790000000000000036e+00
6.200000000000000178e+00
-2.475000000000000000e+01
1.819000000000000128e+01
1.223000000000000043e+01
-1.158000000000000007e+01
-2.020000000000000018e+00
1.588000000000000078e+01
5.730000000000000426e+00
-1.541999999999999993e+01
1.075999999999999979e+01
1.149999999999999911e+00
-2.769999999999999929e+01
1.701000000000000156e+01
9.029999999999999361e+00
-2.446999999999999886e+01
-1.939999999999999858e+01
4.996999999999999886e+01
8.699999999999999289e+00
-2.267000000000000171e+01
1.917999999999999972e+01
4.000000000000000222e-01
-2.153000000000000114e+01
9.650000000000000355e+00
1.158000000000000007e+01
-8.689999999999999503e+00
8.999999999999999667e-02
1.094999999999999929e+01
2.087999999999999901e+01
-3.169999999999999929e+01
-2.876999999999999957e+01
2.219000000000000128e+01
9.709000000000000341e+01
-2.592000000000000171e+01
-2.848000000000000043e+01
-3.299000000000000199e+01
-2.003000000000000114e+01
1.583000000000000007e+01
-1.383000000000000007e+01
-3.100000000000000000e+01
1.964000000000000057e+01
2.157000000000000028e+01
2.479999999999999982e+00
-2.842999999999999972e+01
1.882000000000000028e+01
5.709999999999999964e+00
-1.007000000000000028e+01
1.450999999999999979e+01
3.299999999999999822e+00
-1.233999999999999986e+01
8.599999999999999867e-01
1.041999999999999993e+01
7.900000000000000355e-01
-2.060000000000000142e+01
1.492999999999999972e+01
1.049000000000000021e+01
-1.603999999999999915e+01
1.261999999999999922e+01
2.817000000000000171e+01
-1.575000000000000000e+01
-3.263000000000000256e+01
1.039000000000000057e+01
-2.430000000000000160e+00
-1.599000000000000021e+01
1.361999999999999922e+01
5.099999999999999645e+00
-1.862999999999999901e+01
1.357000000000000028e+01
2.276000000000000156e+01
-3.192999999999999972e+01
-3.173000000000000043e+01
2.973000000000000043e+01
6.509999999999999787e+00
-5.107000000000000028e+01
1.182000000000000028e+01
-4.580000000000000071e+00
-1.735000000000000142e+01
1.991000000000000014e+01
-2.560000000000000053e+00
5.129999999999999716e+01
-4.321000000000000085e+01
5.606000000000000227e+01
7.806000000000000227e+01
-2.253999999999999915e+01
-3.418999999999999773e+01
-2.158999999999999986e+01
-3.415999999999999659e+01
2.310000000000000053e+00
-9.435999999999999943e+01
1.661599999999999966e+02
2.791000000000000014e+01
1.468999999999999950e+01
-5.678999999999999915e+01
-8.039999999999999147e+00
-4.103999999999999915e+01
-2.991000000000000014e+01
-5.135000000000000142e+01
1.086200000000000045e+02
2.023000000000000043e+01
2.273000000000000043e+01
-1.788799999999999955e+02
-4.341800000000000068e+02
2.068000000000000114e+02
-3.492999999999999972e+01
4.507999999999999829e+01
7.950000000000000178e+00
2.416000000000000014e+01
-3.114999999999999858e+01
2.328999999999999915e+01
-1.116999999999999993e+01
-2.621000000000000227e+02
8.054999999999999716e+01
1.957000000000000028e+01
-5.471000000000000085e+01
2.801999999999999957e+01
4.178999999999999915e+01
3.282999999999999829e+01
-4.031000000000000227e+01
2.992000000000000171e+01
2.294000000000000128e+01
-1.653600000000000136e+02
4.719999999999999751e+00
-8.210000000000000853e+00
-1.842000000000000171e+01
4.095000000000000284e+01
-5.359000000000000341e+01
-1.714000000000000057e+01
2.782000000000000028e+01
-1.476999999999999957e+01
-2.951000000000000156e+01
2.880000000000000071e+01
1.614000000000000057e+01
-1.019999999999999929e+01
1.962999999999999901e+01
7.440000000000000391e+00
-4.679999999999999716e+00
2.569999999999999840e+00
4.950000000000000178e+00
3.299999999999999822e+00
-2.750000000000000000e+01
1.018999999999999950e+01
-3.900000000000000133e-01
-7.089999999999999858e+00
1.047000000000000064e+01
-2.600000000000000089e-01
-6.300000000000000044e-01
4.839999999999999858e+00
7.790000000000000036e+00
-1.450000000000000000e+01
-2.796000000000000085e+01
1.985999999999999943e+01
1.580000000000000071e+00
-4.379999999999999893e+00
-2.370000000000000107e+00
2.785000000000000142e+01
1.792000000000000171e+01
1.823000000000000043e+01
7.670999999999999375e+01
-7.970000000000000284e+01
-2.542999999999999972e+01
1.941000000000000014e+01
1.935999999999999943e+01
-3.790000000000000036e+00
-3.182000000000000028e+01
1.900000000000000022e-01
-2.085000000000000142e+01
-7.139000000000000057e+01
1.325099999999999909e+02
1.212699999999999960e+02
-1.251299999999999955e+02
-1.594799999999999898e+02
2.282999999999999829e+01
1.507500000000000000e+02
7.003000000000000114e+01
4.153999999999999915e+01
-1.078100000000000023e+02
-3.082999999999999829e+01
2.475000000000000000e+01
-2.910000000000000142e+00
-3.700999999999999801e+01
6.500000000000000222e-01
6.360000000000000320e+00
-2.537000000000000099e+01
2.176999999999999957e+01
8.689999999999999503e+00
-1.792000000000000171e+01
1.998999999999999844e+01
2.620000000000000107e+00
-1.673000000000000043e+01
8.080000000000000071e+00
1.309999999999999964e+01
1.280000000000000027e+00
-1.050000000000000000e+01
1.001999999999999957e+01
1.799999999999999933e-01
-2.053999999999999915e+01
-1.750000000000000000e+00
9.230000000000000426e+00
-5.549999999999999822e+00
-4.469999999999999751e+00
9.820000000000000284e+00
-2.600000000000000089e-01
-2.167000000000000171e+01
1.119999999999999929e+01
1.599000000000000021e+01
-3.299999999999999822e+00
-1.935999999999999943e+01
8.519999999999999574e+00
2.419999999999999929e+00
-2.496000000000000085e+01
9.640000000000000568e+00
2.799999999999999822e+00
-2.326999999999999957e+01
2.142999999999999972e+01
1.896999999999999886e+01
-7.080000000000000071e+00
-8.369999999999999218e+00
2.850000000000000089e+00
-1.320000000000000062e+00
-2.316000000000000014e+01
8.009999999999999787e+00
6.190000000000000391e+00
-1.805000000000000071e+01
1.109999999999999964e+01
1.148000000000000043e+01
-6.339999999999999858e+00
-6.940000000000000391e+00
1.919999999999999929e+01
7.879999999999999893e+00
-2.601000000000000156e+01
3.830000000000000071e+00
1.021000000000000085e+01
-2.237000000000000099e+01
2.779999999999999805e+00
2.008999999999999986e+01
-7.929999999999999716e+00
-2.378000000000000114e+01
1.612000000000000099e+01
5.349999999999999645e+00
-2.373999999999999844e+01
1.851999999999999957e+01
1.289000000000000057e+01
-6.780000000000000249e+00
4.000000000000000222e-01
1.130000000000000071e+01
-3.229999999999999982e+00
-2.905999999999999872e+01
1.912999999999999901e+01
8.609999999999999432e+00
-2.207000000000000028e+01
1.402999999999999936e+01
1.424000000000000021e+01
-3.069999999999999840e+00
-9.070000000000000284e+00
9.609999999999999432e+00
-1.959999999999999964e+00
-3.286999999999999744e+01
-5.699999999999999512e-01
1.708999999999999986e+01
-1.996999999999999886e+01
7.879999999999999893e+00
1.987000000000000099e+01
-9.529999999999999361e+00
-6.830000000000000071e+00
1.817000000000000171e+01
7.969999999999999751e+00
-2.039999999999999858e+01
1.299000000000000021e+01
4.839999999999999858e+00
-2.580999999999999872e+01
-2.540000000000000036e+00
1.230000000000000071e+01
-1.492999999999999972e+01
3.990000000000000213e+00
2.594999999999999929e+01
4.379999999999999893e+00
-2.764000000000000057e+01
1.914999999999999858e+01
1.166999999999999993e+01
-1.511999999999999922e+01
5.469999999999999751e+00
1.675000000000000000e+01
-2.176000000000000156e+01
-1.540000000000000036e+01
2.233999999999999986e+01
8.439999999999999503e+00
-3.925999999999999801e+01
2.539000000000000057e+01
8.460000000000000853e+00
-2.064000000000000057e+01
1.547000000000000064e+01
7.940000000000000391e+00
-2.310999999999999943e+01
-5.330000000000000071e+00
2.171000000000000085e+01
-3.600000000000000089e+00
-1.099000000000000021e+01
2.632999999999999829e+01
1.639999999999999858e+01
-2.589000000000000057e+01
5.250000000000000000e+00
8.109999999999999432e+00
-2.551000000000000156e+01
1.742999999999999972e+01
-1.500000000000000000e+00
-2.992000000000000171e+01
7.360000000000000320e+00
1.926999999999999957e+01
-6.019999999999999574e+00
-2.859999999999999876e+00
1.632999999999999829e+01
8.250000000000000000e+00
-2.262999999999999901e+01
1.794000000000000128e+01
2.870000000000000107e+00
-2.483999999999999986e+01
1.259999999999999964e+01
6.000000000000000000e+00
-1.325000000000000000e+01
-7.870000000000000107e+00
1.533999999999999986e+01
-5.759999999999999787e+00
-3.549999999999999822e+00
1.571000000000000085e+01
7.600000000000000089e-01
-1.914000000000000057e+01
4.799999999999999822e+00
5.179999999999999716e+00
-3.450999999999999801e+01
1.443999999999999950e+01
9.980000000000000426e+00
-2.598000000000000043e+01
2.028000000000000114e+01
2.023999999999999844e+01
-5.209999999999999964e+00
-1.707000000000000028e+01
1.390000000000000036e+01
2.660000000000000142e+00
-2.078999999999999915e+01
1.343999999999999950e+01
-1.649999999999999911e+00
-2.953999999999999915e+01
1.135999999999999943e+01
9.310000000000000497e+00
-1.739999999999999858e+01
7.519999999999999574e+00
2.062000000000000099e+01
-7.800000000000000266e-01
-8.630000000000000782e+00
8.939999999999999503e+00
-6.950000000000000178e+00
-3.424000000000000199e+01
2.598999999999999844e+01
6.179999999999999716e+00
-2.846999999999999886e+01
1.399000000000000021e+01
1.080000000000000071e+00
-6.660000000000000142e+00
7.879999999999999893e+00
2.126999999999999957e+01
2.509999999999999787e+00
-1.343999999999999950e+01
5.540000000000000036e+00
-6.709999999999999964e+00
-3.221999999999999886e+01
1.882000000000000028e+01
8.789999999999999147e+00
-2.707999999999999829e+01
1.124000000000000021e+01
1.746000000000000085e+01
-5.610000000000000320e+00
-1.096000000000000085e+01
1.440000000000000036e+01
-7.099999999999999645e-01
-1.723999999999999844e+01
1.226999999999999957e+01
-3.299999999999999822e+00
-2.625000000000000000e+01
2.176999999999999957e+01
1.050000000000000000e+01
-2.100000000000000000e+01
1.196000000000000085e+01
1.244999999999999929e+01
-2.380999999999999872e+01
2.870000000000000107e+00
6.780000000000000249e+00
7.199999999999999734e-01
-3.540999999999999659e+01
1.678999999999999915e+01
1.021000000000000085e+01
-1.633999999999999986e+01
1.621999999999999886e+01
1.181000000000000050e+01
-2.099999999999999922e-01
-2.573000000000000043e+01
1.583999999999999986e+01
9.470000000000000639e+00
7.769999999999999574e+00
1.671999999999999886e+01
5.129999999999999893e+00
-4.459999999999999964e+00
-1.149000000000000021e+01
1.231000000000000050e+01
7.860000000000000320e+00
-2.110999999999999943e+01
-1.889999999999999902e+00
-4.620000000000000107e+00
-1.921999999999999886e+01
8.539999999999999147e+00
6.290000000000000036e+00
-2.016000000000000014e+01
1.082000000000000028e+01
1.227999999999999936e+01
-2.448000000000000043e+01
3.009999999999999787e+00
8.099999999999999645e+00
-7.179999999999999716e+00
9.029999999999999361e+00
9.240000000000000213e+00
-6.200000000000000178e+00
-5.910000000000000142e+00
2.205000000000000071e+01
3.640000000000000124e+00
-3.621000000000000085e+01
-4.509999999999999787e+00
-9.959999999999999432e+01
7.519999999999999574e+00
1.450800000000000125e+02
6.748000000000000398e+01
6.556999999999999318e+01
9.967000000000000171e+01
-2.839800000000000182e+02
-2.283999999999999986e+01
2.753399999999999750e+02
4.456000000000000227e+01
-1.464600000000000080e+02
-6.526000000000000512e+01
3.535999999999999943e+01
-2.530999999999999872e+01
-5.103000000000000114e+01
6.469999999999999751e+00
-2.403000000000000114e+01
-1.851999999999999957e+01
-2.912000000000000099e+01
-2.511899999999999977e+02
9.165000000000000568e+01
2.357500000000000000e+02
1.206000000000000050e+01
1.667999999999999972e+01
-3.509999999999999787e+00
5.696999999999999886e+01
3.207999999999999829e+01
-2.012500000000000000e+02
5.006000000000000227e+01
-2.723999999999999844e+01
-3.178000000000000114e+01
9.009000000000000341e+01
-1.319399999999999977e+02
9.615000000000000568e+01
-5.117999999999999972e+01
6.245000000000000284e+01
4.140999999999999659e+01
1.607000000000000028e+01
1.350800000000000125e+02
9.130000000000000782e+00
-2.135900000000000034e+02
-3.267999999999999972e+01
-1.099000000000000021e+01
-2.089000000000000057e+01
3.603000000000000114e+01
2.362999999999999901e+01
-1.687000000000000099e+01
-9.570000000000000284e+00
3.438000000000000256e+01
9.429999999999999716e+00
-2.608999999999999986e+01
1.040000000000000036e+01
3.213000000000000256e+01
3.299999999999999822e+00
1.705999999999999872e+01
4.290000000000000036e+00
-1.942000000000000171e+01
-6.389999999999999680e+00
1.298700000000000045e+02
2.992999999999999972e+01
-8.528000000000000114e+01
5.799999999999999822e+00
1.623000000000000043e+01
-2.117999999999999972e+01
2.532000000000000028e+01
7.679999999999999716e+00
-1.346000000000000085e+01
5.000000000000000000e+00
1.694999999999999929e+01
-1.857000000000000028e+01
-2.655000000000000071e+01
2.176000000000000156e+01
6.290000000000000036e+00
-2.555000000000000071e+01
2.025000000000000000e+01
9.380000000000000782e+00
-4.889999999999999680e+00
6.899999999999999467e-01
1.353999999999999915e+01
-1.637000000000000099e+01
-2.230000000000000071e+01
1.211999999999999922e+01
1.449999999999999956e+00
-2.548999999999999844e+01
1.488000000000000078e+01
1.332000000000000028e+01
-1.607000000000000028e+01
-1.969999999999999973e+00
2.003000000000000114e+01
1.939999999999999947e+00
-1.980000000000000071e+01
8.859999999999999432e+00
1.550000000000000044e+00
-1.458000000000000007e+01
1.585999999999999943e+01
5.250000000000000000e+00
-1.832999999999999829e+01
5.860000000000000320e+00
1.058000000000000007e+01
-7.200000000000000178e+00
-1.046000000000000085e+01
1.381000000000000050e+01
6.200000000000000178e+00
-1.958999999999999986e+01
1.478999999999999915e+01
8.990000000000000213e+00
-1.598000000000000043e+01
1.083000000000000007e+01
9.509999999999999787e+00
-1.314000000000000057e+01
-1.317999999999999972e+01
1.614000000000000057e+01
3.080000000000000071e+00
-2.539000000000000057e+01
1.798000000000000043e+01
1.876999999999999957e+01
-3.990000000000000213e+00
1.300000000000000044e-01
8.650000000000000355e+00
8.849999999999999645e+00
-4.229999999999999716e+01
1.131000000000000050e+01
1.169999999999999929e+00
-2.519999999999999929e+01
4.900000000000000355e+00
1.109999999999999964e+01
-5.919999999999999929e+00
6.027000000000000313e+01
-1.523000000000000043e+01
-3.606000000000000227e+01
1.796999999999999886e+01
1.694999999999999929e+01
-7.530000000000000249e+00
-9.630000000000000782e+00
-8.100000000000000533e-01
-2.510999999999999943e+01
1.870000000000000107e+00
3.125000000000000000e+01
-5.419999999999999929e+00
-1.650000000000000000e+01
3.910000000000000142e+00
3.450000000000000178e+00
-1.368999999999999950e+01
1.667000000000000171e+01
9.100000000000000311e-01
-1.628999999999999915e+01
-2.500000000000000000e+00
6.139999999999999680e+00
-2.459999999999999964e+00
-1.928999999999999915e+01
1.667999999999999972e+01
5.209999999999999964e+00
-1.455000000000000071e+01
1.440000000000000036e+01
6.700000000000000178e+00
-9.980000000000000426e+00
-3.330000000000000071e+00
7.019999999999999574e+00
3.589999999999999858e+00
-1.280000000000000071e+01
2.932000000000000028e+01
-7.919999999999999929e+00
-1.632000000000000028e+01
3.000000000000000000e+01
1.125000000000000000e+01
-1.671000000000000085e+01
5.110000000000000320e+00
8.529999999999999361e+00
-9.029999999999999361e+00
-7.169999999999999929e+00
-9.240000000000000213e+00
-6.706999999999999318e+01
5.779999999999999716e+01
2.325900000000000034e+02
-1.965600000000000023e+02
1.044500000000000028e+02
6.640000000000000568e+01
-2.236999999999999886e+02
8.257999999999999829e+01
4.186999999999999744e+01
-1.310999999999999943e+01
1.399999999999999911e+00
9.189999999999999503e+00
2.237999999999999901e+01
1.138000000000000078e+01
-1.011999999999999922e+01
-6.450000000000000178e+00
1.939999999999999858e+01
-3.069999999999999840e+00
-1.712000000000000099e+01
1.217999999999999972e+01
9.570000000000000284e+00
-5.860000000000000320e+00
9.799999999999999822e-01
7.870000000000000107e+00
-2.629999999999999893e+00
-1.338000000000000078e+01
7.650000000000000355e+00
3.129999999999999893e+00
1.760000000000000009e+00
7.453000000000000114e+01
5.453000000000000114e+01
-4.396999999999999886e+01
-5.028000000000000114e+01
-1.131400000000000006e+02
-8.017000000000000171e+01
9.678000000000000114e+01
3.853999999999999915e+01
-2.519000000000000128e+01
1.293899999999999864e+02
-1.644699999999999989e+02
2.007100000000000080e+02
-7.929999999999999716e+01
3.421999999999999886e+01
-4.046999999999999886e+01
-6.759000000000000341e+01
2.018300000000000125e+02
-3.504300000000000068e+02
4.593500000000000227e+02
-2.692200000000000273e+02
3.230600000000000023e+02
-2.278199999999999932e+02
5.288799999999999955e+02
-3.320299999999999727e+02
3.511499999999999773e+02
-2.238100000000000023e+02
4.071200000000000045e+02
-1.810000000000000000e+02
7.690000000000000391e+00
-3.607999999999999829e+01
-4.818999999999999773e+01
1.495500000000000114e+02
9.318000000000000682e+01
-1.580399999999999920e+02
2.007400000000000091e+02
1.325600000000000023e+02
-3.071000000000000085e+01
-1.592999999999999972e+01
-5.982000000000000028e+01
-2.507999999999999829e+01
-6.629999999999999893e+00
4.769999999999999574e+00
-2.255999999999999872e+01
1.975000000000000000e+01
1.830000000000000071e+01
-3.385999999999999943e+01
-2.999999999999999889e-02
1.851999999999999957e+01
1.320000000000000062e+00
-2.000000000000000042e-02
1.225000000000000000e+01
5.950000000000000178e+00
-3.399999999999999911e+00
-7.870000000000000107e+00
1.239999999999999991e+00
-1.500000000000000000e+01
1.030000000000000071e+01
-5.290000000000000036e+00
-2.366000000000000014e+01
1.812000000000000099e+01
1.228999999999999915e+01
-1.498000000000000043e+01
5.580000000000000071e+00
1.049000000000000021e+01
-1.042999999999999972e+01
1.590000000000000080e+00
1.228999999999999915e+01
-9.900000000000000355e+00
-1.191000000000000014e+01
2.066000000000000014e+01
-3.339999999999999858e+00
-3.739999999999999858e+01
1.716000000000000014e+01
1.193999999999999950e+01
-5.820000000000000284e+00
1.251999999999999957e+01
1.685999999999999943e+01
4.990000000000000213e+00
-2.250000000000000000e+01
1.114000000000000057e+01
9.400000000000000355e+00
-2.380000000000000071e+01
-4.243999999999999773e+01
9.685999999999999943e+01
3.611999999999999744e+01
1.660999999999999943e+01
4.429999999999999716e+00
6.979999999999999716e+01
-4.521999999999999886e+01
-1.230300000000000011e+02
-1.522700000000000102e+02
9.873000000000000398e+01
-3.005999999999999872e+01
7.634000000000000341e+01
-4.438000000000000256e+01
8.440999999999999659e+01
-1.290200000000000102e+02
-1.077199999999999989e+02
4.086999999999999744e+01
6.529999999999999716e+01
5.500000000000000444e-01
-4.599999999999999645e+00
3.367000000000000171e+01
1.474000000000000021e+01
-2.585999999999999943e+01
1.217999999999999972e+01
-1.350000000000000089e+00
-6.200000000000000178e+00
1.016999999999999993e+01
1.003999999999999915e+01
-8.380000000000000782e+00
-1.383999999999999986e+01
2.148000000000000043e+01
9.910000000000000142e+00
-2.812999999999999901e+01
1.723999999999999844e+01
8.000000000000000000e+00
-1.406000000000000050e+01
8.160000000000000142e+00
1.260999999999999943e+01
-1.067999999999999972e+01
-1.901000000000000156e+01
1.685999999999999943e+01
8.199999999999999512e-01
-2.698000000000000043e+01
2.512000000000000099e+01
1.301999999999999957e+01
-1.646999999999999886e+01
2.950000000000000178e+00
1.607000000000000028e+01
-1.119999999999999929e+01
-1.316999999999999993e+01
1.614000000000000057e+01
-3.790000000000000036e+00
-3.200000000000000000e+01
2.139999999999999858e+01
7.589999999999999858e+00
-2.248999999999999844e+01
1.363000000000000078e+01
1.808999999999999986e+01
-8.800000000000000711e+00
-1.236999999999999922e+01
1.657000000000000028e+01
-4.120000000000000107e+00
-3.080999999999999872e+01
2.042999999999999972e+01
4.150000000000000355e+00
-2.096000000000000085e+01
1.525999999999999979e+01
1.591999999999999993e+01
-1.034999999999999964e+01
-1.894000000000000128e+01
2.382000000000000028e+01
6.339999999999999858e+00
-2.148000000000000043e+01
1.438000000000000078e+01
1.100000000000000000e+01
-1.311999999999999922e+01
6.620000000000000107e+00
8.339999999999999858e+00
-9.119999999999999218e+00
-2.146000000000000085e+01
1.757000000000000028e+01
2.540000000000000036e+00
-2.512000000000000099e+01
1.783999999999999986e+01
1.416999999999999993e+01
-1.026999999999999957e+01
-1.100999999999999979e+01
1.568999999999999950e+01
-3.580000000000000071e+00
-2.375000000000000000e+01
2.003000000000000114e+01
2.250000000000000000e+00
-2.439999999999999858e+01
1.215000000000000036e+01
1.459999999999999964e+01
-1.267999999999999972e+01
-1.456000000000000050e+01
2.580000000000000071e+01
2.020000000000000018e+00
-2.505000000000000071e+01
2.137000000000000099e+01
1.257000000000000028e+01
-7.000000000000000000e+00
-1.896000000000000085e+01
1.989000000000000057e+01
6.300000000000000044e-01
-2.214999999999999858e+01
2.228999999999999915e+01
3.609999999999999876e+00
-1.673999999999999844e+01
-2.589999999999999858e+00
1.733999999999999986e+01
-6.250000000000000000e+00
-3.144999999999999929e+01
2.441000000000000014e+01
9.130000000000000782e+00
-1.357000000000000028e+01
4.200000000000000178e+00
1.235999999999999943e+01
-7.719999999999999751e+00
-1.935999999999999943e+01
1.960999999999999943e+01
-1.850000000000000089e+00
-2.667000000000000171e+01
2.098999999999999844e+01
8.580000000000000071e+00
-1.767999999999999972e+01
3.200000000000000178e+00
1.755000000000000071e+01
-5.879999999999999893e+00
-1.735999999999999943e+01
1.608999999999999986e+01
-1.780000000000000027e+00
-2.614000000000000057e+01
2.000000000000000000e+01
2.339999999999999858e+00
-1.762000000000000099e+01
1.664000000000000057e+01
6.780000000000000249e+00
-5.099999999999999645e+00
-8.869999999999999218e+00
1.580000000000000071e+01
-5.059999999999999609e+00
-2.191000000000000014e+01
1.716000000000000014e+01
2.099999999999999922e-01
-2.333999999999999986e+01
1.776000000000000156e+01
8.330000000000000071e+00
-1.531000000000000050e+01
-3.609999999999999876e+00
1.917000000000000171e+01
-3.069999999999999840e+00
-2.701999999999999957e+01
2.098999999999999844e+01
8.339999999999999858e+00
-1.941000000000000014e+01
1.334999999999999964e+01
1.084999999999999964e+01
-1.730000000000000071e+01
-3.799999999999999822e+00
1.830000000000000071e+01
-9.140000000000000568e+00
-2.580000000000000071e+01
2.446000000000000085e+01
6.639999999999999680e+00
-2.080000000000000071e+01
1.989999999999999858e+01
1.086999999999999922e+01
-1.603000000000000114e+01
1.219999999999999929e+01
1.352999999999999936e+01
-1.773000000000000043e+01
-9.630000000000000782e+00
2.030000000000000071e+01
-5.500000000000000000e+00
-3.057999999999999829e+01
2.383999999999999986e+01
9.640000000000000568e+00
-1.662999999999999901e+01
7.429999999999999716e+00
1.338000000000000078e+01
-1.097000000000000064e+01
-1.293999999999999950e+01
1.803999999999999915e+01
-5.179999999999999716e+00
-3.352000000000000313e+01
2.398000000000000043e+01
7.259999999999999787e+00
-1.958999999999999986e+01
1.280000000000000071e+01
1.823999999999999844e+01
-8.019999999999999574e+00
-7.000000000000000000e+00
1.635000000000000142e+01
-4.889999999999999680e+00
-2.573000000000000043e+01
2.276000000000000156e+01
-1.799999999999999933e-01
-2.617000000000000171e+01
1.967999999999999972e+01
1.000000000000000000e+01
-1.469999999999999929e+01
6.230000000000000426e+00
1.130000000000000071e+01
-7.900000000000000355e+00
-7.959999999999999964e+00
1.416000000000000014e+01
-4.459999999999999964e+00
-2.605000000000000071e+01
2.178000000000000114e+01
4.139999999999999680e+00
-2.007999999999999829e+01
1.549000000000000021e+01
1.365000000000000036e+01
-1.035999999999999943e+01
-3.660000000000000142e+00
1.267999999999999972e+01
-7.559999999999999609e+00
-2.575000000000000000e+01
1.794999999999999929e+01
1.469999999999999973e+00
-2.430999999999999872e+01
8.130000000000000782e+00
1.597000000000000064e+01
-5.730000000000000426e+00
-2.328000000000000114e+01
1.978999999999999915e+01
4.030000000000000249e+00
-2.614999999999999858e+01
1.871000000000000085e+01
1.290000000000000036e+01
-2.103999999999999915e+01
6.190000000000000391e+00
2.128000000000000114e+01
-6.589999999999999858e+00
-2.146999999999999886e+01
2.235000000000000142e+01
2.459999999999999964e+00
-2.535000000000000142e+01
2.032000000000000028e+01
5.389999999999999680e+00
-2.992999999999999972e+01
1.996999999999999886e+01
1.283999999999999986e+01
-2.130000000000000071e+01
6.839999999999999858e+00
1.826000000000000156e+01
-9.410000000000000142e+00
-1.100000000000000000e+01
1.376999999999999957e+01
-4.809999999999999609e+00
-2.135999999999999943e+01
2.133999999999999986e+01
-2.040000000000000036e+00
-3.028999999999999915e+01
1.978999999999999915e+01
1.233000000000000007e+01
-1.680999999999999872e+01
-3.919999999999999929e+00
1.776999999999999957e+01
-3.680000000000000160e+00
-2.353000000000000114e+01
1.678999999999999915e+01
1.000000000000000021e-02
-3.130000000000000071e+01
2.103000000000000114e+01
1.418999999999999950e+01
-7.110000000000000320e+00
1.408999999999999986e+01
-5.996999999999999886e+01
1.259500000000000028e+02
-6.142000000000000171e+01
5.717000000000000171e+01
3.446999999999999886e+01
-4.160999999999999943e+01
-4.528000000000000114e+01
9.682999999999999829e+01
3.085999999999999943e+01
2.505000000000000071e+01
5.570000000000000284e+01
4.889999999999999680e+00
-8.168000000000000682e+01
4.232999999999999829e+01
-2.389000000000000057e+01
-5.238000000000000256e+01
1.003400000000000034e+02
-8.287000000000000455e+01
-2.850000000000000000e+01
4.865999999999999659e+01
1.889999999999999902e+00
2.969999999999999929e+01
-1.989999999999999858e+01
5.782999999999999829e+01
-2.996999999999999886e+01
-2.510999999999999943e+01
2.908999999999999986e+01
-3.150000000000000000e+01
-8.909999999999999432e+01
-1.650000000000000000e+01
4.822999999999999687e+01
-1.175000000000000000e+01
-4.946000000000000085e+01
2.794000000000000128e+01
-8.482999999999999829e+01
-3.925999999999999801e+01
1.932999999999999829e+01
-1.592899999999999920e+02
-5.110000000000000320e+00
1.196299999999999955e+02
-3.207999999999999829e+01
-4.700000000000000000e+01
8.951000000000000512e+01
-4.559000000000000341e+01
3.151999999999999957e+01
-2.219600000000000080e+02
1.207300000000000040e+02
1.886500000000000057e+02
-1.558100000000000023e+02
-2.005999999999999943e+02
1.702299999999999898e+02
1.233400000000000034e+02
-1.179800000000000040e+02
2.350200000000000102e+02
-6.081000000000000227e+01
1.721999999999999886e+01
-1.474300000000000068e+02
-4.327000000000000313e+01
6.367999999999999972e+01
-7.257999999999999829e+01
-6.559000000000000341e+01
-5.631000000000000227e+01
1.635500000000000114e+02
7.019999999999999574e+00
-1.798999999999999844e+01
2.041000000000000014e+01
1.989999999999999991e+00
4.139999999999999858e+01
-1.015000000000000036e+01
-3.382999999999999829e+01
-9.300000000000000488e-01
7.199999999999999734e-01
-1.407000000000000028e+01
1.000000000000000000e+01
1.002999999999999936e+01
1.075000000000000000e+01
-7.084999999999999432e+01
-1.048000000000000043e+01
-5.679999999999999716e+00
3.842999999999999972e+01
3.331000000000000227e+01
-1.149000000000000021e+01
-1.842999999999999972e+01
5.646000000000000085e+01
4.800999999999999801e+01
3.046999999999999886e+01
7.540000000000000036e+00
-2.760000000000000142e+01
1.812999999999999901e+01
-3.270000000000000284e+01
-1.209999999999999964e+01
6.999999999999999556e-01
-3.545000000000000284e+01
5.821000000000000085e+01
-1.439000000000000057e+01
1.661100000000000136e+02
-4.642000000000000171e+01
-5.061999999999999744e+01
2.510000000000000142e+01
-7.620999999999999375e+01
-9.748000000000000398e+01
1.219999999999999973e+00
-4.153999999999999915e+01
1.233299999999999983e+02
-1.317999999999999972e+01
-1.424000000000000057e+02
5.947999999999999687e+01
-6.650000000000000355e+00
5.559000000000000341e+01
1.522800000000000011e+02
-7.826000000000000512e+01
-5.839999999999999858e+01
-8.210000000000000853e+00
-7.684000000000000341e+01
-2.116000000000000014e+01
6.339000000000000057e+01
7.825000000000000000e+01
-5.121000000000000085e+01
-4.945000000000000284e+01
8.000000000000000000e+00
-2.517000000000000171e+01
3.203000000000000114e+01
8.509999999999999432e+01
-3.692000000000000171e+01
-4.290000000000000036e+00
4.980000000000000426e+00
4.879999999999999716e+01
-6.781000000000000227e+01
-1.892999999999999972e+01
5.004999999999999716e+01
-1.307800000000000011e+02
1.419699999999999989e+02
-4.607999999999999829e+01
-1.669000000000000128e+01
5.765999999999999659e+01
1.147000000000000064e+01
-8.954000000000000625e+01
1.417999999999999972e+01
7.406999999999999318e+01
-4.584000000000000341e+01
-1.435999999999999943e+01
1.941000000000000014e+01
-1.226999999999999957e+01
-9.693999999999999773e+01
3.514000000000000057e+01
3.083999999999999986e+01
-4.075000000000000000e+01
1.419999999999999929e+00
1.982999999999999829e+01
-1.389000000000000057e+01
1.252600000000000051e+02
5.939000000000000057e+01
-8.019999999999999574e+00
-1.520000000000000018e+00
-3.419999999999999929e+00
3.520000000000000284e+01
-3.979999999999999982e+00
-8.379000000000000625e+01
-1.655600000000000023e+02
3.446999999999999886e+01
1.231299999999999955e+02
3.073000000000000043e+01
-2.482999999999999829e+01
2.969999999999999929e+01
-8.929999999999999716e+00
6.269999999999999574e+00
1.646999999999999886e+01
-3.688000000000000256e+01
1.175100000000000051e+02
-5.735000000000000142e+01
-9.628000000000000114e+01
-3.284000000000000341e+01
6.089999999999999858e+00
4.290999999999999659e+01
6.282000000000000028e+01
7.682999999999999829e+01
-1.548000000000000114e+02
-5.917000000000000171e+01
1.352999999999999936e+01
-5.853999999999999915e+01
7.017000000000000171e+01
9.826999999999999602e+01
7.626000000000000512e+01
-1.503999999999999915e+01
-2.057899999999999920e+02
1.021899999999999977e+02
9.131000000000000227e+01
7.039000000000000057e+01
3.860999999999999943e+01
-7.184999999999999432e+01
-7.031999999999999318e+01
-1.655999999999999872e+01
-3.396999999999999886e+01
4.100000000000000000e+01
3.057000000000000028e+01
-1.590000000000000036e+01
-4.060000000000000142e+01
-4.621999999999999886e+01
1.708999999999999986e+01
6.418000000000000682e+01
-1.505000000000000071e+01
-4.174000000000000199e+01
1.671000000000000085e+01
1.143299999999999983e+02
-1.951999999999999957e+01
-7.407999999999999829e+01
-6.730000000000000426e+00
1.341000000000000014e+01
-5.209999999999999964e+00
2.357999999999999829e+01
3.642000000000000171e+01
1.971000000000000085e+01
8.369999999999999218e+00
-4.749000000000000199e+01
-6.417000000000000171e+01
-6.136999999999999744e+01
1.450999999999999979e+01
2.514000000000000057e+01
-2.826000000000000156e+01
4.959000000000000341e+01
7.851999999999999602e+01
-1.139999999999999902e+00
-1.214800000000000040e+02
-2.841000000000000014e+01
1.158100000000000023e+02
-5.028000000000000114e+01
1.687000000000000099e+01
1.030000000000000027e+00
-1.552999999999999936e+01
5.768999999999999773e+01
9.714000000000000057e+01
1.506000000000000050e+01
-8.615999999999999659e+01
-8.776000000000000512e+01
2.060000000000000142e+01
-1.570800000000000125e+02
1.881999999999999886e+02
-2.071999999999999886e+01
-6.097999999999999687e+01
1.855600000000000023e+02
1.049200000000000017e+02
-1.054399999999999977e+02
-1.084000000000000057e+02
9.159000000000000341e+01
-1.483000000000000007e+01
-1.143900000000000006e+02
1.922599999999999909e+02
3.450999999999999801e+01
-3.367000000000000171e+01
-8.684000000000000341e+01
1.560000000000000053e+00
6.837000000000000455e+01
1.046000000000000085e+01
-1.506000000000000050e+01
-1.083000000000000007e+01
-2.020000000000000018e+00
-1.737999999999999901e+01
-8.951000000000000512e+01
1.584000000000000057e+02
8.696999999999999886e+01
9.576999999999999602e+01
-8.451000000000000512e+01
-1.089000000000000057e+02
2.917000000000000171e+01
-6.996999999999999886e+01
-7.725000000000000000e+01
8.140000000000000568e+00
5.857000000000000028e+01
8.318999999999999773e+01
3.066000000000000014e+01
-5.247999999999999687e+01
1.189000000000000057e+01
-4.886999999999999744e+01
-6.870000000000000107e+00
-1.850000000000000000e+01
-4.974000000000000199e+01
1.558700000000000045e+02
4.057999999999999829e+01
-4.570000000000000284e+01
3.080000000000000071e+00
8.537000000000000455e+01
6.509999999999999787e+00
1.514600000000000080e+02
-3.319999999999999840e+00
-4.496000000000000085e+01
-2.219999999999999929e+01
-4.360999999999999943e+01
2.903000000000000114e+01
-1.776000000000000156e+01
-5.999999999999999778e-01
6.620999999999999375e+01
-7.304000000000000625e+01
5.730000000000000426e+00
1.066999999999999993e+01
-1.505000000000000071e+01
-2.782000000000000028e+01
2.992000000000000171e+01
-2.960000000000000142e+01
-6.765999999999999659e+01
-3.678999999999999915e+01
-1.617999999999999972e+01
1.140799999999999983e+02
1.099899999999999949e+02
8.757999999999999829e+01
-2.960600000000000023e+02
1.896200000000000045e+02
-4.735000000000000142e+01
5.718999999999999773e+01
-7.995999999999999375e+01
1.100000000000000006e-01
-3.399999999999999911e+00
-3.656000000000000227e+01
2.248999999999999844e+01
8.210000000000000853e+00
7.200000000000000178e+00
2.075000000000000000e+01
-1.159999999999999920e+00
-2.246000000000000085e+01
3.502000000000000313e+01
1.549000000000000021e+01
-1.607999999999999829e+01
8.820000000000000284e+00
1.486999999999999922e+01
1.550000000000000000e+01
-4.735999999999999943e+01
-3.839999999999999858e+00
3.319999999999999840e+00
-2.244000000000000128e+01
1.476999999999999957e+01
-3.830000000000000071e+00
-1.250000000000000000e+00
-5.620000000000000107e+00
1.657999999999999829e+01
3.250000000000000000e+00
-2.339999999999999858e+00
4.280000000000000249e+00
9.980000000000000426e+00
5.110000000000000320e+00
-1.322000000000000064e+01
2.892999999999999972e+01
-2.398000000000000043e+01
8.199999999999999512e-01
5.603999999999999915e+01
6.096000000000000085e+01
-7.581999999999999318e+01
-4.852000000000000313e+01
-5.099999999999999645e+00
-7.700000000000000178e-01
-2.630000000000000071e+01
1.557000000000000028e+01
3.240000000000000213e+00
-1.919000000000000128e+01
1.006000000000000050e+01
1.284999999999999964e+01
-8.330000000000000071e+00
-5.540000000000000036e+00
1.966000000000000014e+01
2.729999999999999982e+00
-2.198000000000000043e+01
1.953999999999999915e+01
5.830000000000000071e+00
-2.105999999999999872e+01
1.438000000000000078e+01
3.720000000000000195e+00
-5.629999999999999893e+00
-1.159999999999999964e+01
4.459999999999999964e+00
2.649999999999999911e+00
-2.394999999999999929e+01
2.085000000000000142e+01
1.018999999999999950e+01
-1.124000000000000021e+01
1.020000000000000018e+00
9.539999999999999147e+00
-1.305000000000000071e+01
-1.855000000000000071e+01
1.662999999999999901e+01
3.370000000000000107e+00
-2.826000000000000156e+01
2.248999999999999844e+01
9.650000000000000355e+00
-1.421000000000000085e+01
-1.432000000000000028e+01
3.496000000000000085e+01
-2.540000000000000036e+00
-2.707000000000000028e+01
2.121999999999999886e+01
3.259999999999999787e+00
-2.035999999999999943e+01
2.253000000000000114e+01
1.388000000000000078e+01
-1.002999999999999936e+01
-1.586999999999999922e+01
2.910000000000000142e+01
7.290000000000000036e+00
-1.946000000000000085e+01
1.476999999999999957e+01
2.098000000000000043e+01
-1.476999999999999957e+01
-8.080000000000000071e+00
1.263000000000000078e+01
1.393999999999999950e+01
-3.313000000000000256e+01
7.620000000000000107e+00
6.209999999999999964e+00
-2.428000000000000114e+01
1.156000000000000050e+01
8.900000000000000133e-01
-9.900000000000000355e+00
1.649999999999999911e+00
1.014000000000000057e+01
-4.570000000000000284e+00
-1.905999999999999872e+01
1.597000000000000064e+01
4.990000000000000213e+00
-2.087000000000000099e+01
1.313000000000000078e+01
5.410000000000000142e+00
-1.466000000000000014e+01
1.117999999999999972e+01
1.371000000000000085e+01
-4.580000000000000071e+00
-1.689999999999999858e+01
1.603000000000000114e+01
3.660000000000000142e+00
-1.384999999999999964e+01
1.014000000000000057e+01
3.180000000000000160e+00
-1.208000000000000007e+01
-3.279999999999999805e+00
4.200000000000000178e+00
6.049999999999999822e+00
-1.259999999999999964e+01
1.732999999999999829e+01
-6.300000000000000044e-01
-2.746999999999999886e+01
1.501999999999999957e+01
1.203999999999999915e+01
-1.055000000000000071e+01
-4.400000000000000022e-01
1.160999999999999943e+01
-3.520000000000000018e+00
-2.257000000000000028e+01
1.735000000000000142e+01
1.929999999999999938e+00
-1.867999999999999972e+01
1.416999999999999993e+01
1.109999999999999964e+01
-1.097000000000000064e+01
-9.750000000000000000e+00
1.700000000000000000e+01
4.030000000000000249e+00
-1.919000000000000128e+01
1.271000000000000085e+01
