1593547182.00
64.000000
-0.00
-0.00
-0.00
-0.00
-0.00
-0.00
-0.00
-0.00
-0.00
-0.00
0.00
0.01
0.01
-0.00
-0.03
-0.05
-0.05
0.00
0.13
0.36
0.66
1.01
1.37
1.72
2.06
2.40
2.79
3.24
3.80
4.42
5.06
5.66
6.20
6.68
7.15
7.68
8.31
9.14
10.09
11.04
11.88
12.56
13.14
13.76
14.65
15.96
17.91
20.32
22.90
25.38
27.58
29.57
31.68
34.32
37.81
42.54
48.15
54.10
59.83
64.97
69.58
74.14
79.34
85.71
93.76
103.00
112.62
121.73
129.77
136.75
143.30
150.75
157.77
166.64
177.95
191.79
206.97
220.57
228.25
225.36
208.53
176.87
132.76
80.05
23.07
-34.94
-92.44
-149.16
-205.23
-260.37
-313.74
-363.87
-409.83
-450.91
-486.50
-515.74
-537.23
-549.22
-549.96
-538.37
-514.21
-478.67
-433.88
-382.45
-327.02
-269.84
-212.63
-156.66
-102.95
-52.37
-5.91
35.57
71.42
101.35
125.52
144.42
158.74
169.17
176.33
180.62
182.35
181.78
179.22
175.02
169.54
163.16
156.17
148.80
141.20
133.48
125.74
118.06
110.50
103.10
95.85
88.74
81.77
74.97
68.45
62.29
56.59
51.36
46.52
41.90
37.34
32.78
28.28
24.05
20.35
17.38
15.14
13.42
11.82
9.94
7.61
4.96
2.41
0.49
-0.42
-0.32
0.37
0.93
0.68
-0.64
-2.79
-5.07
-6.63
-6.96
-6.13
-4.68
-3.44
-3.04
-3.73
-5.44
-8.05
-11.39
-14.90
-17.25
-16.47
-10.75
0.24
14.43
27.69
35.36
34.50
25.31
11.04
-3.66
-14.92
-21.20
-23.35
-23.38
-23.06
-23.08
-23.14
-22.83
-22.39
-22.78
-24.98
-28.97
-33.14
-34.47
-29.90
-17.88
0.51
21.78
41.62
56.86
66.70
72.52
76.35
79.20
80.28
77.70
69.96
57.18
41.18
24.56
9.50
-3.04
-13.07
-21.05
-27.29
-31.79
-34.58
-36.04
-36.99
-38.33
-40.58
-43.55
-46.30
-47.60
-46.37
-42.21
-35.44
-26.94
-17.78
-8.93
-1.11
5.10
9.17
10.63
9.28
5.57
0.53
-4.41
-8.01
-9.74
-9.80
-8.77
-6.90
-3.70
1.87
10.67
22.57
35.94
48.05
56.28
59.31
57.87
54.24
51.05
49.92
50.73
51.89
51.46
48.16
42.07
34.18
25.62
17.20
8.94
0.89
-6.63
-12.84
-17.02
-18.92
-19.02
-18.30
-17.65
-17.41
-17.18
-16.24
-13.96
-10.34
-6.12
-2.48
-0.62
-1.33
-4.70
-10.06
-16.14
-21.40
-24.50
-24.70
-22.15
-17.87
-13.39
-10.24
-9.35
-10.78
-13.85
-17.52
-20.95
-23.79
-26.22
-28.70
-31.59
-34.93
-38.38
-41.39
-43.30
-43.35
-40.60
-34.28
-24.02
-10.38
5.11
20.25
32.59
40.10
41.55
36.75
26.45
12.12
-4.16
-19.77
-32.02
-38.93
-39.67
-34.38
-23.57
-8.27
9.79
28.16
43.45
52.66
54.36
49.31
40.31
31.01
23.53
17.35
10.18
0.15
-12.35
-24.65
-32.98
-33.96
-25.47
-7.74
16.78
44.29
70.70
91.91
104.19
104.79
88.87
57.41
18.56
-16.77
-41.32
-53.30
-54.55
-48.34
-39.45
-29.48
-18.87
-8.17
1.73
9.93
16.24
21.17
25.23
28.57
31.18
33.01
33.69
32.56
29.22
24.21
19.08
15.65
15.07
17.33
21.10
23.97
23.42
17.93
7.88
-4.57
-16.55
-25.59
-30.40
-31.07
-28.81
-25.24
-21.72
-18.93
-16.87
-15.28
-13.93
-12.68
-11.53
-10.48
-9.54
-8.76
-8.26
-8.31
-9.25
-11.36
-14.57
-18.48
-22.41
-25.62
-27.56
-28.04
-27.14
-25.14
-22.29
-18.81
-14.92
-10.83
-6.80
-3.06
0.29
3.30
6.16
9.11
12.28
15.59
18.82
21.58
23.42
23.99
23.12
20.87
17.45
13.25
8.62
3.90
-0.64
-4.81
-8.32
-10.94
-12.53
-13.15
-13.14
-13.11
-13.66
-15.17
-17.59
-20.43
-23.02
-24.78
-25.56
-25.70
-25.83
-26.48
-27.74
-29.13
-29.83
-29.04
-26.33
-21.75
-15.67
-8.51
-0.63
7.72
16.25
24.53
32.01
38.15
42.59
45.23
46.21
45.86
44.56
42.71
40.61
38.35
35.81
32.71
28.77
23.97
18.60
13.26
8.56
4.89
2.18
-0.03
-2.40
-5.50
-9.56
-14.38
-19.49
-24.41
-28.83
-32.70
-36.10
-39.14
-41.81
-44.12
-46.26
-48.68
-51.93
-56.32
-61.57
-66.69
-70.33
-71.30
-69.14
-64.26
-57.67
-50.42
-43.21
-36.22
-29.32
-22.36
-15.41
-8.78
-2.88
2.02
5.91
9.07
11.92
14.90
18.16
21.47
24.34
26.19
26.76
26.20
25.09
24.11
23.60
23.40
22.93
21.54
18.95
15.35
11.27
7.28
3.61
0.18
-3.28
-6.94
-10.72
-14.39
-17.65
-20.38
-22.75
-25.14
-27.97
-31.36
-35.00
-38.25
-40.25
-40.30
-38.16
-34.06
-28.68
-22.73
-16.73
-10.85
-4.95
1.09
7.14
12.70
17.14
19.95
21.00
20.66
19.60
18.59
18.14
18.34
18.94
19.50
19.68
19.32
18.57
17.72
16.96
16.36
15.74
14.92
13.77
12.31
10.70
9.07
7.37
5.40
2.89
-0.24
-3.79
-7.26
-10.06
-11.76
-12.40
-12.47
-12.77
-13.97
-16.21
-18.96
-21.15
-21.64
-19.77
-15.56
-9.69
-3.05
3.58
9.86
15.80
21.49
26.88
31.61
35.26
37.46
38.17
37.71
36.59
35.36
34.25
33.20
31.83
29.81
27.02
23.80
20.80
18.73
17.96
18.30
19.08
19.49
18.95
17.34
15.07
12.70
10.66
9.02
7.54
5.91
3.94
1.66
-0.70
-2.96
-5.14
-7.42
-10.06
-13.16
-16.52
-19.61
-21.80
-22.56
-21.66
-19.25
-15.81
-11.86
-7.84
-3.99
-0.36
3.04
6.11
8.61
10.21
10.67
10.00
8.48
6.62
4.92
3.69
2.94
2.43
1.93
1.39
1.02
1.22
2.27
4.11
6.27
8.07
8.97
8.85
8.09
7.34
7.12
7.44
7.79
7.35
5.49
2.10
-2.35
-6.91
-10.74
-13.32
-14.72
-15.46
-16.19
-17.43
-19.36
-21.83
-24.43
-26.74
-28.33
-28.90
-28.20
-25.98
-22.11
-16.57
-9.66
-2.00
5.56
12.16
17.24
20.69
22.86
24.37
25.83
27.50
29.21
30.47
30.79
29.87
27.86
25.27
22.75
20.86
19.82
19.45
19.35
19.08
18.39
17.29
15.95
14.54
13.10
11.47
9.51
7.20
4.70
2.36
0.49
-0.82
-1.81
-2.91
-4.52
-6.68
-9.11
-11.27
-12.77
-13.64
-14.32
-15.44
-17.33
-19.81
-22.09
-23.16
-22.25
-19.15
-14.33
-8.67
-3.07
1.91
6.18
9.97
13.62
17.26
20.69
23.46
25.16
25.58
24.85
23.36
21.58
19.80
18.08
16.29
14.25
11.98
9.65
7.60
6.10
5.16
4.51
3.67
2.22
-0.08
-3.11
-6.46
-9.62
-12.26
-14.44
-16.52
-18.91
-21.84
-25.11
-28.24
-30.73
-32.36
-33.33
-34.11
-35.03
-36.09
-36.86
-36.65
-34.96
-31.65
-27.00
-21.54
-15.74
-9.86
-3.91
2.19
8.45
14.63
20.26
24.79
27.80
29.22
29.33
28.67
27.79
26.97
26.16
25.03
23.34
21.08
18.58
16.39
14.98
14.45
14.50
14.55
14.08
12.81
10.78
8.35
5.90
3.72
1.89
0.38
-0.92
-2.07
-3.08
-4.00
-4.91
-5.98
-7.42
-9.43
-12.06
-15.13
-18.30
-21.04
-22.85
-23.30
-22.19
-19.49
-15.36
-10.06
-3.89
2.75
9.37
15.36
20.16
23.35
24.89
25.14
24.75
24.41
24.50
24.96
25.25
24.67
22.72
19.41
15.33
11.41
8.55
7.15
7.02
7.45
7.61
6.89
5.09
2.45
-0.63
-3.76
-6.76
-9.64
-12.41
-15.05
-17.41
-19.29
-20.55
-21.30
-21.86
-22.61
-23.81
-25.39
-27.00
-28.16
-28.57
-28.37
-28.06
-28.19
-29.00
-30.13
-30.69
-29.66
-26.34
-20.77
-13.68
-6.21
0.62
6.22
10.61
14.13
17.12
19.69
21.67
22.82
23.08
22.74
22.34
22.40
23.09
24.10
24.78
24.51
23.04
20.72
18.28
16.52
15.82
16.01
16.40
16.23
15.02
12.85
10.22
7.78
5.94
4.69
3.68
2.44
0.70
-1.44
-3.63
-5.45
-6.70
-7.48
-8.18
-9.16
-10.62
-12.42
-14.09
-15.02
-14.73
-13.01
-10.06
-6.32
-2.27
1.69
5.42
8.92
12.20
15.12
17.30
18.21
17.43
14.86
10.87
6.18
1.58
-2.36
-5.56
-8.33
-11.09
-14.08
-17.11
-19.63
-21.05
-21.02
-19.65
-17.40
-14.85
-12.42
-10.18
-8.07
-6.00
-4.10
-2.73
-2.29
-2.89
-4.22
-5.61
-6.30
-5.85
-4.37
-2.55
-1.31
-1.38
-2.99
-5.78
-9.10
-12.24
-14.74
-16.46
-17.36
-17.37
-16.31
-13.94
-10.18
-5.25
0.29
5.60
9.74
11.77
11.02
7.28
1.07
-6.42
-13.39
-17.89
-18.35
-14.25
-6.52
2.79
11.57
18.57
24.03
29.34
36.17
45.42
56.61
68.02
77.34
82.66
82.44
74.97
58.28
31.13
-5.37
-46.57
-84.87
-112.33
-123.72
-119.03
-103.19
-83.38
-65.11
-49.87
-35.29
-17.83
1.79
19.08
28.36
26.97
16.40
0.10
-19.59
-42.67
-70.56
-103.72
-139.82
-174.08
-201.19
-219.37
-229.08
-232.58
-232.67
-231.41
-229.04
-224.40
-216.17
-203.73
-187.52
-168.28
-146.06
-119.82
-90.44
-59.02
-27.06
3.58
31.51
56.03
77.51
97.92
119.65
144.44
172.96
204.23
235.61
264.09
286.58
300.80
307.27
307.86
304.49
298.29
289.19
276.04
258.98
238.62
216.12
195.38
180.12
172.47
171.91
175.77
179.60
180.90
177.62
168.48
156.48
145.84
140.47
142.51
152.40
168.46
190.42
216.09
223.20
194.79
126.86
32.94
-64.40
-138.40
-187.05
-212.38
-218.16
-209.35
-187.91
-156.39
-118.79
-80.51
-46.98
-23.07
-9.08
-3.57
-4.36
-6.52
-5.34
2.12
15.87
33.50
50.86
66.10
78.58
88.89
100.21
116.26
139.87
171.67
209.88
250.05
287.39
316.42
331.89
331.03
313.95
283.60
244.56
201.64
158.24
116.74
78.08
42.30
9.50
-20.28
-47.32
-72.56
-97.44
-123.66
-151.74
-180.92
-209.50
-235.67
-258.39
-277.79
-295.10
-312.21
-331.85
-355.81
-384.06
-414.50
-443.63
-467.63
-483.75
-491.35
-492.29
-491.73
-494.11
-500.78
-509.10
-513.69
-508.61
-489.75
-456.37
-411.39
-363.05
-319.35
-285.50
-262.97
-250.48
-245.24
-243.93
-243.09
-239.43
-233.20
-223.64
-208.63
-185.75
-154.71
-118.17
-80.94
-47.92
-1.22
65.92
148.44
232.05
303.28
355.82
389.94
409.05
417.16
417.73
409.79
392.82
368.01
339.60
310.69
283.66
259.84
239.66
223.10
207.28
190.41
172.68
155.89
141.68
130.86
123.14
117.25
112.05
105.18
95.58
83.80
71.55
60.49
51.72
45.54
41.66
39.57
37.84
35.42
31.95
27.81
23.52
19.71
16.66
14.31
12.31
9.82
6.21
1.36
-4.27
-9.87
-14.43
-17.40
-18.84
-19.36
-19.85
-21.14
-23.58
-26.99
-30.45
-32.25
-30.75
-24.94
-14.62
-0.67
15.23
31.09
44.91
55.42
62.62
66.66
67.66
65.97
62.16
56.85
50.44
42.28
31.24
17.02
-0.30
-19.58
-38.03
-52.26
-59.90
-60.77
-57.81
-55.16
-55.29
-59.22
-66.14
-73.53
-78.70
-80.12
-74.15
-60.58
-47.42
-38.05
-32.22
-30.35
-32.69
-39.02
-48.41
-59.15
-69.99
-80.08
-88.34
-94.89
-100.65
-106.12
-111.37
-116.27
-120.05
-122.18
-121.80
-117.30
-107.91
-94.14
-77.29
-58.63
-38.38
-14.23
16.29
53.35
93.49
129.63
154.15
162.79
156.90
143.08
131.98
132.46
147.77
174.96
207.22
237.22
258.99
268.08
261.37
239.90
207.47
170.23
135.68
111.57
103.87
114.40
139.88
159.72
156.49
125.76
78.81
31.71
-4.79
-27.52
-39.22
-45.88
-54.64
-68.84
-88.57
-111.20
-132.55
-147.69
-152.36
-144.83
-126.54
-102.09
-75.74
-51.67
-34.19
-27.13
-31.76
-45.46
-61.67
-71.83
-69.32
-49.98
-15.25
27.32
66.27
90.40
92.86
71.68
34.64
-7.16
-42.94
-65.96
-74.96
-73.94
-67.48
-59.83
-53.89
-50.77
-51.06
-54.57
-60.44
-67.00
-71.54
-71.00
-63.58
-49.65
-32.02
-15.39
-3.26
4.10
9.92
19.18
34.91
55.22
73.26
80.10
68.45
36.97
-8.54
-57.17
-97.44
-122.01
-128.44
-119.09
-99.97
-79.50
-65.61
-63.23
-72.54
-88.17
-102.37
-107.77
-99.68
-73.84
-32.29
17.80
67.25
108.98
141.51
166.45
185.62
198.62
202.13
191.21
163.53
123.11
74.58
33.12
14.90
24.64
51.36
76.65
85.83
74.73
49.42
20.48
-2.43
-15.94
-22.30
-25.19
-26.11
-24.25
-18.67
-9.93
-0.90
5.30
5.67
-1.07
-13.67
-28.97
-44.04
-57.22
-67.95
-76.81
-84.26
-90.57
-95.24
-96.29
-90.65
-73.78
-47.40
-16.32
12.88
34.88
47.42
51.71
51.32
50.49
52.17
56.61
62.33
66.43
65.52
56.61
38.34
12.26
-18.02
-47.00
-69.82
-83.39
-87.47
-84.01
-75.75
-63.63
-50.18
-36.67
-24.11
-14.22
-8.36
-6.94
-8.92
-12.11
-14.22
-13.94
-11.12
-6.87
-3.36
-2.51
-5.16
-10.53
-16.45
-20.31
-20.22
-15.37
-6.17
5.91
19.73
34.10
47.91
59.66
67.63
70.43
67.50
60.72
52.46
44.55
37.39
30.09
21.45
11.08
0.23
-8.79
-14.23
-16.18
-16.22
-16.03
-16.13
-15.37
-12.29
-6.80
-1.03
1.55
-2.03
-11.97
-25.20
-36.72
-42.48
-41.46
-35.89
-29.84
-26.69
-27.49
-30.64
-32.67
-29.93
-19.80
-1.54
23.30
51.07
77.00
97.07
108.34
110.15
103.55
90.30
71.81
49.11
23.57
-2.17
-24.30
-39.01
-44.21
-40.98
-33.37
-26.73
-25.05
-29.13
-36.45
-42.76
-44.64
-41.14
-33.92
-25.91
-19.37
-14.70
-10.41
-4.28
5.17
17.69
31.27
42.93
49.95
50.91
45.92
36.44
24.52
12.31
1.47
-6.91
-12.56
-15.82
-17.47
-18.55
-19.98
-22.42
-25.77
-29.09
-30.91
-29.87
-24.91
-15.59
-2.44
12.81
26.82
35.75
36.58
28.13
11.10
-11.79
-35.85
-56.06
-68.68
-72.82
-69.12
-58.47
-41.58
-19.76
4.52
27.48
44.58
51.90
46.58
28.76
1.83
-28.94
-58.40
-82.47
-98.14
-103.43
-92.24
-64.12
-26.42
9.79
36.54
51.54
56.84
56.35
53.86
51.88
50.33
48.29
45.37
42.14
39.21
37.01
35.64
35.12
35.55
36.72
39.24
44.39
52.61
61.56
66.98
63.46
48.03
22.09
-9.03
-37.75
-57.14
-63.81
-59.34
-48.66
-37.48
-29.65
-26.70
-28.20
-33.91
-43.66
-55.91
-68.06
-76.48
-77.49
-68.85
-51.12
-28.11
-5.36
12.19
21.71
22.69
16.47
4.70
-10.35
-26.56
-42.29
-56.12
-66.35
-71.59
-71.30
-65.63
-55.12
-40.33
-22.16
-2.17
17.85
36.55
52.52
64.35
70.85
71.52
66.77
57.85
46.52
35.59
28.81
28.72
35.36
46.34
58.19
67.92
74.18
77.32
74.73
66.90
57.19
49.36
44.52
40.57
33.97
24.29
9.43
-10.78
-33.94
-56.79
-76.69
-92.46
-103.92
-111.60
-116.88
-121.38
-124.97
-125.41
-120.21
-108.50
-91.95
-74.15
-59.05
-49.13
-44.58
-42.78
-39.53
-31.36
-16.98
2.56
24.77
46.93
66.88
83.25
95.75
104.69
110.21
112.03
109.46
101.92
89.42
73.00
54.83
38.11
26.17
21.07
22.73
28.61
34.58
36.46
31.35
18.21
-2.14
-27.60
-55.04
-80.19
-97.85
-103.03
-92.94
-69.17
-38.07
-8.57
11.95
21.32
23.81
27.74
40.86
66.23
100.58
136.18
164.52
179.79
180.35
167.99
146.23
118.85
89.51
61.75
38.75
22.33
11.80
3.73
-6.93
-24.59
-50.81
-83.30
-116.57
-144.02
-160.31
-163.07
-152.95
-132.68
-105.97
-76.63
-48.35
-24.57
-8.12
-0.25
-0.10
-4.60
-9.44
-10.78
-6.58
2.78
15.08
27.46
37.78
45.11
49.65
52.00
52.52
51.17
47.60
41.50
32.87
22.20
10.46
-0.89
-10.20
-16.02
-17.57
-15.05
-9.51
-2.40
4.96
11.63
17.12
21.10
23.25
23.32
21.34
17.83
13.77
10.30
8.20
7.59
7.96
8.40
8.05
6.39
3.29
-1.07
-6.37
-12.21
-18.20
-23.95
-29.06
-33.27
-36.50
-38.87
-40.64
-42.05
-43.20
-43.96
-44.07
-43.31
-41.67
-39.40
-36.87
-34.42
-32.16
-30.00
-27.80
-25.66
-24.05
-23.84
-26.01
-31.38
-40.27
-52.38
-66.70
-81.51
-94.51
-103.07
-104.65
-97.35
-80.52
-55.02
-23.18
11.85
46.88
79.46
108.21
132.70
153.01
169.23
181.01
187.31
186.49
176.94
157.87
130.16
96.66
61.76
30.26
6.03
-9.08
-15.58
-15.89
-13.24
-10.67
-10.31
-13.17
-19.31
-28.01
-38.02
-47.74
-55.59
-60.42
-61.87
-60.47
-57.33
-53.64
-50.00
-46.15
-41.14
-34.01
-24.39
-12.81
-0.49
11.31
21.72
30.55
37.97
44.19
49.26
53.01
55.15
55.26
52.63
46.24
34.98
18.19
-3.67
-28.63
-53.38
-74.27
-88.44
-94.79
-94.16
-88.80
-81.31
-73.74
-67.11
-61.63
-57.09
-53.29
-50.09
-47.32
-44.77
-42.42
-40.84
-41.16
-44.53
-51.04
-58.94
-64.75
-64.48
-55.38
-37.28
-12.73
14.02
38.59
57.75
69.86
74.53
72.02
62.85
47.76
27.95
5.31
-17.60
-37.79
-52.42
-59.42
-58.14
-49.49
-35.74
-19.72
-3.88
10.23
22.10
31.83
39.49
44.91
47.88
48.53
47.60
46.28
45.69
46.42
48.34
50.70
52.63
53.44
52.88
51.07
48.38
45.27
42.08
39.02
36.19
33.73
31.91
31.30
32.59
36.38
42.68
50.71
58.82
64.91
67.02
63.99
55.84
43.76
29.66
15.51
2.81
-7.70
-15.99
-22.43
-27.57
-31.89
-35.73
-39.36
-42.95
-46.54
-49.96
-52.79
-54.50
-54.64
-53.01
-49.84
-45.64
-41.01
-36.44
-32.15
-28.10
-24.09
-19.95
-15.66
-11.38
-7.35
-3.86
-1.08
0.98
2.40
3.33
3.93
4.26
4.40
4.43
4.46
4.64
5.05
5.65
6.27
6.66
6.64
6.20
5.51
4.90
4.67
4.93
5.52
6.10
6.27
5.78
4.61
3.02
1.34
-0.20
-1.63
-3.19
-5.16
-7.66
-10.47
-13.12
-15.06
-15.91
-15.56
-14.22
-12.18
-9.72
-6.98
-4.01
-0.89
2.24
5.15
7.59
9.43
10.67
11.47
12.02
12.42
12.63
12.52
11.92
10.78
9.21
7.47
5.83
4.51
3.56
2.93
2.51
2.20
2.00
1.92
1.94
1.94
1.80
1.35
0.53
-0.68
-2.12
-3.65
-5.08
-6.33
-7.44
-8.58
-10.03
-12.02
-14.64
-17.81
-21.24
-24.53
-27.23
-28.95
-29.39
-28.43
-26.04
-22.37
-17.63
-12.08
-6.03
0.13
5.97
11.00
14.80
17.12
17.99
17.69
16.64
15.27
13.94
12.88
12.26
12.14
12.55
13.35
14.25
14.83
14.70
13.61
11.60
8.89
5.81
2.62
-0.50
-3.50
-6.33
-8.94
-11.25
-13.23
-14.92
-16.44
-17.98
-19.74
-21.90
-24.55
-27.77
-31.51
-35.71
-40.16
-44.57
-48.51
-51.53
-53.20
-53.20
-51.44
-48.07
-43.43
-37.93
-31.89
-25.43
-18.43
-10.72
-2.20
6.89
16.00
24.35
31.07
35.53
37.33
36.40
32.91
27.20
19.74
11.18
2.31
-5.99
-12.85
-17.53
-19.48
-18.30
-13.74
-5.71
5.57
19.42
34.64
49.70
63.11
73.85
81.69
87.02
90.41
92.14
91.86
88.83
82.32
72.23
59.24
44.69
30.15
16.96
6.05
-2.07
-7.15
-9.24
-8.64
-6.11
-2.69
0.57
2.95
4.38
5.41
6.82
9.18
12.49
16.17
19.28
20.91
20.44
17.70
12.84
6.22
-1.74
-10.63
-20.02
-29.37
-37.95
-44.86
-49.20
-50.22
-47.62
-41.77
-33.64
-24.66
-16.29
-9.64
-5.17
-2.56
-0.88
1.23
5.05
11.40
20.26
30.73
41.24
49.93
55.21
56.10
52.40
44.59
33.62
20.58
6.66
-7.01
-19.35
-29.48
-36.94
-41.69
-44.13
-44.78
-43.96
-41.69
-37.68
-31.69
-23.84
-14.78
-5.45
3.24
10.72
16.91
21.88
25.55
27.54
27.29
24.42
19.20
12.57
5.95
0.70
-2.35
-3.15
-2.30
-0.65
1.14
2.83
4.50
6.37
8.45
10.52
12.21
13.20
13.43
13.01
12.09
10.65
8.48
5.40
1.47
-2.75
-6.35
-8.41
-8.36
-6.23
-2.65
1.58
5.78
9.63
13.14
16.39
19.33
21.64
22.94
23.02
21.99
20.28
18.48
17.08
16.29
15.96
15.73
15.18
13.94
11.89
9.14
6.06
3.19
1.05
-0.02
0.05
1.03
2.54
4.35
6.48
9.23
12.99
17.91
23.69
29.54
34.47
37.56
38.26
36.48
32.33
26.00
17.57
7.00
-5.70
-20.40
-36.81
-54.56
-73.13
-91.60
-108.19
-120.21
-124.55
-118.74
-102.24
-77.02
-47.15
-17.46
8.05
27.29
40.00
46.94
48.88
45.99
38.02
24.87
7.38
-12.36
-31.15
-45.42
-52.15
-49.82
-38.96
-22.00
-2.50
16.04
31.16
41.96
48.80
52.66
54.35
54.18
52.17
48.33
43.09
37.18
31.34
26.00
21.08
15.96
9.90
2.35
-6.61
-16.26
-25.41
-32.85
-37.75
-39.94
-39.83
-38.19
-35.71
-32.81
-29.58
-25.88
-21.61
-16.85
-11.91
-7.22
-3.15
0.12
2.68
4.74
6.54
8.24
9.85
11.29
12.46
13.29
13.74
13.85
13.72
13.43
13.08
12.70
12.29
11.79
11.14
10.31
9.33
8.23
7.06
5.85
4.58
3.23
1.81
0.30
-1.29
-3.00
-4.87
-6.92
-9.10
-11.31
-13.48
-15.58
-17.69
-19.94
-22.43
-25.05
-27.50
-29.30
-30.00
-29.29
-27.18
-23.91
-19.87
-15.47
-11.01
-6.69
-2.64
1.03
4.24
6.93
9.13
10.96
12.58
14.09
15.49
16.63
17.30
17.31
16.59
15.21
13.41
11.50
9.81
8.59
7.91
7.66
7.56
7.30
6.64
5.53
4.09
2.53
0.99
-0.51
-2.07
-3.83
-5.88
-8.11
-10.29
-12.19
-13.66
-14.79
-15.79
-16.96
-18.45
-20.22
-22.04
-23.51
-24.26
-24.05
-22.81
-20.62
-17.63
-14.05
-10.05
-5.81
-1.56
2.43
5.90
8.67
10.68
12.03
12.91
13.52
13.97
14.28
14.37
14.14
13.56
12.66
11.56
10.40
9.28
8.26
7.34
6.47
5.62
4.74
3.85
2.95
2.01
0.94
-0.34
-1.92
-3.77
-5.72
-7.55
-9.08
-10.30
-11.38
-12.60
-14.20
-16.30
-18.83
-21.54
-24.12
-26.25
-27.63
-28.02
-27.25
-25.24
-22.03
-17.86
-13.10
-8.22
-3.65
0.31
3.60
6.35
8.78
11.08
13.31
15.39
17.15
18.42
19.10
19.24
18.97
18.46
17.84
17.14
16.34
15.38
14.23
12.98
11.76
10.73
9.96
9.38
8.82
8.06
6.98
5.61
4.04
2.40
0.74
-0.96
-2.80
-4.80
-6.91
-9.01
-10.97
-12.74
-14.41
-16.14
-18.12
-20.48
-23.12
-25.73
-27.81
-28.76
-28.14
-25.81
-21.97
-17.07
-11.70
-6.34
-1.33
3.15
6.99
10.07
12.32
13.75
14.53
14.92
15.20
15.54
15.92
16.22
16.31
16.13
15.72
15.16
14.52
13.75
12.76
11.47
9.93
8.29
6.80
5.64
4.86
4.38
3.97
3.40
2.51
1.28
-0.23
-1.88
-3.52
-5.04
-6.34
-7.37
-8.16
-8.77
-9.38
-10.23
-11.55
-13.46
-15.89
-18.53
-20.94
-22.62
-23.20
-22.46
-20.41
-17.24
-13.27
-8.89
-4.50
-0.49
2.89
5.54
7.51
8.98
10.15
11.11
11.88
12.40
12.54
12.29
11.67
10.80
9.83
8.89
8.00
7.14
6.30
5.48
4.73
4.13
3.69
3.33
2.87
2.12
0.98
-0.52
-2.23
-3.95
-5.54
-6.96
-8.19
-9.30
-10.27
-11.15
-12.00
-13.00
-14.35
-16.23
-18.68
-21.52
-24.40
-26.88
-28.56
-29.17
-28.63
-27.03
-24.63
-21.72
-18.63
-15.63
-12.90
-10.48
-8.37
-6.55
-5.09
-4.15
-3.91
-4.49
-5.84
-7.77
-10.00
-12.31
-14.67
-17.24
-20.27
-23.92
-28.02
-32.00
-34.96
-35.99
-34.31
-29.41
-21.04
-9.05
6.50
25.12
45.58
65.87
83.52
96.32
103.00
103.61
99.26
91.54
81.90
71.21
59.97
48.52
37.41
27.39
19.19
13.24
9.44
7.28
6.01
5.02
3.97
2.89
2.03
1.67
1.87
2.48
3.16
3.65
3.87
3.98
4.25
4.78
5.48
5.99
5.95
5.16
3.70
1.88
0.12
-1.26
-2.17
-2.68
-2.97
-3.21
-3.55
-4.09
-4.88
-5.98
-7.38
-8.99
-10.69
-12.30
-13.75
-15.05
-16.30
-17.68
-19.30
-21.20
-23.28
-25.40
-27.40
-29.20
-30.79
-32.27
-33.77
-35.39
-37.10
-38.70
-39.84
-40.11
-39.21
-37.04
-33.69
-29.40
-24.43
-18.98
-13.24
-7.41
-1.76
3.34
7.58
10.80
13.06
14.60
15.70
16.58
17.34
17.96
18.42
18.69
18.78
18.69
18.37
17.78
16.94
15.90
14.78
13.63
12.40
10.96
9.20
7.07
4.71
2.38
0.32
-1.29
-2.49
-3.43
-4.37
-5.54
-7.05
-8.85
-10.76
-12.53
-13.95
-14.98
-15.75
-16.56
-17.68
-19.22
-21.04
-22.80
-24.08
-24.50
-23.86
-22.14
-19.42
-15.89
-11.78
-7.36
-2.94
1.24
5.03
8.42
11.48
14.32
16.96
19.29
21.13
22.32
22.78
22.57
21.87
20.93
19.95
19.11
18.47
17.98
17.56
17.07
16.40
15.51
14.38
13.05
11.58
10.05
8.55
7.18
6.01
5.04
4.18
3.29
2.27
1.06
-0.30
-1.68
-2.96
-4.04
-4.96
-5.82
-6.80
-8.08
-9.78
-11.89
-14.25
-16.61
-18.66
-20.11
-20.74
-20.39
-19.02
-16.66
-13.46
-9.69
-5.68
-1.77
1.79
4.86
7.43
9.54
11.17
12.33
13.01
13.30
13.41
13.60
14.10
14.97
16.08
17.13
17.77
17.71
16.87
15.36
13.44
11.45
9.64
8.13
6.91
5.88
4.98
4.22
3.69
3.44
3.44
3.47
3.22
2.44
1.07
-0.69
-2.49
-3.98
-4.99
-5.59
-6.04
-6.61
-7.44
-8.54
-9.76
-10.91
-11.88
-12.61
-13.08
-13.24
-13.00
-12.29
-11.10
-9.55
-7.83
-6.08
-4.36
-2.58
-0.59
1.72
4.33
7.03
9.57
11.73
13.43
14.73
15.73
16.49
17.04
17.31
17.25
16.84
16.12
15.12
13.85
12.31
10.49
8.41
6.17
3.93
1.87
0.11
-1.33
-2.53
-3.67
-4.89
-6.26
-7.74
-9.17
-10.39
-11.28
-11.83
-12.13
-12.32
-12.54
-12.95
-13.66
-14.76
-16.21
-17.88
-19.44
-20.51
-20.73
-19.90
-18.04
-15.40
-12.28
-9.00
-5.72
-2.51
0.61
3.62
6.37
8.69
10.43
11.58
12.26
12.72
13.23
14.03
15.26
17.00
19.33
22.27
25.71
29.33
32.57
34.80
35.56
34.75
32.74
30.19
27.74
25.75
24.16
22.56
20.42
17.38
13.38
8.58
3.17
-2.67
-8.77
-15.04
-21.37
-27.64
-33.74
-39.60
-45.23
-50.81
-56.40
-61.90
-67.08
-71.65
-75.42
-78.41
-80.69
-82.48
-84.09
-85.55
-86.45
-86.23
-84.35
-80.49
-74.61
-66.58
-56.53
-45.36
-33.85
-22.53
-11.84
-1.94
7.35
16.40
25.92
35.75
43.78
48.26
48.82
46.39
43.12
41.68
44.16
52.15
65.10
79.14
90.97
99.01
102.73
102.68
100.10
96.53
94.94
97.50
103.18
111.02
120.02
127.69
130.58
125.56
103.15
61.76
19.36
-14.13
-37.02
-48.11
-48.74
-42.01
-31.39
-19.52
-6.42
8.16
21.91
33.16
41.31
45.90
47.25
46.56
45.67
47.32
52.99
60.88
69.01
76.10
81.26
84.43
86.36
88.18
91.40
96.46
101.54
104.60
103.99
98.36
86.96
69.72
46.90
19.24
-12.61
-48.15
-85.63
-121.99
-153.91
-179.22
-197.99
-212.50
-225.84
-240.05
-254.86
-267.38
-273.67
-271.00
-259.25
-240.72
-218.69
-195.63
-172.42
-148.71
-124.09
-99.08
-75.24
-54.56
-38.42
-27.07
-19.78
-15.36
-12.97
-12.57
-15.10
-22.06
-34.59
-52.23
-72.13
-89.28
-98.00
-94.39
-78.35
-54.10
-28.65
-8.73
2.06
4.48
2.52
0.89
2.43
7.27
13.48
18.84
22.19
23.61
23.77
23.18
21.89
19.93
18.20
19.00
25.89
42.50
70.97
110.53
157.09
203.98
243.78
270.40
280.68
275.01
256.80
231.10
203.28
177.88
157.92
144.68
137.66
135.03
134.26
132.97
129.53
123.49
115.39
106.35
97.43
89.25
81.82
74.70
67.15
58.26
47.43
34.71
20.86
7.00
-5.83
-17.14
-27.02
-35.93
-44.96
-54.79
-65.22
-75.18
-83.32
-88.71
-91.18
-91.13
-89.29
-87.48
-87.17
-88.68
-91.01
-92.58
-92.27
-89.78
-85.50
-80.08
-75.96
-75.00
-77.33
-81.05
-83.63
-83.57
-81.15
-78.13
-76.89
-81.88
-96.28
-120.30
-150.85
-183.65
-215.47
-245.16
-273.20
-285.48
-271.54
-230.53
-173.55
-115.19
-64.38
-22.43
14.16
50.07
88.33
126.35
158.44
178.80
184.45
176.16
157.66
134.19
110.86
91.26
74.89
59.48
43.27
26.93
13.44
5.90
7.24
17.90
35.44
54.10
68.06
73.96
72.37
67.00
62.11
60.36
61.58
63.36
62.18
55.79
44.47
30.80
18.36
9.94
6.61
7.61
11.07
14.68
16.73
17.12
16.05
14.08
11.81
9.65
7.74
5.99
4.34
2.82
1.58
0.75
0.53
0.93
1.77
2.64
3.04
2.65
1.40
-0.44
-2.42
-3.97
-4.72
-4.70
-4.37
-4.35
-5.14
-6.82
-8.96
-10.99
-12.37
-12.96
-13.12
-13.47
-14.50
-16.24
-18.14
-19.29
-18.87
-16.50
-12.39
-7.29
-2.04
2.71
6.75
10.19
13.25
15.97
18.21
19.75
20.49
20.59
20.34
20.02
19.64
18.96
17.62
15.46
12.60
9.55
6.84
4.89
3.73
3.11
2.61
1.86
0.67
-1.00
-3.04
-5.30
-7.61
-9.81
-11.77
-13.41
-14.69
-15.61
-16.13
-16.17
-15.58
-14.26
-12.27
-9.86
-7.50
-5.76
-5.04
-5.47
-6.81
-8.56
-10.15
-11.13
-11.22
-10.34
-8.54
-5.98
-2.93
0.18
2.87
4.65
5.27
4.77
3.52
2.00
0.67
-0.25
-0.83
-1.24
-1.71
-2.31
-2.96
-3.51
-3.81
-3.87
-3.81
-3.81
-3.98
-4.29
-4.54
-4.45
-3.87
-2.88
-1.79
-0.98
-0.73
-1.08
-1.77
-2.46
-2.83
-2.79
-2.42
-1.98
-1.67
-1.58
-1.61
-1.52
-1.05
-0.08
1.32
2.90
4.32
5.37
6.06
6.51
6.91
7.35
7.71
7.84
7.70
7.45
7.54
8.44
10.49
13.65
17.46
21.20
24.19
26.05
26.87
27.13
27.45
28.27
29.59
31.02
32.04
32.35
32.14
32.09
32.90
34.91
37.80
40.61
42.27
42.14
40.39
37.84
35.54
34.09
33.35
32.49
30.37
25.90
18.23
6.72
-9.12
-29.38
-53.43
-79.48
-104.64
-125.51
-139.27
-144.62
-142.20
-134.22
-123.42
-112.06
-101.25
-91.00
-80.75
-70.06
-58.91
-47.69
-36.88
-26.78
-17.41
-8.71
-0.73
6.23
11.74
15.44
17.27
17.56
16.94
16.12
15.67
15.94
16.95
18.52
20.25
21.74
22.62
22.65
21.80
20.20
18.07
15.68
13.22
10.83
8.58
6.55
4.88
3.76
3.33
3.61
4.46
5.47
6.16
6.08
4.99
2.99
0.48
-2.04
-4.19
-5.80
-7.02
-8.03
-8.89
-9.37
-9.07
-7.67
-5.18
-2.01
1.17
3.78
5.61
6.81
7.79
8.74
9.60
10.06
9.80
8.80
7.39
6.12
5.33
4.98
4.62
3.72
2.01
-0.22
-2.34
-3.62
-3.66
-2.56
-0.88
0.69
1.57
1.56
0.77
-0.46
-1.76
-2.96
-4.01
-5.07
-6.27
-7.68
-9.19
-10.58
-11.62
-12.23
-12.54
-12.85
-13.51
-14.65
-16.15
-17.65
-18.72
-19.04
-18.53
-17.34
-15.78
-14.07
-12.33
-10.45
-8.26
-5.63
-2.65
0.42
3.22
5.48
7.09
8.14
8.83
9.29
9.49
9.31
8.66
7.58
6.35
5.36
4.92
5.15
5.87
6.66
7.07
6.87
6.08
5.05
4.21
3.89
4.18
4.82
5.40
5.51
5.02
4.04
3.00
2.34
2.29
2.83
3.62
4.29
4.59
4.54
4.37
4.42
4.89
5.78
6.95
8.23
9.63
11.41
13.94
17.56
22.27
27.66
33.03
37.68
41.09
43.03
43.28
41.48
37.03
29.51
19.12
7.05
-4.69
-14.04
-19.79
-22.13
-22.52
-23.07
-25.55
-30.70
-38.24
-47.10
-55.98
-63.66
-69.13
-71.63
-70.69
-66.29
-58.99
-49.82
-40.09
-31.07
-23.79
-19.02
-17.23
-18.56
-22.76
-29.09
-36.31
-42.88
-47.20
-47.89
-44.12
-35.65
-22.85
-6.77
10.93
28.08
42.24
51.21
53.63
49.49
40.17
28.16
16.26
6.91
1.55
0.47
3.06
8.14
14.35
20.46
25.48
28.83
30.35
30.30
29.24
27.77
26.38
25.26
24.36
23.48
22.33
20.65
18.24
15.03
11.13
6.89
2.78
-0.73
-3.39
-5.27
-6.74
-8.25
-10.15
-12.47
-14.96
-17.30
-19.25
-20.84
-22.35
-24.10
-26.30
-28.85
-31.44
-33.67
-35.24
-36.09
-36.27
-35.89
-34.90
-33.12
-30.31
-26.35
-21.36
-15.73
-9.99
-4.67
-0.10
3.63
6.64
9.08
11.09
12.69
13.87
14.61
15.03
15.37
15.93
16.91
18.30
19.82
21.09
21.74
21.66
21.01
20.15
19.46
19.09
18.96
18.74
18.09
16.80
14.89
12.59
10.21
7.93
5.78
3.61
1.19
-1.63
-4.85
-8.33
-11.83
-15.09
-17.99
-20.44
-22.30
-23.38
-23.38
-22.01
-19.18
-15.10
-10.24
-5.19
-0.44
3.76
7.46
10.81
13.98
17.02
19.84
22.29
24.19
25.43
25.96
25.88
25.29
24.37
23.24
21.93
20.41
18.66
16.72
14.79
13.14
12.04
11.54
11.47
11.49
11.23
10.49
9.32
7.98
6.70
5.58
4.48
3.14
1.33
-0.93
-3.30
-5.32
-6.59
-7.07
-7.07
-7.14
-7.78
-9.21
-11.28
-13.58
-15.67
-17.19
-17.93
-17.81
-16.75
-14.69
-11.63
-7.74
-3.32
1.16
5.25
8.63
11.19
13.01
14.32
15.37
16.30
17.12
17.71
17.95
17.82
17.44
17.04
16.77
16.64
16.42
15.83
14.70
13.16
11.62
10.55
10.28
10.75
11.57
12.16
12.08
11.10
9.35
7.14
4.83
2.70
0.85
-0.72
-2.09
-3.32
-4.39
-5.27
-5.92
-6.39
-6.81
-7.39
-8.27
-9.47
-10.82
-11.99
-12.64
-12.53
-11.63
-10.08
-8.06
-5.73
-3.07
0.01
3.59
7.54
11.47
14.82
17.12
18.19
18.23
17.72
17.14
16.74
16.41
15.86
14.85
13.39
11.75
10.33
9.40
8.96
8.76
8.44
7.77
6.71
5.43
4.18
3.18
2.47
1.99
1.59
1.15
0.64
0.11
-0.36
-0.70
-0.95
-1.20
-1.61
-2.25
-3.09
-4.01
-4.78
-5.29
-5.55
-5.77
-6.18
-6.87
-7.68
-8.22
-8.00
-6.71
-4.40
-1.39
1.81
4.81
7.46
9.82
12.05
14.17
16.02
17.32
17.83
17.60
16.92
16.24
16.01
16.40
17.25
18.19
18.73
18.51
17.40
15.52
13.22
10.93
8.95
7.36
6.00
4.57
2.78
0.55
-1.94
-4.41
-6.57
-8.33
-9.79
-11.10
-12.37
-13.55
-14.51
-15.15
-15.53
-15.89
-16.47
-17.37
-18.41
-19.21
-19.30
-18.39
-16.50
-13.92
-11.03
-8.16
-5.45
-2.90
-0.43
1.93
4.00
5.54
6.31
6.26
5.56
4.48
3.35
2.36
1.59
0.92
0.19
-0.75
-1.94
-3.28
-4.55
-5.46
-5.81
-5.54
-4.74
-3.58
-2.24
-0.87
0.49
1.85
3.18
4.41
5.46
6.27
6.85
7.33
7.86
8.53
9.22
9.67
9.52
8.49
6.59
4.15
1.80
0.20
-0.19
0.67
2.42
4.44
6.20
7.41
8.13
8.66
9.28
10.07
10.87
11.45
11.58
11.23
10.56
9.78
8.98
8.05
6.75
4.85
2.37
-0.42
-3.04
-5.05
-6.23
-6.75
-7.07
-7.68
-8.88
-10.69
-12.82
-14.89
-16.60
-17.85
-18.73
-19.43
-20.15
-21.00
-22.05
-23.33
-24.95
-26.96
-29.36
-31.94
-34.26
-35.76
-35.90
-34.39
-31.33
-27.17
-22.54
-17.97
-13.76
-9.95
-6.37
-2.90
0.43
3.36
5.57
6.80
7.08
6.68
6.11
5.79
5.98
6.59
7.28
7.68
7.58
7.06
6.44
6.08
6.15
6.51
6.77
6.53
5.60
4.05
2.23
0.52
-0.85
-1.86
-2.73
-3.70
-4.94
-6.44
-8.13
-9.95
-11.96
-14.30
-17.00
-19.81
-22.18
-23.34
-22.65
-19.89
-15.37
-9.84
-4.19
0.93
5.24
8.81
11.89
14.69
17.27
19.50
21.23
22.35
22.83
22.81
22.45
21.92
21.27
20.47
19.42
18.11
16.62
15.14
13.86
12.94
12.32
11.72
10.80
9.24
6.97
4.20
1.35
-1.13
-2.98
-4.22
-5.18
-6.26
-7.78
-9.80
-12.18
-14.65
-16.96
-18.93
-20.41
-21.19
-21.01
-19.59
-16.84
-12.88
-8.08
-2.96
2.03
6.56
10.47
13.62
15.89
17.13
17.27
16.32
14.49
12.19
9.83
7.84
6.49
5.89
5.93
6.39
6.90
7.14
6.84
5.93
4.57
3.05
1.68
0.57
-0.34
-1.32
-2.62
-4.37
-6.51
-8.80
-11.03
-13.05
-14.86
-16.56
-18.22
-19.93
-21.66
-23.40
-25.09
-26.68
-28.04
-28.87
-28.79
-27.39
-24.38
-19.74
-13.77
-7.01
-0.11
6.36
12.05
16.88
20.91
24.31
27.14
29.36
30.85
31.51
31.35
30.52
29.26
27.81
26.35
24.97
23.68
22.47
21.38
20.42
19.66
19.08
18.66
18.30
17.86
17.18
16.16
14.74
13.01
11.11
9.18
7.26
5.28
3.09
0.60
-2.12
-4.82
-7.15
-8.87
-9.99
-10.76
-11.58
-12.82
-14.68
-17.04
-19.51
-21.61
-22.81
-22.79
-21.41
-18.78
-15.16
-10.86
-6.22
-1.56
2.85
6.74
9.98
12.54
14.51
16.06
17.29
18.20
18.63
18.38
17.39
15.77
13.89
12.19
11.07
10.66
10.81
11.15
11.32
11.12
10.59
9.92
9.32
8.80
8.21
7.28
5.84
3.97
1.92
0.08
-1.31
-2.22
-2.88
-3.58
-4.56
-5.85
-7.30
-8.72
-9.98
-11.11
-12.29
-13.77
-15.72
-18.12
-20.80
-23.44
-25.67
-27.21
-27.85
-27.53
-26.26
-24.07
-21.05
-17.29
-12.95
-8.25
-3.49
1.04
5.04
8.38
11.07
13.26
15.19
17.02
18.76
20.19
21.01
21.02
20.24
18.97
17.67
16.74
16.31
16.21
16.13
15.80
15.15
14.32
13.51
12.83
12.21
11.43
10.30
8.78
7.00
5.15
3.41
1.82
0.30
-1.26
-2.91
-4.60
-6.23
-7.66
-8.84
-9.82
-10.74
-11.79
-13.12
-14.76
-16.61
-18.41
-19.86
-20.72
-20.85
-20.24
-18.93
-16.95
-14.28
-10.90
-6.86
-2.41
2.03
5.99
9.10
11.27
12.71
13.77
14.79
15.88
16.91
17.61
17.75
17.28
16.33
15.19
14.11
13.25
12.61
12.08
11.53
10.86
9.99
8.97
7.89
6.88
6.02
5.30
4.63
3.88
2.95
1.84
0.66
-0.47
-1.50
-2.52
-3.68
-5.12
-6.84
-8.71
-10.47
-11.96
-13.19
-14.38
-15.79
-17.56
-19.57
-21.38
-22.40
-22.16
-20.52
-17.70
-14.17
-10.44
-6.82
-3.41
-0.14
3.02
5.97
8.48
10.28
11.24
11.46
11.21
10.81
10.47
10.22
9.92
9.38
8.54
7.46
6.38
5.57
5.20
5.26
5.58
5.86
5.82
5.33
4.41
3.23
2.01
0.89
-0.12
-1.07
-2.07
-3.13
-4.18
-5.08
-5.77
-6.33
-6.99
-8.04
-9.63
-11.70
-13.91
-15.82
-17.07
-17.53
-17.30
-16.56
-15.43
-13.88
-11.76
-8.97
-5.62
-2.05
1.31
4.06
6.04
7.33
8.17
8.83
9.44
9.95
10.20
10.05
9.40
8.30
6.95
5.60
4.49
3.77
3.40
3.22
3.05
2.76
2.36
1.95
1.66
1.48
1.34
1.07
0.52
-0.37
-1.50
-2.68
-3.74
-4.62
-5.42
-6.35
-7.57
-9.13
-10.89
-12.62
-14.10
-15.29
-16.25
-17.09
-17.72
-17.88
-17.14
-15.17
-11.96
-7.87
-3.56
0.32
3.40
5.65
7.38
8.94
10.52
12.02
13.15
13.62
13.28
12.29
10.96
9.69
8.72
8.11
7.73
7.35
6.80
5.99
4.97
3.83
2.71
1.68
0.77
-0.07
-0.95
-1.95
-3.11
-4.37
-5.67
-6.98
-8.32
-9.77
-11.32
-12.91
-14.37
-15.53
-16.35
-16.98
-17.77
-19.05
-20.93
-23.18
-25.22
-26.32
-25.96
-23.98
-20.71
-16.79
-12.85
-9.29
-6.17
-3.30
-0.47
2.36
5.04
7.27
8.82
9.66
10.00
10.12
10.28
10.53
10.72
10.65
10.21
9.46
8.67
8.13
8.02
8.27
8.58
8.61
8.16
7.24
6.09
4.97
4.05
3.29
2.49
1.41
-0.03
-1.73
-3.43
-4.83
-5.78
-6.38
-6.91
-7.73
-9.08
-10.94
-13.02
-14.90
-16.20
-16.70
-16.40
-15.41
-13.80
-11.61
-8.81
-5.44
-1.74
1.92
5.12
7.58
9.22
10.19
10.80
11.36
12.06
12.85
13.51
13.72
13.25
12.11
10.60
9.18
8.31
8.17
8.55
9.00
9.08
8.56
7.58
6.47
5.51
4.77
4.04
3.05
1.65
-0.08
-1.94
-3.71
-5.30
-6.83
-8.44
-10.25
-12.17
-14.00
-15.52
-16.64
-17.46
-18.21
-19.12
-20.21
-21.20
-21.60
-20.85
-18.61
-14.87
-10.06
-4.82
0.16
4.38
7.69
10.17
12.11
13.79
15.36
16.80
17.96
18.68
18.86
18.53
17.83
16.90
15.86
14.74
13.53
12.28
11.11
10.20
9.68
9.54
9.59
9.50
8.99
7.96
6.51
4.92
3.48
2.34
1.40
0.39
-1.03
-3.00
-5.46
-8.11
-10.56
-12.56
-14.06
-15.27
-16.53
-18.08
-19.99
-22.01
-23.72
-24.67
-24.60
-23.47
-21.43
-18.72
-15.49
-11.82
-7.78
-3.55
0.56
4.12
6.82
8.56
9.56
10.22
10.95
11.92
13.04
13.99
14.41
14.16
13.33
12.25
11.31
10.74
10.54
10.46
10.20
9.55
8.52
7.31
6.22
5.49
5.13
4.95
4.60
3.76
2.29
0.33
-1.79
-3.73
-5.30
-6.54
-7.70
-9.01
-10.60
-12.35
-14.02
-15.42
-16.50
-17.33
-17.98
-18.39
-18.30
-17.33
-15.21
-11.87
-7.63
-3.04
1.29
4.89
7.59
9.54
11.03
12.32
13.52
14.48
14.97
14.78
13.93
12.64
11.29
10.25
9.67
9.49
9.48
9.38
9.01
8.29
7.33
6.28
5.29
4.42
3.60
2.70
1.56
0.16
-1.38
-2.84
-4.03
-4.94
-5.74
-6.73
-8.11
-9.90
-11.92
-13.92
-15.79
-17.61
-19.53
-21.60
-23.57
-24.92
-25.06
-23.60
-20.56
-16.36
-11.66
-7.07
-2.90
0.86
4.45
8.11
11.85
15.40
18.30
20.18
20.92
20.74
20.08
19.37
18.87
18.58
18.32
17.92
17.31
16.52
15.66
14.79
13.90
12.90
11.69
10.24
8.60
6.91
5.33
3.95
2.67
1.27
-0.51
-2.80
-5.48
-8.19
-10.49
-12.12
-13.10
-13.80
-14.74
-16.32
-18.65
-21.48
-24.29
-26.54
-27.80
-27.90
-26.90
-24.95
-22.27
-19.01
-15.29
-11.24
-7.02
-2.83
1.09
4.55
7.48
9.95
12.10
14.08
15.87
17.30
18.13
18.18
17.51
16.47
15.48
14.89
14.78
14.90
14.88
14.44
13.55
12.44
11.40
10.61
10.05
9.49
8.65
7.37
5.66
3.66
1.60
-0.37
-2.23
-4.05
-5.92
-7.90
-9.93
-11.85
-13.49
-14.81
-15.92
-17.06
-18.42
-19.95
-21.29
-21.89
-21.22
-19.09
-15.70
-11.63
-7.53
-3.86
-0.75
2.00
4.74
7.71
10.91
14.03
16.62
18.28
18.85
18.41
17.32
15.98
14.73
13.71
12.93
12.31
11.75
11.20
10.66
10.09
9.45
8.70
7.81
6.86
5.97
5.26
4.74
4.29
3.61
2.38
0.36
-2.44
-5.75
-9.07
-11.88
-13.83
-14.94
-15.54
-16.18
-17.35
-19.31
-21.91
-24.72
-27.12
-28.53
-28.55
-27.07
-24.20
-20.21
-15.46
-10.26
-4.89
0.40
5.38
9.80
13.46
16.23
18.17
19.41
20.20
20.72
21.03
21.07
20.71
19.89
18.66
17.24
15.90
14.84
14.06
13.37
12.50
11.24
9.56
7.68
5.87
4.33
3.06
1.86
0.47
-1.27
-3.34
-5.54
-7.66
-9.58
-11.32
-12.98
-14.68
-16.39
-18.05
-19.55
-20.91
-22.26
-23.81
-25.71
-27.85
-29.80
-30.93
-30.57
-28.31
-24.24
-18.87
-12.99
-7.34
-2.33
1.99
5.82
9.41
12.85
15.98
18.51
20.17
20.90
20.88
20.44
19.90
19.41
18.95
18.31
17.37
16.15
14.83
13.67
12.83
12.22
11.57
10.53
8.90
6.77
4.46
2.40
0.89
-0.06
-0.72
-1.55
-2.91
-4.93
-7.40
-9.94
-12.16
-13.83
-15.06
-16.12
-17.34
-18.93
-20.89
-23.05
-25.12
-26.81
-27.85
-27.98
-26.91
-24.44
-20.54
-15.43
-9.58
-3.63
1.85
6.49
10.28
13.39
16.12
18.66
21.03
23.09
24.62
25.40
25.38
24.62
23.32
21.79
20.30
19.08
18.15
17.44
16.78
16.05
15.25
14.45
13.72
13.00
12.15
10.96
9.34
7.35
5.20
3.11
1.18
-0.66
-2.62
-4.88
-7.47
-10.19
-12.73
-14.79
-16.29
-17.44
-18.62
-20.23
-22.36
-24.74
-26.77
-27.72
-27.05
-24.68
-20.93
-16.37
-11.57
-6.89
-2.47
1.66
5.45
8.74
11.32
13.07
14.06
14.55
14.93
15.52
16.43
17.48
18.32
18.55
17.97
16.69
15.10
13.68
12.77
12.42
12.37
12.24
11.66
10.48
8.79
6.83
4.83
2.94
1.20
-0.52
-2.35
-4.36
-6.56
-8.85
-11.08
-13.15
-15.03
-16.76
-18.42
-20.06
-21.77
-23.56
-25.49
-27.49
-29.41
-30.89
-31.49
-30.78
-28.49
-24.60
-19.36
-13.27
-6.91
-0.85
4.50
8.95
12.55
15.49
17.96
20.06
21.73
22.83
23.24
22.99
22.27
21.31
20.29
19.23
18.07
16.72
15.23
13.78
12.60
11.87
11.50
11.21
10.56
9.20
7.05
4.35
1.57
-0.82
-2.57
-3.76
-4.77
-6.02
-7.81
-10.17
-12.89
-15.62
-18.07
-20.14
-21.94
-23.68
-25.56
-27.62
-29.69
-31.38
-32.25
-31.91
-30.20
-27.18
-23.10
-18.27
-12.98
-7.47
-1.95
3.37
8.25
12.41
15.71
18.11
19.77
20.92
21.76
22.40
22.78
22.77
22.27
21.29
20.01
18.69
17.54
16.64
15.93
15.24
14.45
13.55
12.66
11.88
11.23
10.60
9.71
8.32
6.32
3.82
1.08
-1.57
-3.91
-5.91
-7.64
-9.29
-10.94
-12.63
-14.33
-16.03
-17.77
-19.67
-21.73
-23.81
-25.55
-26.44
-25.99
-23.86
-20.05
-14.85
-8.79
-2.47
3.61
9.11
13.88
17.89
21.14
23.62
25.30
26.19
26.35
25.88
24.93
23.66
22.23
20.76
19.30
17.85
16.40
14.93
13.47
12.10
10.92
9.90
8.90
7.67
5.98
3.74
1.07
-1.75
-4.48
-6.96
-9.23
-11.35
-13.36
-15.20
-16.67
-17.66
-18.22
-18.63
-19.37
-20.81
-23.08
-25.84
-28.41
-29.91
-29.64
-27.32
-23.18
-17.79
-11.82
-5.80
-0.02
5.39
10.33
14.59
17.89
20.05
21.05
21.12
20.64
19.94
19.19
18.35
17.30
15.92
14.26
12.49
10.85
9.50
8.43
7.50
6.49
5.22
3.68
1.96
0.23
-1.36
-2.78
-4.16
-5.70
-7.57
-9.79
-12.19
-14.48
-16.39
-17.80
-18.78
-19.63
-20.65
-22.06
-23.93
-26.07
-28.15
-29.75
-30.51
-30.20
-28.76
-26.23
-22.73
-18.37
-13.29
-7.64
-1.64
4.36
9.98
14.89
18.89
21.98
24.26
25.81
26.63
26.66
25.86
24.33
22.34
20.30
18.58
17.38
16.64
16.13
15.57
14.76
13.69
12.47
11.24
10.04
8.78
7.30
5.45
3.21
0.75
-1.67
-3.78
-5.51
-6.99
-8.48
-10.22
-12.30
-14.56
-16.76
-18.68
-20.33
-21.90
-23.64
-25.58
-27.39
-28.47
-28.12
-25.91
-21.86
-16.46
-10.45
-4.49
1.01
5.96
10.46
14.54
18.08
20.81
22.41
22.81
22.16
20.90
19.55
18.54
18.08
18.07
18.19
18.11
17.60
16.64
15.38
14.09
13.00
12.19
11.60
11.03
10.29
9.21
7.73
5.86
3.65
1.16
-1.50
-4.19
-6.75
-9.02
-10.97
-12.70
-14.47
-16.64
-19.47
-22.92
-26.60
-29.74
-31.49
-31.20
-28.64
-24.10
-18.20
-11.64
-4.98
1.48
7.74
13.90
20.02
25.90
31.11
35.12
37.44
37.79
36.26
33.23
29.27
24.82
20.03
14.77
8.93
2.51
-4.25
-10.93
-17.00
-22.01
-25.64
-27.70
-28.16
-26.84
-23.82
-19.70
-15.58
-12.65
-11.69
-12.90
-15.85
-19.72
-23.11
-24.88
-24.74
-23.16
-20.87
-18.31
-15.68
-13.08
-10.66
-7.99
-4.95
-2.27
-1.28
-2.85
-6.63
-11.10
-14.07
-13.26
-6.16
8.41
29.29
53.43
77.39
98.47
114.63
124.23
120.02
97.90
61.67
21.44
-13.22
-37.69
-51.87
-58.17
-59.85
-59.38
-57.39
-53.63
-48.75
-44.78
-44.26
-48.65
-57.26
-66.79
-71.77
-67.44
-50.30
-21.65
12.75
45.20
69.16
81.50
80.78
71.30
58.90
48.06
40.32
35.13
31.68
29.93
30.34
32.57
34.94
34.40
27.95
14.24
-5.32
-26.67
-45.35
-57.47
-61.49
-58.09
-49.70
-38.91
-27.64
-16.86
-6.99
1.60
8.47
13.23
15.98
17.06
17.07
16.53
15.70
14.58
13.01
11.04
8.92
7.06
5.74
5.08
4.92
4.97
5.08
5.02
4.67
4.01
3.14
2.16
1.17
0.22
-0.68
-1.60
-2.71
-4.17
-6.16
-8.71
-11.60
-14.31
-16.05
-16.10
-14.12
-10.44
-6.02
-2.12
0.27
0.85
0.15
-0.84
-1.11
-0.20
1.64
3.74
5.38
6.23
6.41
6.36
6.55
7.24
8.35
9.52
10.32
10.49
9.95
8.89
7.61
6.39
5.39
4.55
3.71
2.70
1.43
-0.08
-1.74
-3.50
-5.40
-7.53
-9.94
-12.50
-14.93
-16.91
-18.19
-18.80
-18.98
-19.10
-19.44
-19.97
-20.38
-20.17
-18.85
-16.18
-12.26
-7.55
-2.62
1.97
5.87
8.97
11.38
13.23
14.61
15.46
15.67
15.11
13.83
12.03
10.07
8.27
6.76
5.48
4.23
2.84
1.34
-0.00
-0.86
-0.98
-0.48
0.24
0.57
0.05
-1.51
-3.83
-6.37
-8.59
-10.19
-11.25
-12.18
-13.39
-15.09
-17.18
-19.35
-21.30
-22.96
-24.49
-26.09
-27.73
-29.00
-29.19
-27.60
-23.90
-18.36
-11.82
-5.32
0.30
4.76
8.34
11.67
15.26
19.18
22.94
25.78
27.08
26.71
25.10
23.05
21.29
20.15
19.48
18.81
17.69
16.01
13.97
12.00
10.46
9.43
8.67
7.73
6.19
3.90
1.00
-2.09
-4.94
-7.25
-9.06
-10.54
-11.93
-13.33
-14.60
-15.52
-15.93
-15.94
-15.90
-16.20
-16.98
-17.94
-18.39
-17.53
-14.92
-10.65
-5.39
-0.06
4.61
8.31
11.20
13.60
15.78
17.69
19.06
19.59
19.22
18.16
16.82
15.61
14.74
14.09
13.39
12.35
10.91
9.26
7.76
6.74
6.31
6.29
6.31
6.01
5.19
3.93
2.48
1.11
-0.05
-1.11
-2.33
-3.95
-6.04
-8.40
-10.64
-12.37
-13.38
-13.80
-14.07
-14.70
-16.03
-18.00
-20.15
-21.73
-22.04
-20.65
-17.65
-13.49
-8.85
-4.35
-0.36
3.03
5.92
8.39
10.42
11.87
12.63
12.74
12.43
12.05
11.88
11.95
12.02
11.72
10.83
9.41
7.95
7.03
7.13
8.28
10.03
11.67
12.53
12.31
11.21
9.75
8.45
7.62
7.20
6.94
6.55
5.99
5.38
5.03
5.17
5.80
6.69
7.45
7.81
7.76
7.64
8.04
9.57
12.52
16.80
21.93
27.32
32.46
37.09
41.04
44.08
45.78
45.53
42.80
37.40
29.60
20.13
9.88
-0.37
-10.11
-19.12
-27.33
-34.70
-41.07
-46.22
-49.98
-52.38
-53.79
-54.71
-55.57
-56.37
-56.60
-55.37
-51.86
-45.74
-37.52
-28.41
-19.88
-13.15
-8.80
-6.70
-6.24
-6.72
-7.73
-9.19
-11.34
-14.35
-18.13
-22.16
-25.54
-27.31
-26.75
-23.65
-18.39
-11.72
-4.53
2.43
8.67
13.91
18.00
20.81
22.32
22.61
21.98
20.86
19.72
18.85
18.31
17.88
17.24
16.19
14.66
12.89
11.17
9.75
8.65
7.73
6.75
5.60
4.36
3.22
2.35
1.67
0.90
-0.35
-2.29
-4.81
-7.49
-9.81
-11.38
-12.15
-12.43
-12.68
-13.31
-14.55
-16.33
-18.34
-20.17
-21.40
-21.75
-21.10
-19.48
-16.98
-13.70
-9.75
-5.28
-0.61
3.79
7.43
9.95
11.35
11.96
12.29
12.74
13.38
13.94
13.96
13.14
11.53
9.51
7.61
6.24
5.51
5.26
5.14
4.85
4.29
3.54
2.76
2.10
1.51
0.80
-0.24
-1.71
-3.51
-5.32
-6.79
-7.70
-8.11
-8.35
-8.87
-10.06
-12.05
-14.64
-17.45
-19.97
-21.81
-22.74
-22.71
-21.77
-19.94
-17.26
-13.70
-9.35
-4.45
0.59
5.25
9.16
12.16
14.35
15.99
17.30
18.27
18.71
18.35
17.11
15.17
13.02
11.15
9.83
9.00
8.27
7.24
5.74
3.96
2.38
1.46
1.42
2.01
2.70
2.83
2.05
0.39
-1.83
-4.14
-6.22
-8.05
-9.84
-11.90
-14.38
-17.23
-20.24
-23.08
-25.54
-27.50
-28.94
-29.79
-29.84
-28.78
-26.27
-22.17
-16.69
-10.42
-4.24
1.02
4.81
7.11
8.34
9.13
10.02
11.20
12.46
13.36
13.54
12.98
12.02
11.21
10.96
11.37
12.15
12.78
12.88
12.36
11.46
10.58
9.97
9.59
9.09
8.08
6.32
3.90
1.22
-1.23
-3.11
-4.43
-5.44
-6.53
-7.96
-9.77
-11.76
-13.62
-15.19
-16.61
-18.18
-20.29
-22.86
-25.46
-27.28
-27.31
-24.90
-19.89
-12.85
-4.92
2.68
9.20
14.41
18.54
22.13
25.60
29.06
32.37
34.95
36.31
36.48
35.62
33.97
31.95
29.89
28.05
26.54
24.63
21.24
15.78
7.34
-4.26
-18.03
-32.13
-44.08
-51.89
-55.91
-58.10
-60.13
-64.56
-72.21
-81.68
-90.32
-94.27
-91.01
-82.31
-73.11
-68.24
-69.33
-76.91
-90.65
-108.57
-128.92
-144.19
-149.04
-142.02
-118.59
-81.40
-35.45
12.94
58.09
100.03
142.74
189.85
234.43
284.29
331.80
368.44
386.55
366.13
301.53
206.81
106.68
21.24
-39.76
-77.79
-98.31
-102.80
-91.10
-61.99
-16.92
37.50
90.22
128.54
143.14
135.28
112.76
82.77
49.60
14.40
-23.30
-62.70
-99.83
-130.21
-149.74
-160.43
-164.75
-164.77
-161.49
-155.94
-149.13
-141.85
-135.11
-128.74
-122.43
-115.18
-105.27
-87.96
-62.02
-29.52
4.97
36.11
60.70
76.74
83.61
76.83
54.76
21.34
-13.35
-37.63
-43.34
-27.62
5.19
48.24
93.77
135.82
170.53
196.28
213.04
214.00
197.25
163.53
116.49
61.98
8.01
-37.42
-68.39
-82.96
-83.56
-74.59
-61.91
-50.24
-41.95
-36.39
-31.49
-25.71
-19.29
-14.23
-12.05
-13.53
-18.01
-23.81
-28.89
-31.94
-32.75
-32.04
-30.79
-29.05
-26.52
-22.69
-17.36
-10.69
-3.26
4.03
10.34
15.01
18.07
19.72
20.33
20.27
19.84
19.29
18.75
18.24
17.60
16.70
15.43
13.83
12.18
10.91
10.40
10.75
11.66
12.48
12.55
11.45
9.28
6.58
4.04
2.21
1.13
0.44
-0.47
-2.04
-4.34
-7.02
-9.53
-11.35
-12.38
-12.91
-13.57
-14.96
-17.31
-20.43
-23.67
-26.25
-27.44
-26.85
-24.54
-20.95
-16.75
-12.55
-8.72
-5.32
-2.16
1.00
4.27
7.50
10.20
11.74
11.68
9.96
6.87
3.11
-0.42
-2.92
-3.96
-3.84
-3.44
-3.74
-5.46
-8.82
-13.08
-16.32
-15.87
-9.57
2.71
18.12
31.32
35.47
23.94
-6.83
-54.87
-111.90
-165.23
-201.38
-209.90
-185.57
-130.43
-53.80
30.41
107.52
165.79
198.38
203.85
185.66
151.90
112.69
77.17
52.56
43.56
52.24
77.36
114.79
151.38
173.66
175.19
158.12
128.65
91.39
49.13
4.35
-39.76
-79.27
-109.89
-131.32
-146.59
-159.15
-171.81
-184.85
-196.01
-200.81
-193.61
-169.25
-118.78
-48.90
24.29
82.57
117.06
128.20
120.21
99.18
71.52
42.34
12.66
-13.29
-30.64
-35.56
-27.97
-12.04
5.66
19.01
24.32
20.53
10.62
-0.86
-9.62
-13.46
-12.36
-7.48
-0.42
7.19
13.43
17.74
20.31
21.97
23.47
25.16
27.16
29.33
31.26
32.33
32.45
31.78
30.61
29.15
27.44
25.59
23.72
21.92
20.16
18.53
17.06
15.68
14.22
12.45
10.24
7.66
4.89
2.18
-0.28
-2.53
-4.86
-7.64
-11.17
-15.40
-19.88
-23.88
-26.65
-27.73
-27.20
-25.65
-23.97
-23.01
-23.25
-24.63
-26.55
-28.13
-28.57
-27.43
-24.79
-21.16
-17.22
-13.52
-10.28
-7.38
-4.53
-1.58
1.39
4.02
5.91
6.80
6.72
5.94
4.79
3.54
2.27
0.97
-0.35
-1.57
-2.46
-2.84
-2.70
-2.23
-1.78
-1.68
-2.11
-3.01
-4.15
-5.26
-6.19
-6.96
-7.71
-8.63
-9.79
-11.10
-12.37
-13.46
-14.35
-15.23
-16.34
-17.76
-19.31
-20.48
-20.64
-19.31
-16.44
-12.45
-8.04
-3.88
-0.31
2.66
5.31
7.82
10.14
11.91
12.70
12.26
10.73
8.63
6.60
5.14
4.35
3.95
3.48
2.57
1.18
-0.37
-1.53
-1.93
-1.53
-0.77
-0.30
-0.67
-2.08
-4.24
-6.57
-8.53
-9.89
-10.79
-11.58
-12.55
-13.76
-15.06
-16.25
-17.27
-18.24
-19.31
-20.45
-21.34
-21.45
-20.25
-17.42
-13.09
-7.75
-2.10
3.13
7.46
10.66
12.85
14.27
15.17
15.67
15.73
15.23
14.15
12.63
10.96
9.50
8.41
7.65
6.93
6.00
4.73
3.29
2.02
1.26
1.11
1.33
1.43
0.94
-0.39
-2.42
-4.68
-6.65
-7.96
-8.61
-8.94
-9.42
-10.43
-12.06
-14.16
-16.35
-18.24
-19.50
-19.89
-19.24
-17.47
-14.59
-10.74
-6.19
-1.35
3.32
7.44
10.79
13.36
15.30
16.80
18.01
18.96
19.51
19.42
18.54
16.84
14.57
12.18
10.13
8.69
7.84
7.30
6.72
5.90
4.89
3.94
3.28
2.94
2.65
1.99
0.62
-1.50
-4.07
-6.60
-8.64
-10.02
-10.92
-11.76
-12.99
-14.85
-17.30
-20.01
-22.50
-24.29
-25.04
-24.58
-22.89
-20.07
-16.26
-11.66
-6.54
-1.30
3.61
7.73
10.77
12.66
13.57
13.82
13.74
13.50
13.10
12.43
11.40
10.09
8.71
7.52
6.68
6.19
5.86
5.39
4.58
3.42
2.08
0.80
-0.23
-1.08
-1.99
-3.32
-5.25
-7.72
-10.36
-12.70
-14.43
-15.58
-16.53
-17.80
-19.72
-22.23
-24.91
-27.14
-28.35
-28.27
-26.87
-24.35
-20.93
-16.86
-12.33
-7.51
-2.62
2.10
6.35
9.89
12.55
14.35
15.44
16.10
16.61
17.04
17.31
17.20
16.53
15.32
13.83
12.49
11.67
11.47
11.68
11.84
11.51
10.53
9.02
7.38
5.99
4.97
4.11
2.97
1.17
-1.38
-4.40
-7.38
-9.84
-11.59
-12.81
-13.92
-15.37
-17.41
-19.97
-22.67
-24.94
-26.24
-26.14
-24.49
-21.30
-16.77
-11.15
-4.77
1.97
8.57
14.49
19.27
22.71
24.92
26.25
27.10
27.72
28.09
27.98
27.14
25.49
23.23
20.83
18.80
17.52
17.06
17.15
17.34
17.18
16.46
15.27
13.90
12.62
11.50
10.33
8.78
6.63
3.93
1.04
-1.59
-3.63
-5.09
-6.28
-7.62
-9.39
-11.63
-14.14
-16.61
-18.78
-20.51
-21.73
-22.34
-22.11
-20.70
-17.82
-13.38
-7.64
-1.22
5.09
10.61
14.92
18.04
20.23
21.81
22.93
23.49
23.23
21.97
19.82
17.17
14.58
12.47
11.04
10.15
9.51
8.89
8.20
7.55
7.14
7.12
7.43
7.80
7.84
7.22
5.81
3.75
1.39
-0.87
-2.75
-4.25
-5.56
-6.97
-8.65
-10.61
-12.69
-14.79
-16.92
-19.24
-21.89
-24.74
-27.33
-28.87
-28.60
-26.06
-21.41
-15.29
-8.66
-2.36
3.16
7.86
11.96
15.65
18.92
21.54
23.19
23.65
22.97
21.47
19.62
17.86
16.44
15.39
14.55
13.72
12.83
11.97
11.33
11.08
11.18
11.37
11.26
10.53
9.10
7.17
5.13
3.32
1.83
0.51
-1.00
-2.95
-5.38
-8.05
-10.53
-12.49
-13.85
-14.90
-16.20
-18.24
-21.20
-24.71
-27.99
-30.06
-30.22
-28.27
-24.52
-19.60
-14.12
-8.39
-2.52
3.54
9.64
15.38
20.23
23.71
25.67
26.34
26.21
25.77
25.28
24.71
23.85
22.54
20.84
19.06
17.68
17.04
17.20
17.92
18.72
19.16
19.03
18.36
17.40
16.41
15.53
14.74
13.88
12.84
11.65
10.42
9.32
8.38
7.47
6.33
4.79
2.90
1.00
-0.47
-1.18
-1.23
-1.15
-1.69
-3.38
-6.17
-9.34
-11.76
-12.39
-10.85
-7.74
-4.49
-2.90
-4.52
-10.02
-19.08
-30.37
-42.05
-52.30
-59.86
-64.35
-66.37
-67.14
-68.03
-70.00
-73.23
-77.07
-80.16
-80.76
-77.15
-68.26
-54.04
-35.75
-15.78
2.92
17.73
27.06
30.79
30.02
26.50
21.99
17.80
14.78
13.46
14.18
17.02
21.68
27.45
33.37
38.60
42.62
45.33
46.94
47.67
47.61
46.66
44.61
41.27
36.63
30.92
24.71
18.89
14.59
12.87
14.36
18.86
25.18
31.49
35.92
37.28
35.48
31.43
26.56
22.09
18.59
15.89
13.46
10.82
7.87
4.90
2.39
0.59
-0.61
-1.61
-2.91
-4.74
-6.98
-9.18
-10.79
-11.51
-11.42
-10.96
-10.72
-11.10
-12.16
-13.59
-14.94
-15.87
-16.35
-16.66
-17.16
-18.07
-19.36
-20.76
-21.99
-22.94
-23.76
-24.69
-25.84
-27.01
-27.69
-27.25
-25.22
-21.51
-16.50
-10.87
-5.30
-0.26
4.06
7.69
10.75
13.25
15.07
16.05
16.14
15.45
14.30
13.08
12.04
11.29
10.74
10.20
9.48
8.58
7.57
6.61
5.85
5.34
4.95
4.47
3.67
2.47
1.00
-0.45
-1.57
-2.23
-2.60
-3.06
-3.97
-5.47
-7.39
-9.29
-10.80
-11.77
-12.45
-13.31
-14.78
-17.00
-19.70
-22.31
-24.15
-24.72
-23.79
-21.46
-17.99
-13.72
-8.94
-3.89
1.16
5.86
9.79
12.55
13.98
14.20
13.66
12.89
12.31
12.02
11.83
11.42
10.56
9.31
7.93
6.79
6.09
5.77
5.56
5.14
4.35
3.27
2.18
1.32
0.80
0.49
0.07
-0.79
-2.24
-4.20
-6.39
-8.41
-10.01
-11.14
-11.97
-12.85
-14.03
-15.60
-17.41
-19.12
-20.37
-20.86
-20.49
-19.33
-17.50
-15.10
-12.11
-8.51
-4.35
0.13
4.49
8.27
11.12
12.94
13.89
14.29
14.39
14.28
13.84
12.93
11.52
9.81
8.21
7.09
6.66
6.76
6.98
6.86
6.12
4.82
3.34
2.10
1.35
0.96
0.53
-0.35
-1.88
-3.87
-5.89
-7.42
-8.23
-8.46
-8.51
-8.85
-9.76
-11.26
-13.18
-15.30
-17.47
-19.61
-21.51
-22.84
-23.05
-21.68
-18.47
-13.60
-7.75
-1.81
3.38
7.32
9.99
11.77
13.13
14.45
15.75
16.77
17.12
16.55
15.07
13.00
10.86
9.08
7.89
7.24
6.86
6.49
5.96
5.28
4.59
4.07
3.80
3.65
3.39
2.83
1.86
0.59
-0.80
-2.08
-3.24
-4.42
-5.85
-7.69
-9.84
-11.96
-13.64
-14.60
-14.95
-15.14
-15.74
-17.03
-18.82
-20.41
-20.85
-19.42
-15.93
-10.81
-4.91
0.86
5.83
9.76
12.72
14.96
16.62
17.72
18.13
17.80
16.84
15.59
14.45
13.74
13.49
13.45
13.24
12.56
11.36
9.86
8.43
7.41
6.89
6.74
6.62
6.20
5.28
3.90
2.27
0.68
-0.69
-1.83
-2.90
-4.07
-5.48
-7.03
-8.58
-10.00
-11.28
-12.64
-14.33
-16.47
-18.88
-21.05
-22.30
-22.07
-20.11
-16.64
-12.26
-7.56
-3.04
1.15
5.04
8.68
11.97
14.61
16.20
16.54
15.73
14.19
12.50
11.18
10.43
10.16
9.99
9.57
8.66
7.34
5.92
4.75
4.10
3.89
3.81
3.46
2.55
1.11
-0.56
-2.10
-3.35
-4.38
-5.52
-7.03
-8.93
-10.94
-12.63
-13.74
-14.41
-15.16
-16.58
-19.00
-22.15
-25.22
-27.16
-27.11
-24.82
-20.74
-15.73
-10.65
-6.05
-1.98
1.78
5.47
9.05
12.23
14.59
15.91
16.27
15.98
15.49
15.06
14.69
14.22
13.42
12.30
11.01
9.85
9.04
8.59
8.30
7.82
6.92
5.60
4.07
2.68
1.64
0.94
0.32
-0.64
-2.26
-4.54
-7.19
-9.74
-11.73
-12.98
-13.68
-14.28
-15.32
-17.11
-19.59
-22.32
-24.62
-25.88
-25.70
-24.02
-21.00
-16.90
-11.99
-6.51
-0.77
4.80
9.67
13.40
15.83
17.16
17.85
18.34
18.87
19.33
19.40
18.80
17.49
15.71
13.91
12.49
11.68
11.42
11.50
11.62
11.56
11.19
10.49
9.55
8.45
7.27
6.01
4.59
2.95
1.07
-0.93
-2.83
-4.38
-5.47
-6.15
-6.62
-7.14
-7.89
-8.93
-10.17
-11.51
-12.80
-13.88
-14.52
-14.38
-13.06
-10.27
-5.94
-0.31
5.98
12.04
16.96
20.04
21.10
20.51
19.08
17.74
17.11
17.32
17.95
18.31
17.83
16.22
13.65
10.50
7.19
3.95
0.85
-2.14
-4.99
-7.49
-9.33
-10.26
-10.25
-9.60
-8.76
-8.18
-8.04
-8.20
-8.27
-7.92
-7.12
-6.16
-5.51
-5.55
-6.37
-7.75
-9.30
-10.73
-12.01
-13.37
-15.07
-17.23
-19.57
-21.52
-22.38
-21.61
-19.10
-15.18
-10.51
-5.72
-1.21
2.96
6.97
10.95
14.79
18.07
20.26
21.01
20.31
18.64
16.67
15.03
14.00
13.47
13.08
12.52
11.70
10.76
9.97
9.51
9.31
9.10
8.55
7.49
5.99
4.26
2.57
0.99
-0.56
-2.30
-4.35
-6.65
-8.97
-10.95
-12.36
-13.22
-13.81
-14.61
-16.02
-18.23
-21.02
-23.83
-25.95
-26.70
-25.71
-23.00
-18.91
-13.93
-8.56
-3.14
2.11
7.05
11.47
15.10
17.67
19.08
19.46
19.16
18.59
18.05
17.57
17.00
16.16
15.00
13.69
12.55
11.85
11.60
11.55
11.28
10.49
9.11
7.41
5.81
4.64
3.94
3.43
2.69
1.37
-0.55
-2.84
-5.06
-6.86
-8.12
-8.98
-9.79
-10.88
-12.46
-14.54
-16.99
-19.54
-21.90
-23.81
-25.02
-25.27
-24.34
-22.10
-18.49
-13.71
-8.19
-2.56
2.54
6.69
9.81
12.15
14.11
15.93
17.49
18.35
18.02
16.35
13.65
10.68
8.29
7.02
6.89
7.43
7.92
7.84
7.04
5.75
4.40
3.34
2.66
2.10
1.28
-0.14
-2.22
-4.75
-7.31
-9.49
-11.12
-12.27
-13.22
-14.28
-15.61
-17.18
-18.90
-20.72
-22.78
-25.26
-28.18
-31.18
-33.51
-34.17
-32.36
-27.85
-21.05
-12.97
-4.75
2.67
8.81
13.58
17.09
19.45
20.65
20.67
19.58
17.71
15.54
13.62
12.32
11.74
11.70
11.92
12.16
12.39
12.72
13.28
14.07
14.84
15.16
14.60
12.97
10.44
7.50
4.77
2.72
1.49
0.90
0.52
-0.04
-0.99
-2.32
-3.82
-5.28
-6.64
-8.04
-9.79
-12.14
-15.18
-18.67
-22.07
-24.65
-25.78
-25.12
-22.74
-18.97
-14.26
-9.01
-3.47
2.13
7.51
12.26
15.92
18.16
18.93
18.53
17.53
16.50
15.82
15.54
15.46
15.28
14.84
14.17
13.49
13.04
12.93
13.01
12.98
12.52
11.53
10.11
8.54
7.06
5.77
4.61
3.37
1.92
0.23
-1.53
-3.12
-4.34
-5.12
-5.58
-5.99
-6.63
-7.62
-8.86
-10.08
-11.00
-11.49
-11.66
-11.78
-11.96
-12.06
-11.56
-9.83
-6.49
-1.65
4.06
9.73
14.53
18.05
20.28
21.55
22.22
22.51
22.48
22.10
21.36
20.39
19.37
18.48
17.78
17.16
16.44
15.45
14.18
12.83
11.73
11.20
11.32
11.89
12.44
12.45
11.63
9.98
7.83
5.62
3.69
2.09
0.63
-0.91
-2.71
-4.67
-6.57
-8.13
-9.20
-9.91
-10.52
-11.35
-12.55
-13.95
-15.08
-15.31
-14.10
-11.17
-6.66
-1.03
5.11
11.16
16.77
21.83
26.31
30.19
33.31
35.43
36.35
35.98
34.48
32.13
29.24
25.96
22.27
18.05
13.32
8.53
4.49
2.04
1.30
1.25
-0.19
-5.25
-15.26
-29.71
-46.30
-61.86
-73.65
-80.30
-81.95
-79.62
-74.29
-66.54
-56.75
-45.66
-34.78
-26.22
-21.85
-22.49
-27.44
-34.63
-41.46
-45.64
-45.92
-42.33
-35.84
-27.78
-19.33
-11.22
-3.70
3.15
9.26
14.40
18.30
20.84
22.11
22.41
22.12
21.53
20.76
19.77
18.50
16.96
15.31
13.80
12.63
11.89
11.47
11.13
10.53
9.49
7.99
6.27
4.70
3.57
2.95
2.60
2.12
1.12
-0.53
-2.67
-4.94
-7.01
-8.77
-10.40
-12.20
-14.37
-16.85
-19.22
-20.90
-21.36
-20.33
-17.92
-14.45
-10.38
-6.04
-1.63
2.75
6.94
10.67
13.58
15.41
16.18
16.19
15.98
15.99
16.42
17.06
17.52
17.38
16.50
15.06
13.48
12.23
11.57
11.48
11.70
11.89
11.80
11.33
10.53
9.48
8.16
6.48
4.27
1.55
-1.50
-4.49
-7.09
-9.15
-10.90
-12.77
-15.21
-18.38
-21.99
-25.36
-27.67
-28.23
-26.82
-23.66
-19.38
-14.64
-10.00
-5.71
-1.75
1.99
5.56
8.83
11.54
13.47
14.56
15.01
15.15
15.33
15.65
16.01
16.07
15.62
14.62
13.31
12.04
11.07
10.40
9.77
8.82
7.36
5.45
3.46
1.81
0.75
0.22
-0.13
-0.73
-1.83
-3.40
-5.22
-7.00
-8.63
-10.23
-12.12
-14.58
-17.60
-20.79
-23.48
-24.82
-24.22
-21.52
-17.09
-11.68
-6.13
-1.05
3.27
6.89
9.94
12.47
14.32
15.22
15.03
13.87
12.22
10.73
9.94
9.97
10.53
11.05
11.03
10.31
9.22
8.27
7.95
8.34
9.13
9.77
9.82
9.22
8.24
7.26
6.48
5.84
5.14
4.21
3.04
1.81
0.77
-0.02
-0.81
-2.11
-4.40
-7.74
-11.69
-15.45
-18.11
-18.93
-17.82
-15.41
-12.77
-10.87
-10.01
-9.79
-9.59
-8.95
-7.71
-6.39
-5.91
-6.92
-9.05
-10.76
-10.33
-7.46
-3.57
-0.90
-2.05
-8.84
-21.71
-39.54
-60.11
-81.51
-103.16
-123.67
-139.14
-144.45
-136.13
-115.44
-88.66
-64.03
-48.09
-43.40
-46.13
-47.70
-40.26
-20.57
9.28
45.06
84.60
128.44
177.33
219.87
242.77
238.15
208.85
163.34
109.04
51.97
4.07
-33.70
-58.86
-67.44
-57.87
-32.66
2.61
38.72
71.07
99.54
125.36
150.95
177.68
203.70
224.30
233.82
228.91
211.45
186.79
159.49
133.27
110.89
94.22
85.17
85.90
92.04
100.11
104.97
98.14
72.55
27.07
-31.95
-92.96
-144.07
-177.19
-194.30
-199.20
-197.29
-193.20
-188.76
-183.68
-177.33
-170.50
-165.14
-165.12
-168.85
-170.40
-165.75
-152.07
-128.14
-94.32
-58.43
-21.39
14.66
46.44
69.34
79.95
75.58
56.40
25.61
-11.37
-47.17
-75.87
-93.25
-98.52
-94.28
-84.78
-73.96
-64.22
-56.01
-47.63
-37.68
-25.23
-10.79
3.86
16.89
27.22
34.63
39.41
42.30
43.27
42.12
38.78
33.61
27.56
21.99
18.12
16.41
16.81
18.41
20.17
21.33
21.55
20.96
20.02
19.27
19.07
19.58
20.58
21.61
22.20
21.92
20.56
18.17
15.10
11.79
8.63
5.88
3.52
1.27
-1.25
-4.43
-8.49
-13.42
-19.00
-24.84
-30.45
-35.48
-39.70
-43.10
-45.79
-47.89
-49.42
-50.24
-50.19
-49.20
-47.37
-44.98
-42.23
-39.13
-35.39
-30.62
-24.56
-17.40
-9.71
-2.27
4.32
9.87
14.58
18.85
22.97
26.90
30.34
32.92
34.50
35.15
35.21
35.02
34.81
34.60
34.22
33.44
32.15
30.46
28.69
27.21
26.25
25.77
25.40
24.59
22.89
20.17
16.75
13.27
10.28
7.99
6.22
4.47
2.27
-0.65
-4.14
-7.69
-10.65
-12.49
-12.97
-12.00
-9.64
-6.09
-1.78
2.85
7.44
11.78
15.71
19.02
21.96
24.81
27.68
30.00
31.02
30.15
27.31
22.94
17.66
13.03
10.36
10.16
11.18
11.41
9.11
3.69
-4.32
-13.88
-22.44
-28.10
-30.26
-31.30
-35.28
-45.96
-65.31
-92.63
-127.19
-164.39
-198.16
-218.41
-218.82
-198.30
-160.77
-113.83
-64.10
-22.86
2.37
11.68
12.79
13.17
19.28
31.12
46.67
63.06
77.51
90.17
97.47
99.13
95.91
83.20
62.09
37.61
13.54
-10.08
-29.29
-44.67
-54.65
-57.65
-52.93
-43.96
-34.35
-29.67
-36.50
-59.44
-100.11
-153.99
-212.15
-263.14
-295.78
-303.15
-285.41
-248.49
-200.40
-148.48
-96.34
-45.12
5.09
54.33
102.24
147.81
190.43
230.25
267.14
300.54
328.21
346.56
351.89
341.86
316.42
278.80
235.17
192.82
158.07
133.83
118.87
109.02
99.72
88.29
75.11
62.75
53.88
49.29
47.26
44.79
39.48
31.13
21.59
13.45
8.19
5.21
2.17
-3.52
-13.07
-25.30
-36.99
-44.29
-44.69
-38.41
-28.57
-19.83
-16.29
-19.56
-28.23
-38.62
-46.78
-50.13
-48.34
-42.71
-35.17
-27.10
-19.18
-12.00
-6.76
-5.29
-9.17
-18.34
-30.51
-41.74
-48.10
-47.44
-40.25
-29.13
-17.21
-6.76
1.71
8.84
15.42
21.31
25.06
24.45
17.70
4.71
-12.37
-29.57
-42.47
-47.83
-44.80
-35.06
-21.76
-7.91
4.80
16.16
26.52
35.58
41.76
42.67
36.41
22.73
3.61
-17.29
-35.92
-49.11
-55.47
-55.44
-50.62
-42.86
-33.42
-22.80
-10.96
1.97
15.24
27.24
35.74
38.47
33.92
22.07
4.81
-14.20
-30.21
-38.67
-36.63
-23.88
-3.15
20.71
42.39
57.86
65.35
65.38
59.70
50.07
37.26
21.28
2.29
-18.22
-37.00
-49.77
-52.84
-44.92
-27.95
-6.56
13.78
28.86
36.86
38.34
34.93
27.91
17.43
2.89
-15.71
-36.67
-56.32
-69.93
-73.43
-65.16
-46.64
-22.27
2.12
21.18
31.42
31.86
23.61
8.96
-9.53
-29.48
-48.57
-64.21
-73.43
-73.35
-62.10
-39.94
-9.89
22.62
51.25
70.86
79.08
76.77
66.83
52.32
34.99
15.27
-6.34
-27.76
-44.79
-52.36
-46.81
-27.99
0.21
31.15
57.96
75.78
82.66
79.11
66.74
47.06
20.98
-10.86
-47.11
-84.73
-118.57
-142.06
-149.06
-136.32
-105.45
-63.27
-20.04
14.00
32.22
33.74
23.11
7.53
-6.82
-17.57
-26.61
-37.89
-54.06
-73.73
-91.12
-98.57
-90.47
-66.35
-31.51
5.40
36.31
56.97
67.82
72.37
74.40
75.83
76.23
73.97
67.94
58.62
48.03
38.78
32.78
30.52
31.09
32.72
33.68
32.83
29.96
25.58
20.58
15.72
11.40
7.55
3.75
-0.42
-5.08
-9.93
-14.31
-17.49
-19.07
-19.12
-18.21
-17.17
-16.84
-17.70
-19.79
-22.71
-25.78
-28.24
-29.50
-29.26
-27.58
-24.82
-21.50
-18.11
-15.02
-12.41
-10.32
-8.72
-7.51
-6.65
-6.03
-5.55
-5.09
-4.51
-3.64
-2.30
-0.39
2.05
4.76
7.28
9.08
9.73
9.11
7.47
5.39
3.51
2.30
1.91
2.12
2.48
2.58
2.19
1.35
0.24
-0.90
-1.95
-2.98
-4.18
-5.72
-7.67
-9.85
-11.93
-13.48
-14.16
-13.77
-12.33
-9.98
-6.95
-3.47
0.26
4.03
7.67
10.96
13.72
15.82
17.25
18.13
18.63
18.90
19.03
19.01
18.77
18.28
17.59
16.84
16.13
15.50
14.91
14.21
13.31
12.21
11.06
10.03
9.25
8.73
8.31
7.79
6.98
5.82
4.38
2.81
1.28
-0.13
-1.43
-2.71
-4.05
-5.50
-7.03
-8.55
-10.01
-11.40
-12.75
-14.04
-15.15
-15.79
-15.63
-14.41
-12.08
-8.86
-5.17
-1.46
1.92
4.85
7.40
9.72
11.89
13.88
15.50
16.54
16.83
16.35
15.26
13.80
12.26
10.84
9.64
8.66
7.93
7.55
7.63
8.25
9.27
10.39
11.12
11.05
9.97
8.00
5.54
3.06
0.97
-0.56
-1.56
-2.22
-2.74
-3.32
-4.08
-5.05
-6.24
-7.60
-9.12
-10.74
-12.43
-14.07
-15.47
-16.39
-16.58
-15.90
-14.34
-12.09
-9.39
-6.51
-3.64
-0.90
1.65
3.94
5.88
7.40
8.46
9.14
9.56
9.85
10.06
10.17
10.09
9.74
9.10
8.23
7.22
6.20
5.28
4.56
4.09
3.87
3.83
3.83
3.66
3.16
2.22
0.88
-0.70
-2.30
-3.70
-4.75
-5.42
-5.78
-5.97
-6.16
-6.49
-7.13
-8.16
-9.55
-11.16
-12.75
-14.06
-14.91
-15.17
-14.82
-13.89
-12.42
-10.43
-8.01
-5.28
-2.43
0.31
2.73
4.68
6.14
7.16
7.87
8.37
8.75
8.99
9.03
8.84
8.42
7.84
7.18
6.48
5.71
4.84
3.80
2.64
1.43
0.26
-0.79
-1.69
-2.47
-3.15
-3.78
-4.37
-4.98
-5.65
-6.40
-7.25
-8.19
-9.21
-10.34
-11.61
-13.01
-14.48
-15.87
-17.02
-17.82
-18.28
-18.49
-18.48
-18.21
-17.50
-16.08
-13.81
-10.74
-7.15
-3.44
0.01
2.98
5.43
7.42
9.03
10.30
11.27
11.97
12.49
12.92
13.32
13.66
13.84
13.74
13.27
12.49
11.52
10.53
9.66
8.94
8.34
7.78
7.20
6.54
5.81
4.99
4.08
3.09
2.04
0.96
-0.11
-1.12
-2.02
-2.77
-3.35
-3.81
-4.32
-5.12
-6.48
-8.51
-11.07
-13.79
-16.10
-17.53
-17.81
-16.93
-15.10
-12.57
-9.56
-6.26
-2.86
0.43
3.38
5.82
7.75
9.27
10.56
11.70
12.71
13.49
13.91
13.94
13.62
13.06
12.39
11.66
10.87
9.99
8.99
7.90
6.78
5.72
4.80
4.03
3.37
2.75
2.07
1.29
0.37
-0.72
-1.95
-3.23
-4.45
-5.49
-6.30
-6.97
-7.66
-8.58
-9.88
-11.57
-13.53
-15.57
-17.51
-19.20
-20.52
-21.35
-21.57
-21.03
-19.65
-17.46
-14.62
-11.37
-7.97
-4.61
-1.41
1.60
4.43
7.09
9.48
11.49
12.98
13.87
14.13
13.88
13.29
12.57
11.85
11.19
10.54
9.86
9.09
8.27
7.46
6.75
6.15
5.63
5.09
4.46
3.69
2.84
1.98
1.17
0.37
-0.53
-1.65
-3.05
-4.64
-6.27
-7.75
-9.02
-10.17
-11.40
-12.87
-14.61
-16.46
-18.11
-19.21
-19.48
-18.78
-17.11
-14.58
-11.40
-7.83
-4.13
-0.54
2.80
5.85
8.56
10.90
12.75
14.01
14.67
14.81
14.64
14.33
14.00
13.63
13.21
12.72
12.25
11.88
11.65
11.46
11.11
10.39
9.23
7.77
6.27
5.02
4.17
3.64
3.15
2.38
1.11
-0.63
-2.59
-4.43
-5.94
-7.14
-8.29
-9.76
-11.81
-14.44
-17.40
-20.29
-22.70
-24.29
-24.83
-24.22
-22.42
-19.54
-15.79
-11.52
-7.11
-2.86
1.06
4.64
7.92
10.92
13.61
15.87
17.58
18.64
19.02
18.77
18.01
16.93
15.77
14.76
14.06
13.71
13.56
13.38
12.92
12.07
10.86
9.49
8.18
7.05
6.09
5.19
4.18
2.95
1.46
-0.27
-2.15
-4.16
-6.24
-8.35
-10.45
-12.50
-14.48
-16.40
-18.32
-20.26
-22.18
-23.89
-25.11
-25.46
-24.66
-22.55
-19.20
-14.92
-10.16
-5.37
-0.90
3.09
6.56
9.55
12.09
14.18
15.75
16.79
17.31
17.41
17.19
16.75
16.14
15.34
14.35
13.15
11.80
10.38
9.06
7.95
7.11
6.53
6.12
5.74
5.27
4.65
3.82
2.80
1.60
0.23
-1.35
-3.16
-5.18
-7.31
-9.42
-11.34
-13.01
-14.46
-15.80
-17.19
-18.72
-20.39
-22.01
-23.32
-23.98
-23.76
-22.52
-20.25
-17.10
-13.30
-9.08
-4.69
-0.34
3.78
7.54
10.75
13.33
15.24
16.54
17.36
17.80
17.93
17.73
17.21
16.40
15.46
14.58
13.94
13.59
13.45
13.33
13.05
12.53
11.82
10.99
10.07
9.04
7.83
6.42
4.93
3.54
2.45
1.69
1.16
0.64
-0.07
-1.06
-2.34
-3.90
-5.76
-7.97
-10.55
-13.36
-16.10
-18.34
-19.70
-19.96
-19.16
-17.49
-15.27
-12.78
-10.22
-7.66
-5.09
-2.54
-0.06
2.22
4.11
5.51
6.36
6.70
6.60
6.18
5.54
4.82
4.19
3.79
3.72
3.94
4.31
4.67
4.93
5.03
5.04
4.97
4.75
4.30
3.54
2.52
1.41
0.36
-0.60
-1.55
-2.71
-4.23
-6.11
-8.23
-10.38
-12.46
-14.44
-16.38
-18.30
-20.04
-21.29
-21.65
-20.84
-18.79
-15.67
-11.86
-7.78
-3.76
0.03
3.54
6.77
9.71
12.30
14.39
15.85
16.58
16.61
16.04
15.03
13.75
12.35
10.92
9.53
8.25
7.08
6.06
5.17
4.36
3.57
2.75
1.90
1.02
0.18
-0.63
-1.42
-2.30
-3.36
-4.69
-6.28
-8.04
-9.83
-11.53
-13.09
-14.56
-16.06
-17.73
-19.65
-21.75
-23.83
-25.57
-26.57
-26.47
-25.04
-22.23
-18.24
-13.45
-8.32
-3.29
1.33
5.42
8.98
12.05
14.67
16.79
18.34
19.27
19.63
19.58
19.31
19.00
18.73
18.48
18.20
17.88
17.54
17.24
16.97
16.60
15.98
14.97
13.58
11.96
10.36
8.98
7.91
7.05
6.26
5.38
4.28
2.93
1.35
-0.41
-2.23
-3.99
-5.59
-6.99
-8.25
-9.51
-10.97
-12.72
-14.75
-16.92
-18.93
-20.40
-20.98
-20.38
-18.52
-15.55
-11.83
-7.80
-3.88
-0.30
2.95
5.97
8.86
11.61
14.04
15.92
17.10
17.59
17.56
17.28
16.96
16.69
16.47
16.20
15.79
15.25
14.64
14.03
13.47
12.94
12.38
11.72
10.92
9.99
9.00
7.99
6.97
5.90
4.67
3.24
1.61
-0.17
-1.97
-3.72
-5.39
-6.97
-8.47
-9.91
-11.30
-12.66
-14.07
-15.61
-17.27
-18.89
-20.20
-20.83
-20.51
-19.20
-17.00
-14.19
-11.06
-7.83
-4.66
-1.63
1.18
3.72
5.95
7.88
9.55
11.00
12.21
13.11
13.58
13.57
13.09
12.29
11.36
10.49
9.79
9.29
8.92
8.56
8.14
7.60
6.93
6.18
5.39
4.64
3.99
3.45
3.02
2.60
2.11
1.45
0.67
-0.12
-0.75
-1.09
-1.13
-1.05
-1.12
-1.62
-2.68
-4.23
-6.06
-7.82
-9.21
-10.05
-10.26
-9.85
-8.88
-7.41
-5.48
-3.20
-0.70
1.81
4.10
5.98
7.33
8.22
8.78
9.19
9.56
9.84
9.92
9.60
8.84
7.69
6.37
5.17
4.34
3.98
4.00
4.21
4.37
4.31
4.04
3.66
3.32
3.09
2.88
2.46
1.63
0.33
-1.24
-2.76
-3.88
-4.47
-4.67
-4.79
-5.15
-5.90
-6.96
-8.10
-9.10
-9.87
-10.44
-10.88
-11.18
-11.18
-10.65
-9.43
-7.51
-5.08
-2.47
-0.01
2.06
3.67
4.82
5.66
6.29
6.78
7.12
7.22
7.02
6.46
5.61
4.62
3.63
2.74
1.94
1.16
0.38
-0.38
-1.03
-1.52
-1.85
-2.12
-2.44
-2.89
-3.43
-4.02
-4.57
-5.09
-5.64
-6.27
-7.00
-7.80
-8.58
-9.27
-9.88
-10.43
-11.00
-11.65
-12.44
-13.34
-14.21
-14.82
-14.90
-14.24
-12.74
-10.45
-7.57
-4.33
-0.99
2.20
4.99
7.23
8.81
9.77
10.21
10.27
10.05
9.62
9.01
8.29
7.54
6.83
6.16
5.47
4.67
3.71
2.63
1.55
0.58
-0.21
-0.88
-1.55
-2.31
-3.22
-4.23
-5.27
-6.22
-7.01
-7.66
-8.22
-8.79
-9.48
-10.36
-11.46
-12.77
-14.23
-15.76
-17.20
-18.35
-19.00
-18.99
-18.24
-16.84
-14.93
-12.73
-10.42
-8.12
-5.93
-3.84
-1.88
0.00
1.80
3.51
5.04
6.30
7.23
7.86
8.30
8.66
9.00
9.25
9.25
8.83
7.94
6.71
5.33
4.04
2.93
1.98
1.13
0.30
-0.49
-1.19
-1.75
-2.23
-2.73
-3.39
-4.27
-5.32
-6.39
-7.35
-8.07
-8.58
-9.00
-9.51
-10.28
-11.34
-12.49
-13.39
-13.59
-12.74
-10.77
-7.93
-4.69
-1.52
1.23
3.53
5.50
7.29
8.96
10.41
11.48
12.08
12.21
11.97
11.47
10.79
9.96
9.00
8.01
7.15
6.58
6.37
6.48
6.76
6.98
6.96
6.59
5.87
4.91
3.82
2.74
1.73
0.82
-0.03
-0.83
-1.60
-2.35
-3.12
-4.02
-5.11
-6.46
-8.05
-9.75
-11.28
-12.36
-12.69
-12.13
-10.69
-8.55
-6.03
-3.43
-1.00
1.18
3.13
4.91
6.56
8.01
9.14
9.91
10.34
10.51
10.56
10.53
10.43
10.15
9.63
8.90
8.06
7.28
6.70
6.30
5.96
5.46
4.59
3.27
1.59
-0.26
-2.00
-3.42
-4.43
-5.07
-5.49
-5.85
-6.32
-6.97
-7.85
-8.96
-10.26
-11.75
-13.42
-15.21
-16.96
-18.42
-19.22
-19.12
-18.05
-16.22
-13.98
-11.68
-9.48
-7.32
-5.00
-2.37
0.55
3.55
6.25
8.35
9.67
10.21
10.16
9.71
9.00
8.11
7.05
5.85
4.61
3.49
2.64
2.13
1.91
1.81
1.70
1.55
1.47
1.60
2.01
2.54
2.95
2.98
2.52
1.64
0.57
-0.49
-1.45
-2.35
-3.37
-4.68
-6.32
-8.21
-10.06
-11.54
-12.33
-12.22
-11.23
-9.50
-7.25
-4.72
-2.09
0.49
2.89
4.98
6.68
7.94
8.82
9.46
9.96
10.37
10.65
10.72
10.48
9.92
9.11
8.18
7.30
6.58
6.04
5.62
5.19
4.59
3.75
2.70
1.55
0.45
-0.47
-1.19
-1.79
-2.41
-3.15
-4.01
-4.87
-5.59
-6.06
-6.32
-6.52
-6.85
-7.45
-8.30
-9.25
-10.08
-10.58
-10.67
-10.32
-9.57
-8.37
-6.66
-4.37
-1.58
1.45
4.34
6.71
8.41
9.49
10.16
10.65
11.07
11.37
11.41
11.08
10.36
9.36
8.25
7.16
6.20
5.42
4.81
4.33
3.89
3.41
2.84
2.17
1.46
0.79
0.18
-0.41
-1.09
-1.89
-2.80
-3.66
-4.30
-4.67
-4.85
-5.07
-5.64
-6.72
-8.32
-10.18
-11.94
-13.20
-13.70
-13.37
-12.29
-10.68
-8.72
-6.56
-4.30
-1.99
0.24
2.26
3.91
5.14
5.99
6.60
7.11
7.53
7.79
7.72
7.26
6.46
5.52
4.68
4.10
3.77
3.58
3.32
2.87
2.21
1.44
0.71
0.13
-0.31
-0.69
-1.14
-1.75
-2.52
-3.37
-4.16
-4.81
-5.30
-5.73
-6.18
-6.75
-7.47
-8.32
-9.19
-9.93
-10.34
-10.24
-9.54
-8.22
-6.38
-4.13
-1.59
1.14
3.94
6.65
9.05
10.94
12.27
13.16
13.84
14.56
15.44
16.41
17.28
17.83
17.89
17.46
16.61
15.50
14.22
12.85
11.40
9.90
8.36
6.88
5.51
4.31
3.27
2.28
1.25
0.12
-1.08
-2.22
-3.15
-3.82
-4.30
-4.78
-5.46
-6.44
-7.75
-9.28
-10.86
-12.31
-13.43
-14.02
-13.94
-13.11
-11.61
-9.57
-7.26
-4.87
-2.62
-0.61
1.01
2.12
2.58
2.34
1.49
0.33
-0.77
-1.49
-1.69
-1.40
-0.83
-0.23
0.28
0.66
0.95
1.20
1.38
1.38
1.08
0.43
-0.52
-1.60
-2.64
-3.52
-4.25
-4.89
-5.54
-6.21
-6.88
-7.49
-8.05
-8.65
-9.44
-10.56
-11.99
-13.52
-14.79
-15.43
-15.21
-14.12
-12.35
-10.18
-7.88
-5.59
-3.31
-1.05
1.16
3.23
5.04
6.49
7.59
8.42
9.07
9.56
9.90
10.05
9.99
9.78
9.46
9.12
8.80
8.50
8.20
7.85
7.39
6.74
5.87
4.78
3.55
2.30
1.12
0.05
-0.94
-1.93
-3.01
-4.23
-5.61
-7.18
-8.92
-10.76
-12.52
-14.00
-14.94
-15.14
-14.50
-13.04
-10.92
-8.34
-5.53
-2.71
-0.03
2.41
4.57
6.40
7.86
8.85
9.30
9.21
8.65
7.79
6.81
5.81
4.80
3.73
2.59
1.40
0.26
-0.75
-1.64
-2.47
-3.34
-4.26
-5.18
-5.97
-6.55
-6.91
-7.20
-7.60
-8.27
-9.23
-10.40
-11.58
-12.57
-13.23
-13.47
-13.27
-12.64
-11.60
-10.16
-8.34
-6.17
-3.70
-0.97
1.97
5.08
8.27
11.42
14.33
16.78
18.59
19.68
20.10
20.02
19.68
19.24
18.82
18.39
17.86
17.07
15.90
14.33
12.47
10.54
8.85
7.60
6.79
6.28
5.81
5.17
4.28
3.23
2.14
1.08
0.04
-1.07
-2.33
-3.78
-5.45
-7.35
-9.52
-11.97
-14.58
-17.09
-19.14
-20.38
-20.51
-19.44
-17.18
-13.87
-9.76
-5.12
-0.26
4.50
8.88
12.67
15.73
17.98
19.39
19.98
19.83
19.09
17.94
16.56
15.07
13.56
12.13
10.88
9.94
9.33
8.99
8.72
8.30
7.58
6.51
5.19
3.76
2.32
0.95
-0.34
-1.53
-2.62
-3.63
-4.63
-5.75
-7.07
-8.60
-10.22
-11.73
-12.92
-13.60
-13.65
-13.09
-11.98
-10.45
-8.57
-6.43
-4.02
-1.37
1.44
4.28
6.91
9.09
10.63
11.50
11.78
11.67
11.34
10.87
10.21
9.25
7.90
6.20
4.30
2.42
0.73
-0.72
-2.05
-3.43
-4.97
-6.67
-8.35
-9.83
-11.00
-11.88
-12.69
-13.71
-15.16
-17.08
-19.33
-21.60
-23.63
-25.24
-26.53
-27.67
-28.89
-30.27
-31.74
-33.08
-34.02
-34.33
-33.74
-31.98
-28.73
-23.88
-17.61
-10.53
-3.56
2.43
6.97
10.16
12.64
15.17
18.29
21.98
25.71
28.66
30.08
29.55
27.17
23.44
19.10
14.91
11.43
8.91
7.28
6.22
5.34
4.29
2.93
1.31
-0.41
-2.11
-3.75
-5.39
-7.00
-8.31
-8.75
-7.70
-4.78
-0.14
5.57
11.41
16.63
21.03
25.05
29.41
34.64
40.52
46.00
49.64
50.35
48.10
44.09
40.31
38.57
39.59
42.61
45.71
46.77
44.41
38.56
30.34
21.42
13.21
6.43
1.02
-3.51
-7.74
-12.03
-16.43
-20.78
-24.85
-28.50
-31.72
-34.60
-37.20
-39.48
-41.33
-42.63
-43.33
-43.60
-43.69
-43.85
-44.15
-44.29
-43.69
-41.58
-37.38
-30.95
-22.67
-13.40
-4.15
4.23
11.33
17.17
22.10
26.53
30.70
34.57
37.83
40.12
41.11
40.67
38.93
36.13
32.59
28.53
24.15
19.66
15.31
11.44
8.33
6.10
4.66
3.78
3.30
3.19
3.55
4.46
5.80
7.20
8.20
8.44
7.77
6.24
3.93
0.81
-3.24
-8.26
-14.03
-19.97
-25.36
-29.57
-32.28
-33.54
-33.60
-32.73
-31.11
-28.80
-25.92
-22.69
-19.47
-16.63
-14.46
-13.10
-12.50
-12.51
-12.90
-13.43
-13.88
-14.11
-14.06
-13.78
-13.36
-12.89
-12.39
-11.78
-10.95
-9.84
-8.46
-6.95
-5.49
-4.28
-3.44
-3.00
-2.92
-3.14
-3.57
-4.17
-4.94
-5.88
-7.00
-8.33
-9.89
-11.73
-13.85
-16.16
-18.45
-20.35
-21.44
-21.42
-20.23
-18.06
-15.27
-12.23
-9.20
-6.26
-3.39
-0.56
2.16
4.64
6.71
8.29
9.39
10.15
10.74
11.35
12.02
12.74
13.36
13.79
13.96
13.94
13.85
13.84
13.96
14.13
14.21
14.04
13.51
12.64
11.55
10.41
9.36
8.48
7.72
6.98
6.13
5.07
3.79
2.30
0.63
-1.23
-3.35
-5.76
-8.41
-11.13
-13.59
-15.43
-16.36
-16.19
-14.88
-12.51
-9.28
-5.44
-1.32
2.80
6.65
10.06
12.93
15.30
17.20
18.69
19.79
20.45
20.59
20.11
19.04
17.54
15.87
14.34
13.19
12.47
12.09
11.91
11.74
11.51
11.17
10.71
10.12
9.38
8.53
7.61
6.71
5.89
5.17
4.55
4.00
3.44
2.76
1.87
0.66
-0.85
-2.55
-4.26
-5.82
-7.17
-8.35
-9.42
-10.38
-11.09
-11.30
-10.71
-9.20
-6.84
-3.92
-0.84
2.05
4.54
6.55
8.12
9.28
10.01
10.25
9.97
9.18
8.04
6.73
5.43
4.20
3.03
1.80
0.46
-0.97
-2.34
-3.48
-4.24
-4.63
-4.75
-4.83
-5.08
-5.65
-6.57
-7.77
-9.11
-10.46
-11.74
-12.96
-14.16
-15.38
-16.63
-17.82
-18.87
-19.71
-20.33
-20.76
-21.02
-21.05
-20.75
-19.93
-18.43
-16.16
-13.13
-9.42
-5.24
-0.80
3.68
7.99
11.97
15.48
18.40
20.64
22.14
22.93
23.10
22.80
22.22
21.44
20.48
19.29
17.84
16.15
14.35
12.59
11.01
9.69
8.66
7.88
7.28
6.72
6.07
5.16
3.90
2.29
0.42
-1.53
-3.42
-5.08
-6.46
-7.54
-8.35
-8.99
-9.60
-10.34
-11.33
-12.54
-13.81
-14.92
-15.65
-15.88
-15.62
-14.86
-13.56
-11.58
-8.81
-5.28
-1.24
2.86
6.56
9.50
11.66
13.42
15.50
18.88
24.50
32.95
44.05
56.62
68.55
77.38
81.07
78.81
71.45
61.32
51.31
43.81
39.79
38.48
37.77
35.12
28.56
17.53
2.96
-13.08
-28.18
-40.40
-48.74
-53.16
-54.40
-53.56
-51.68
-49.41
-46.75
-42.93
-36.80
-27.43
-14.81
-0.44
12.76
21.25
22.18
14.74
0.70
-16.25
-31.89
-43.16
-49.09
-50.68
-49.87
-48.17
-45.91
-42.33
-36.46
-28.14
-18.53
-9.69
-3.58
-1.07
-1.54
-3.42
-5.11
-5.77
-5.62
-5.61
-6.73
-9.44
-13.41
-17.76
-21.51
-24.01
-25.18
-25.43
-25.43
-25.83
-26.94
-28.68
-30.60
-32.02
-32.31
-31.14
-28.60
-25.22
-21.76
-18.90
-16.83
-14.94
-11.91
-6.15
3.36
16.36
31.09
44.74
54.42
58.30
56.29
50.05
42.25
35.39
30.90
28.82
28.19
27.88
27.28
26.56
26.36
27.20
28.93
30.68
31.33
30.09
26.98
22.83
18.82
15.85
14.21
13.58
13.34
12.92
12.15
11.29
10.88
11.44
13.16
15.83
18.86
21.59
23.53
24.61
25.11
25.49
26.10
27.04
28.18
29.26
30.12
30.77
31.34
32.06
33.09
34.42
35.76
36.50
35.75
32.52
26.05
16.16
3.42
-10.95
-25.37
-38.43
-49.12
-57.02
-62.10
-64.56
-64.69
-62.91
-59.84
-56.27
-53.00
-50.59
-49.19
-48.52
-48.08
-47.37
-46.14
-44.43
-42.50
-40.71
-39.31
-38.39
-37.87
-37.56
-37.27
-36.91
-36.60
-36.62
-37.36
-39.15
-42.03
-45.75
-49.82
-53.64
-56.70
-58.59
-59.07
-57.99
-55.33
-51.20
-45.84
-39.64
-33.00
-26.31
-19.88
-13.96
-8.70
-4.18
-0.44
2.52
4.77
6.42
7.80
9.48
12.30
17.19
24.82
35.23
47.74
61.08
73.96
85.48
95.35
103.75
110.80
116.29
119.60
120.04
117.25
111.52
103.75
95.19
87.00
80.06
74.83
71.39
69.61
69.16
69.60
70.47
71.25
71.48
70.73
68.71
65.29
60.53
54.70
48.15
41.23
34.14
26.95
19.78
12.88
6.84
2.50
0.73
2.09
6.63
13.78
22.49
31.47
39.47
45.55
49.13
50.09
48.74
45.70
41.78
37.69
33.78
29.97
25.77
20.57
14.08
6.61
-0.93
-7.24
-11.06
-11.54
-8.43
-2.12
6.33
15.17
21.98
24.14
19.50
7.18
-11.89
-35.26
-59.81
-82.92
-103.12
-120.02
-133.53
-143.13
-147.70
-146.22
-138.76
-127.15
-114.51
-104.06
-97.65
-95.10
-94.59
-93.88
-91.48
-87.05
-81.12
-74.26
-66.69
-58.29
-48.98
-38.53
-26.25
-10.50
11.17
40.88
78.91
122.66
167.08
206.20
235.25
252.01
257.01
252.47
240.84
223.82
201.94
174.79
141.55
101.51
54.74
2.59
-52.05
-105.27
-153.00
-192.24
-221.68
-241.64
-253.37
-258.30
-257.64
-252.53
-244.38
-234.73
-224.87
-215.32
-205.42
-193.64
-178.33
-158.64
-135.11
-109.57
-84.52
-62.39
-44.85
-32.40
-24.55
-20.07
-17.39
-15.07
-12.07
-7.89
-2.48
3.85
10.67
17.51
23.89
29.38
33.69
36.74
38.70
39.90
40.64
41.05
40.93
39.92
37.76
34.48
30.55
26.72
23.72
22.01
21.67
22.39
23.70
25.13
26.31
27.00
27.12
26.67
25.80
24.73
23.71
22.95
22.48
22.10
21.46
20.13
17.80
14.37
9.99
5.02
-0.11
-4.99
-9.35
-13.12
-16.38
-19.35
-22.21
-25.06
-27.80
-30.19
-31.90
-32.68
-32.46
-31.43
-30.02
-28.78
-28.23
-28.70
-30.20
-32.38
-34.57
-35.99
-35.97
-34.15
-30.62
-25.78
-20.26
-14.57
-9.07
-3.92
0.84
5.20
9.12
12.54
15.45
17.85
19.75
21.08
21.67
21.37
20.08
17.86
14.97
11.82
8.86
6.51
5.01
4.49
4.88
6.03
7.70
9.60
11.48
13.09
14.19
14.53
13.85
11.86
8.30
2.99
-4.09
-12.69
-22.27
-31.97
-40.72
-47.45
-51.35
-52.08
-49.86
-45.37
-39.54
-33.33
-27.56
-22.84
-19.59
-18.12
-18.61
-21.19
-25.79
-32.23
-40.14
-48.88
-57.58
-65.23
-70.85
-73.75
-73.74
-71.14
-66.51
-60.32
-52.59
-42.87
-30.35
-14.42
5.02
27.17
50.42
72.70
91.86
106.08
114.07
115.27
110.02
99.74
86.72
73.82
63.78
58.49
58.37
62.20
67.64
72.19
74.26
73.59
71.03
67.99
65.70
64.56
64.06
63.02
60.22
55.29
48.43
40.22
31.45
23.01
15.67
9.83
5.41
1.80
-1.25
-4.53
-9.25
-16.41
-26.08
-37.24
-48.27
-57.74
-64.79
-67.86
-66.09
-59.22
-46.88
-28.14
-2.10
31.28
70.32
112.02
154.17
193.76
226.84
249.30
258.22
252.46
232.84
201.59
153.33
91.53
27.28
-26.60
-62.76
-80.43
-84.00
-77.36
-63.07
-43.41
-19.45
6.78
31.95
51.61
62.47
63.36
55.27
40.22
20.49
-0.73
-21.48
-41.33
-60.36
-77.63
-90.80
-96.62
-92.75
-79.16
-57.83
-33.29
-11.05
4.61
12.28
13.11
9.27
1.97
-9.09
-24.41
-43.63
-64.69
-83.98
-97.59
-103.02
-100.15
-91.03
-78.55
-64.97
-51.58
-38.98
-27.66
-18.34
-11.80
-8.48
-8.08
-9.58
-11.62
-13.00
-13.08
-11.76
-9.35
-6.30
-3.11
-0.20
2.05
3.49
4.16
4.37
4.52
4.90
5.57
6.32
6.82
6.81
6.20
5.03
3.43
1.48
-0.81
-3.44
-6.32
-9.20
-11.72
-13.47
-14.17
-13.69
-12.07
-9.50
-6.26
-2.66
1.05
4.60
7.84
10.67
13.07
15.03
16.50
17.43
17.76
17.49
16.69
15.52
14.12
12.60
10.99
9.28
7.49
5.69
3.98
2.46
1.14
-0.06
-1.25
-2.53
-3.90
-5.25
-6.50
-7.55
-8.42
-9.18
-9.94
-10.78
-11.79
-13.02
-14.52
-16.33
-18.42
-20.63
-22.66
-24.06
-24.35
-23.16
-20.34
-16.01
-10.58
-4.65
1.17
6.40
10.85
14.61
17.99
21.34
24.85
28.43
31.70
34.17
35.48
35.66
35.21
34.92
35.47
37.06
39.21
40.96
41.28
39.45
35.18
28.47
19.45
8.39
-4.04
-16.50
-27.02
-33.46
-34.25
-28.91
-18.17
-3.57
13.14
30.34
46.58
60.22
69.30
71.78
66.21
52.59
32.79
10.33
-10.48
-25.90
-33.80
-34.12
-28.52
-19.28
-8.33
3.36
15.41
27.30
37.60
44.00
44.06
36.42
21.75
2.73
-16.82
-33.29
-44.54
-50.25
-51.62
-50.40
-48.04
-45.24
-41.93
-37.83
-32.79
-27.23
-21.98
-17.98
-15.88
-15.74
-17.07
-19.09
-21.17
-23.01
-24.71
-26.52
-28.60
-30.85
-32.92
-34.40
-35.02
-34.73
-33.70
-32.17
-30.34
-28.26
-25.85
-22.92
-19.25
-14.68
-9.22
-3.13
3.15
9.05
14.05
17.89
20.54
22.20
23.16
23.62
23.70
23.38
22.60
21.36
19.69
17.73
15.60
13.41
11.22
9.13
7.22
5.59
4.27
3.19
2.13
0.82
-0.94
-3.16
-5.68
-8.19
-10.44
-12.36
-14.05
-15.76
-17.72
-20.05
-22.71
-25.51
-28.19
-30.38
-31.72
-31.86
-30.61
-27.99
-24.28
-19.90
-15.32
-10.88
-6.73
-2.89
0.71
4.04
7.02
9.53
11.45
12.77
13.54
13.78
13.50
12.69
11.40
9.80
8.13
6.66
5.54
4.72
3.98
3.09
1.89
0.40
-1.18
-2.58
-3.64
-4.30
-4.68
-4.94
-5.28
-5.85
-6.78
-8.11
-9.83
-11.82
-13.90
-15.91
-17.70
-19.16
-20.22
-20.71
-20.44
-19.23
-16.98
-13.81
-9.95
-5.74
-1.41
2.90
7.13
11.19
14.84
17.81
19.87
21.01
21.41
21.43
21.38
21.37
21.28
20.83
19.78
18.10
15.99
13.82
11.97
10.66
9.91
9.57
9.42
9.22
8.79
8.03
6.90
5.41
3.63
1.68
-0.30
-2.16
-3.86
-5.44
-7.03
-8.78
-10.78
-13.05
-15.43
-17.64
-19.35
-20.18
-19.86
-18.31
-15.62
-12.06
-8.00
-3.76
0.46
4.55
8.42
11.92
14.87
17.07
18.44
19.07
19.16
18.94
18.53
17.96
17.16
16.12
14.90
13.69
12.72
12.17
12.08
12.30
12.55
12.47
11.79
10.43
8.53
6.40
4.37
2.64
1.22
-0.07
-1.45
-3.07
-4.93
-6.97
-9.11
-11.33
-13.61
-15.88
-17.93
-19.38
-19.82
-18.96
-16.79
-13.55
-9.66
-5.55
-1.51
2.31
5.89
9.22
12.19
14.60
16.25
17.03
16.99
16.40
15.58
14.80
14.14
13.52
12.79
11.86
10.80
9.77
8.95
8.41
8.03
7.59
6.87
5.77
4.35
2.74
1.06
-0.61
-2.32
-4.11
-5.99
-7.87
-9.65
-11.25
-12.73
-14.23
-15.93
-17.91
-19.99
-21.75
-22.63
-22.13
-20.00
-16.38
-11.73
-6.67
-1.79
2.53
6.14
9.00
11.14
12.62
13.48
13.84
13.89
13.80
13.65
13.47
13.17
12.71
12.08
11.38
10.68
10.08
9.58
9.15
8.75
8.30
7.73
6.95
5.90
4.59
3.06
1.45
-0.16
-1.71
-3.25
-4.84
-6.57
-8.45
-10.44
-12.46
-14.41
-16.10
-17.31
-17.71
-16.98
-14.85
-11.30
-6.58
-1.14
4.55
10.09
15.34
20.28
24.94
29.33
33.34
36.81
39.60
41.65
42.95
43.62
43.84
43.89
44.09
44.76
46.06
47.94
50.10
52.17
53.89
55.31
56.82
58.95
61.96
65.58
68.86
70.37
68.74
63.12
53.55
40.95
26.78
12.65
0.02
-10.06
-17.03
-20.84
-21.95
-21.23
-19.73
-18.32
-17.44
-17.03
-16.74
-16.29
-15.76
-15.61
-16.45
-18.57
-21.59
-24.45
-25.67
-23.93
-18.56
-9.92
0.76
11.76
21.43
28.77
33.56
36.19
37.20
36.89
35.28
32.28
28.18
23.90
20.79
20.18
22.60
27.52
33.45
38.67
42.04
43.61
44.42
45.89
48.88
53.24
57.68
60.50
60.31
56.49
49.30
39.51
28.23
16.66
6.17
-1.81
-6.16
-6.59
-4.06
-0.71
0.81
-1.57
-8.61
-19.47
-32.41
-45.48
-57.30
-67.17
-74.71
-79.24
-79.55
-74.26
-62.79
-46.62
-29.27
-15.85
-11.35
-18.78
-37.58
-63.60
-90.63
-112.94
-127.95
-136.09
-140.12
-143.15
-147.04
-151.53
-154.83
-154.83
-150.45
-142.86
-133.61
-124.22
-115.56
-107.89
-101.19
-95.27
-89.89
-84.78
-80.35
-75.60
-68.94
-58.64
-43.71
-24.40
-2.15
20.54
46.09
70.90
88.13
91.29
79.33
57.14
32.60
13.32
4.06
5.68
11.90
20.21
29.25
38.93
49.62
61.29
73.13
83.61
91.04
93.61
91.51
85.67
77.83
69.60
61.89
54.74
47.67
40.10
31.36
22.02
12.97
5.26
-0.48
-4.39
-7.13
-9.43
-11.78
-14.39
-16.70
-18.24
-18.68
-18.18
-17.22
-16.31
-15.67
-15.11
-14.17
-12.13
-8.53
-3.30
3.13
9.88
15.87
20.15
22.21
22.01
20.06
17.00
13.46
9.89
6.54
3.55
1.05
-0.82
-2.02
-2.68
-3.09
-3.62
-4.53
-5.89
-7.57
-9.35
-11.05
-12.65
-14.25
-16.01
-18.03
-20.24
-22.41
-24.25
-25.58
-26.46
-27.26
-28.49
-30.61
-33.72
-37.47
-41.06
-43.49
-43.88
-41.74
-37.05
-30.14
-21.54
-11.85
-1.62
8.50
17.81
25.59
31.26
34.59
35.80
35.56
34.76
34.23
34.43
35.33
36.44
37.08
36.67
34.96
32.04
28.29
24.10
19.75
15.32
10.79
6.14
1.45
-3.10
-7.27
-10.85
-13.71
-15.85
-17.31
-18.20
-18.70
-18.94
-19.05
-19.06
-18.97
-18.68
-18.06
-17.00
-15.45
-13.42
-10.99
-8.28
-5.41
-2.47
0.51
3.53
6.55
9.47
12.10
14.16
15.41
15.73
15.18
14.00
12.53
11.10
9.94
9.10
8.47
7.87
7.18
6.35
5.51
4.82
4.43
4.39
4.57
4.81
4.91
4.76
4.33
3.62
2.61
1.23
-0.60
-2.87
-5.43
-8.05
-10.48
-12.62
-14.57
-16.55
-18.79
-21.35
-24.04
-26.42
-27.97
-28.24
-26.97
-24.18
-20.09
-15.04
-9.45
-3.75
1.69
6.56
10.66
13.89
16.26
17.87
18.85
19.35
19.52
19.46
19.23
18.78
18.03
16.90
15.36
13.52
11.56
9.69
8.07
6.68
5.40
4.04
2.43
0.53
-1.52
-3.51
-5.16
-6.31
-6.91
-7.05
-6.94
-6.79
-6.80
-7.12
-7.83
-9.00
-10.54
-12.21
-13.60
-14.24
-13.74
-11.94
-9.03
-5.46
-1.73
1.75
4.80
7.43
9.74
11.75
13.38
14.49
14.94
14.74
14.03
13.06
12.09
11.30
10.75
10.39
10.11
9.85
9.56
9.22
8.86
8.46
7.99
7.42
6.70
5.82
4.75
3.50
2.09
0.55
-1.03
-2.59
-4.11
-5.63
-7.25
-9.07
-11.13
-13.41
-15.79
-18.15
-20.30
-22.05
-23.16
-23.34
-22.38
-20.16
-16.75
-12.43
-7.57
-2.56
2.29
6.81
10.96
14.72
18.07
20.88
22.98
24.23
24.58
24.18
23.29
22.25
21.39
20.81
20.47
20.15
19.55
18.46
16.82
14.72
12.30
9.70
6.99
4.20
1.41
-1.20
-3.48
-5.36
-7.13
-9.34
-12.64
-17.40
-23.44
-29.95
-35.79
-40.01
-42.22
-42.80
-42.65
-42.79
-43.86
-45.86
-48.22
-50.03
-50.44
-48.99
-45.77
-41.36
-36.76
-33.01
-31.00
-31.20
-33.60
-37.67
-42.57
-47.39
-51.50
-54.80
-57.83
-61.52
-66.69
-73.44
-80.86
-87.13
-90.24
-88.97
-83.52
-75.56
-67.59
-61.82
-59.31
-59.43
-60.05
-58.09
-50.32
-34.15
-8.34
26.54
68.01
112.05
154.12
190.29
218.23
237.45
248.75
253.22
251.35
242.64
226.11
201.15
168.49
130.64
91.72
56.57
29.69
14.12
10.90
18.77
34.48
53.31
69.88
79.19
77.74
64.46
41.15
12.08
-17.24
-41.73
-58.31
-66.65
-68.72
-67.64
-66.18
-65.70
-66.01
-65.91
-64.12
-59.95
-53.53
-45.51
-36.56
-27.02
-16.82
-5.81
5.87
17.66
28.63
37.91
45.10
50.51
55.00
59.58
64.89
70.94
77.06
82.27
85.46
85.62
81.79
73.06
58.83
39.26
15.76
-8.98
-31.48
-48.54
-58.21
-60.22
-55.62
-45.86
-31.96
-14.36
6.67
30.24
54.46
76.57
93.62
103.15
103.63
94.45
75.81
48.82
15.59
-20.71
-56.10
-86.56
-108.94
-121.74
-125.30
-121.41
-112.64
-101.68
-90.94
-82.54
-78.34
-79.86
-87.85
-101.66
-118.77
-134.98
-145.37
-145.77
-134.09
-110.91
-79.08
-42.57
-5.13
30.48
62.60
90.33
113.08
130.37
142.01
148.34
150.29
149.27
146.75
143.87
141.27
139.09
137.22
135.53
134.02
132.67
131.10
128.18
122.04
110.41
91.51
64.90
31.93
-4.57
-41.09
-74.51
-102.73
-124.70
-139.94
-147.90
-147.70
-138.42
-119.72
-92.60
-59.55
-24.23
9.29
37.32
57.09
66.96
66.48
56.37
38.56
16.10
-7.31
-28.11
-43.72
-53.13
-56.72
-55.67
-51.14
-43.84
-34.30
-23.61
-14.03
-9.03
-12.44
-26.90
-52.42
-85.56
-119.98
-148.00
-162.91
-160.92
-142.11
-110.08
-70.53
-29.42
8.46
40.22
64.71
81.91
92.36
96.76
95.98
91.10
83.52
74.75
66.19
58.86
53.22
49.22
46.37
44.11
42.09
40.36
39.29
39.36
40.83
43.52
46.79
49.76
51.56
51.52
49.20
44.35
36.71
26.16
12.85
-2.52
-18.64
-33.80
-46.37
-55.31
-60.57
-62.98
-63.90
-64.67
-66.06
-68.19
-70.57
-72.50
-73.34
-72.67
-70.43
-66.80
-62.22
-57.35
-53.07
-50.19
-49.24
-50.14
-52.14
-53.95
-54.20
-51.86
-46.60
-38.86
-29.71
-20.52
-12.62
-6.99
-4.07
-3.74
-5.40
-8.13
-10.88
-12.76
-13.14
-11.74
-8.60
-3.95
1.85
8.37
15.07
21.34
26.59
30.41
32.63
33.32
32.72
31.04
28.47
25.21
21.51
17.81
14.52
11.92
9.92
8.14
6.04
3.29
-0.06
-3.58
-6.75
-9.22
-11.07
-12.73
-14.72
-17.31
-20.39
-23.49
-26.03
-27.67
-28.49
-28.89
-29.43
-30.47
-32.05
-33.85
-35.46
-36.56
-37.03
-36.94
-36.46
-35.79
-35.14
-34.79
-34.93
-35.58
-36.27
-36.00
-33.42
-27.29
-17.06
-3.28
12.50
28.26
42.26
53.73
63.02
71.26
79.64
88.80
98.43
107.42
114.41
118.30
118.69
115.96
111.07
105.16
99.22
93.88
89.33
85.46
81.89
78.15
73.58
67.46
59.04
47.81
33.78
17.63
0.66
-15.57
-29.71
-41.01
-49.54
-55.93
-61.07
-65.65
-69.85
-73.29
-75.27
-75.04
-72.13
-66.60
-59.00
-50.27
-41.40
-33.24
-26.31
-20.81
-16.71
-13.84
-12.04
-11.15
-10.95
-11.21
-11.60
-11.79
-11.50
-10.58
-9.05
-7.18
-5.42
-4.22
-3.90
-4.56
-5.98
-7.82
-9.71
-11.43
-12.89
-14.09
-15.00
-15.52
-15.56
-15.08
-14.22
-13.19
-12.13
-11.02
-9.57
-7.28
-3.60
1.86
9.15
17.87
27.16
35.90
43.02
47.82
50.34
51.36
52.13
53.92
57.50
62.87
69.23
75.23
79.20
79.36
74.08
62.16
43.35
18.79
-8.88
-35.88
-58.28
-73.04
-78.81
-75.95
-65.94
-50.53
-31.27
-9.42
13.57
35.90
55.51
70.66
80.55
85.70
87.57
87.90
87.86
87.48
85.66
80.68
70.95
55.81
36.02
13.70
-8.23
-26.95
-40.67
-49.17
-53.69
-56.23
-58.54
-61.44
-64.55
-66.81
-67.12
-65.01
-60.90
-55.74
-50.55
-45.92
-41.86
-38.00
-34.00
-29.87
-26.04
-23.11
-21.57
-21.49
-22.53
-24.13
-25.79
-27.27
-28.58
-29.82
-30.92
-31.52
-31.03
-28.87
-24.74
-18.79
-11.63
-4.04
3.24
9.75
15.40
20.29
24.59
28.36
31.57
34.08
35.78
36.58
36.41
35.14
32.62
28.72
23.44
17.03
10.05
3.29
-2.44
-6.49
-8.66
-9.20
-8.70
-7.85
-7.15
-6.80
-6.74
-6.80
-6.98
-7.47
-8.52
-10.29
-12.67
-15.23
-17.43
-18.83
-19.28
-18.96
-18.19
-17.27
-16.34
-15.36
-14.24
-12.95
-11.59
-10.33
-9.37
-8.80
-8.57
-8.53
-8.50
-8.33
-7.96
-7.45
-6.92
-6.52
-6.36
-6.48
-6.89
-7.56
-8.45
-9.52
-10.70
-11.85
-12.75
-13.17
-12.96
-12.09
-10.71
-9.05
-7.35
-5.74
-4.21
-2.68
-1.07
0.61
2.29
3.80
5.03
5.91
6.45
6.69
6.65
6.33
5.69
4.74
3.55
2.29
1.15
0.30
-0.22
-0.50
-0.73
-1.13
-1.84
-2.87
-4.12
-5.43
-6.64
-7.68
-8.59
-9.43
-10.27
-11.13
-11.94
-12.61
-13.03
-13.11
-12.75
-11.90
-10.52
-8.61
-6.24
-3.54
-0.66
2.24
4.98
7.42
9.48
11.13
12.45
13.54
14.58
15.65
16.74
17.70
18.30
18.33
17.67
16.32
14.42
12.16
9.75
7.40
5.30
3.58
2.32
1.49
0.94
0.41
-0.36
-1.54
-3.19
-5.17
-7.27
-9.26
-10.97
-12.35
-13.44
-14.32
-15.08
-15.73
-16.20
-16.33
-15.95
-14.92
-13.20
-10.84
-8.00
-4.87
-1.62
1.62
4.73
7.64
10.23
12.35
13.90
14.80
15.09
14.85
14.24
13.39
12.40
11.32
10.13
8.85
7.52
6.19
4.98
3.91
2.97
2.09
1.18
0.22
-0.76
-1.66
-2.43
-3.11
-3.81
-4.66
-5.71
-6.90
-8.10
-9.20
-10.15
-10.92
-11.48
-11.71
-11.39
-10.28
-8.24
-5.33
-1.79
2.05
5.88
9.46
12.65
15.33
17.44
18.96
19.92
20.39
20.43
20.10
19.44
18.48
17.31
16.01
14.62
13.15
11.55
9.80
8.00
6.37
5.11
4.31
3.87
3.54
3.10
2.49
1.87
1.55
1.80
2.69
4.07
5.65
7.19
8.58
9.94
11.58
13.85
17.14
21.71
27.63
34.63
42.11
49.21
55.00
58.80
60.35
59.93
58.08
55.31
51.81
47.33
41.38
33.50
23.64
12.27
0.29
-11.22
-21.23
-29.00
-34.12
-36.57
-36.55
-34.40
-30.48
-25.09
-18.44
-10.69
-2.03
7.30
16.91
26.23
34.47
40.70
44.05
44.01
40.70
34.92
27.94
20.99
14.73
9.07
3.31
-3.31
-11.12
-19.83
-28.77
-37.48
-46.09
-55.21
-65.27
-75.91
-85.81
-93.22
-96.84
-96.65
-94.05
-91.44
-91.54
-96.99
-110.17
-133.09
-166.59
-209.39
-257.10
-302.53
-337.35
-354.81
-352.12
-331.25
-297.68
-257.78
-216.22
-174.77
-132.73
-88.32
-40.04
12.72
69.84
130.50
192.97
254.21
310.22
357.21
393.26
419.28
438.45
454.13
467.61
477.20
479.45
471.68
454.07
429.99
404.13
379.85
357.45
334.32
306.72
271.89
229.34
180.87
129.98
81.17
39.23
8.69
-7.26
-7.67
5.42
27.14
50.82
69.50
77.72
72.96
56.41
32.57
7.80
-12.05
-23.75
-27.87
-28.24
-30.11
-38.02
-54.51
-80.16
-114.28
-155.52
-201.59
-248.63
-291.02
-322.30
-337.30
-334.22
-315.47
-286.83
-255.18
-226.18
-202.77
-185.17
-171.92
-161.24
-151.99
-143.91
-137.20
-131.97
-127.86
-124.01
-119.35
-113.03
-104.78
-94.97
-84.41
-74.08
-64.77
-56.90
-50.52
-45.48
-41.53
-38.52
-36.36
-35.08
-34.56
-34.44
-34.22
-33.45
-31.96
-29.87
-27.54
-25.34
-23.70
-22.74
-22.23
-21.72
-20.77
-19.22
-17.24
-15.22
-13.58
-12.88
-13.22
-14.18
-14.97
-14.96
-14.00
-12.40
-10.66
-9.18
-8.95
-10.19
-12.20
-13.76
-14.12
-13.53
-12.96
-13.58
-16.12
-22.30
-32.31
-44.35
-55.55
-63.85
-69.09
-72.65
-76.36
-81.49
-91.07
-105.69
-122.84
-138.19
-148.53
-153.28
-154.06
-153.20
-152.53
-156.65
-167.80
-184.54
-202.44
-216.69
-223.60
-220.91
-208.03
-163.90
-84.63
13.42
102.95
165.58
200.27
216.68
225.17
231.16
235.00
231.37
218.08
198.84
181.24
171.15
169.22
171.34
171.88
166.92
153.41
133.10
111.78
96.14
89.72
91.22
95.75
97.54
92.50
77.80
54.68
28.32
6.30
-4.70
-0.07
20.74
53.51
89.53
116.76
124.59
108.33
71.77
26.21
-13.62
-34.93
-31.89
-8.92
22.56
50.19
66.47
70.28
64.57
53.68
40.64
26.01
9.23
-9.40
-27.68
-41.43
-47.65
-45.66
-37.76
-28.33
-21.93
-20.61
-22.85
-24.67
-22.05
-13.54
-0.87
12.26
22.08
26.28
24.83
19.41
12.43
6.00
1.24
-1.67
-3.34
-4.98
-7.92
-12.63
-18.12
-21.73
-20.30
-11.93
3.30
23.36
44.75
63.47
76.46
80.59
73.64
54.94
26.00
-8.76
-42.58
-68.26
-81.05
-79.98
-67.85
-49.34
-28.83
-9.37
7.67
21.78
32.69
38.83
38.21
29.59
13.60
-7.15
-29.23
-49.41
-65.73
-75.11
-77.70
-76.04
-72.72
-70.04
-65.96
-59.03
-49.47
-39.48
-30.86
-26.45
-28.56
-37.01
-48.42
-57.28
-57.97
-46.58
-22.13
15.14
60.70
106.87
146.36
175.30
194.43
207.49
219.38
219.87
205.37
177.79
140.33
94.85
44.53
-4.06
-43.08
-66.93
-74.97
-69.18
-55.58
-42.07
-35.40
-39.04
-52.57
-72.13
-91.54
-104.91
-106.63
-96.02
-77.96
-60.00
-48.21
-44.06
-44.37
-43.35
-36.16
-20.19
2.51
26.42
45.99
58.76
66.33
69.41
70.33
71.95
76.83
84.50
90.53
88.07
71.09
37.72
-8.29
-57.67
-99.07
-123.37
-127.49
-115.04
-92.86
-66.62
-38.42
-7.52
26.02
57.80
83.37
100.52
107.21
100.80
79.70
45.41
3.45
-36.34
-61.42
-64.49
-44.49
-8.10
31.21
58.64
64.35
47.21
14.64
-21.38
-52.91
-75.63
-89.90
-101.15
-116.24
-136.13
-158.71
-185.51
-214.12
-238.45
-253.84
-254.06
-235.12
-196.97
-143.40
-80.57
-15.02
49.18
109.41
165.45
221.49
279.05
334.72
382.11
415.68
432.96
435.63
425.83
384.49
308.39
212.08
117.45
38.98
-19.41
-60.30
-88.58
-112.95
-139.40
-167.23
-194.38
-219.43
-241.69
-253.47
-249.02
-218.32
-167.02
-112.18
-67.76
-38.19
-19.55
-5.54
6.72
16.80
23.34
23.37
17.88
13.84
19.08
37.04
64.94
92.03
105.38
97.90
72.19
39.66
13.33
0.06
-2.12
-0.14
-0.53
-4.89
-10.19
-12.65
-9.94
-2.45
7.98
16.90
21.46
22.13
21.42
21.22
21.31
20.67
19.01
18.37
21.41
30.28
45.14
63.85
82.63
97.25
104.58
100.99
85.46
59.40
26.30
-9.64
-44.68
-76.22
-102.59
-122.67
-135.62
-140.41
-136.76
-125.57
-109.18
-90.93
-74.22
-61.45
-53.26
-48.39
-43.98
-37.14
-26.11
-11.23
5.24
20.11
30.66
35.80
36.19
33.91
31.09
28.94
27.43
25.64
22.61
18.02
12.44
6.99
2.84
0.47
-0.77
-2.42
-6.27
-13.41
-23.70
-35.80
-47.85
-58.23
-66.19
-72.03
-76.41
-79.57
-80.90
-79.28
-73.94
-65.22
-54.41
-43.54
-34.91
-30.33
-30.48
-34.76
-41.51
-48.36
-52.48
-50.47
-39.50
-18.76
9.95
42.97
75.59
102.95
120.86
126.44
119.60
102.59
78.28
48.90
15.99
-19.53
-56.77
-93.68
-126.18
-147.06
-148.89
-128.18
-87.52
-34.24
22.74
76.10
122.06
153.37
162.92
151.78
127.94
98.46
67.61
39.34
18.03
6.58
4.26
8.13
12.84
13.23
6.36
-6.77
-21.45
-32.39
-36.20
-32.47
-21.65
-4.35
17.65
41.35
62.79
78.51
86.80
89.14
89.78
94.50
106.44
123.99
141.15
150.23
146.12
128.30
100.76
68.69
36.49
5.34
-25.04
-50.19
-65.42
-70.33
-69.02
-65.64
-65.81
-67.62
-68.06
-64.49
-55.77
-43.83
-28.95
-15.36
-7.88
-10.28
-23.08
-43.94
-67.72
-88.45
-102.14
-107.45
-105.65
-98.61
-88.03
-74.62
-59.30
-43.20
-27.90
-15.40
-7.01
-3.02
-2.05
-1.99
-0.63
3.24
9.97
18.81
27.97
35.23
38.42
36.45
29.65
19.87
9.39
0.17
-7.41
-13.96
-19.67
-24.04
-26.20
-25.61
-22.38
-17.55
-12.86
-11.59
-16.90
-29.93
-49.67
-73.92
-99.34
-121.31
-134.43
-133.85
-118.22
-88.07
-43.50
15.06
84.13
156.13
220.51
266.44
285.79
272.94
227.84
157.54
73.11
-15.02
-98.66
-170.81
-224.90
-241.31
-209.01
-142.23
-70.41
-15.02
18.00
33.17
38.71
41.64
45.43
47.70
44.88
37.09
28.17
22.01
20.40
23.00
28.29
34.13
37.00
34.47
27.65
20.27
15.62
15.01
17.99
23.07
28.42
31.41
30.36
26.07
21.15
17.95
17.48
19.60
23.52
28.29
32.44
34.61
34.12
30.87
24.79
16.07
5.62
-4.84
-13.42
-19.06
-21.90
-22.91
-23.20
-23.59
-24.21
-24.79
-24.68
-23.61
-21.76
-19.45
-16.91
-13.78
-9.49
-3.70
3.13
9.64
13.86
14.01
9.30
0.15
-11.62
-23.67
-33.92
-41.20
-45.34
-46.97
-46.93
-45.10
-42.18
-38.29
-33.47
-27.88
-21.96
-16.28
-11.57
-8.62
-8.13
-10.54
-15.19
-20.08
-22.14
-18.29
-7.05
10.28
29.76
46.33
55.88
57.19
52.30
44.38
36.52
30.30
25.68
21.72
17.77
13.78
10.42
8.27
7.34
7.22
7.56
8.27
9.55
11.50
13.36
13.69
11.09
5.25
-2.16
-7.84
-8.28
-1.67
10.70
24.39
33.61
33.80
23.66
5.62
-15.43
-34.38
-47.92
-54.49
-55.54
-53.96
-52.24
-51.52
-51.51
-51.02
-48.75
-43.92
-36.95
-28.21
-18.50
-8.89
-0.51
5.75
9.61
11.31
11.57
11.22
10.74
9.92
8.07
4.56
-0.62
-6.60
-12.10
-16.08
-18.42
-19.92
-21.67
-23.84
-24.92
-22.37
-14.12
-0.33
16.68
32.10
41.57
43.08
38.07
30.88
26.25
26.71
30.66
34.24
33.44
26.64
15.03
2.00
-8.00
-11.29
-6.39
4.61
18.12
30.21
38.18
40.36
36.46
27.89
17.20
7.23
-0.66
-4.64
-2.36
8.70
29.13
53.81
74.17
82.77
85.51
87.60
94.43
106.64
124.23
143.12
155.63
153.75
132.42
91.74
35.33
-29.14
-92.11
-144.60
-181.23
-200.70
-204.72
-196.86
-181.36
-163.61
-147.77
-135.21
-124.79
-114.46
-102.20
-86.37
-66.01
-40.91
-13.14
14.12
38.73
59.86
77.61
92.47
105.25
116.85
128.33
139.16
141.64
129.18
101.30
65.20
30.55
5.08
-11.11
-19.05
-20.88
-20.25
-17.81
-13.91
-7.89
1.74
14.82
29.02
40.79
45.97
40.96
25.24
0.08
-31.89
-68.89
-108.01
-145.93
-178.97
-196.67
-193.58
-171.53
-138.83
-104.12
-73.60
-50.70
-37.21
-32.86
-35.19
-40.71
-43.65
-40.02
-26.02
-1.84
28.49
58.85
83.93
100.90
104.99
97.73
83.73
67.92
53.14
40.43
29.92
22.00
17.21
15.11
15.13
15.82
15.66
13.56
9.50
4.52
0.53
-0.76
1.12
5.80
11.55
16.62
19.87
21.94
23.94
27.60
34.41
44.96
59.32
76.29
93.65
107.98
115.30
112.06
97.03
72.34
43.30
16.68
-2.47
-12.35
-14.54
-12.40
-9.09
-5.85
-2.03
3.78
12.29
21.73
29.27
32.78
31.92
28.06
23.62
21.17
22.59
28.45
36.29
43.14
47.13
48.15
47.15
45.38
44.16
44.83
48.65
53.75
58.18
60.77
60.92
57.20
47.03
27.88
-1.35
-39.71
-87.99
-145.17
-207.54
-269.41
-325.55
-372.75
-409.76
-436.59
-432.39
-387.20
-308.40
-217.10
-133.09
-65.94
-16.41
18.88
44.08
62.65
73.68
76.61
73.40
68.46
66.10
68.47
75.19
84.40
93.82
99.21
98.25
91.73
82.82
74.78
69.38
66.74
66.26
67.19
67.30
65.06
60.04
52.92
44.75
36.46
28.87
22.88
19.10
17.07
16.23
15.95
15.72
15.21
14.23
12.61
10.00
5.97
0.28
-6.39
-12.09
-14.29
-10.26
1.87
22.24
48.87
75.51
95.55
106.84
111.62
113.17
113.09
110.68
104.11
92.33
77.77
62.25
48.44
37.99
30.62
24.59
18.06
10.04
0.55
-10.09
-20.10
-28.59
-36.24
-45.10
-57.56
-75.20
-98.20
-125.33
-154.45
-183.10
-209.02
-230.59
-246.63
-255.81
-256.26
-245.96
-223.61
-189.64
-146.71
-99.57
-54.28
-16.70
9.07
22.09
24.82
22.40
20.74
24.36
34.83
50.63
68.27
84.08
95.71
102.45
104.80
103.60
99.61
93.53
86.35
79.33
73.63
69.70
67.16
64.98
62.11
57.86
52.09
45.03
37.16
29.22
22.13
16.92
14.34
14.56
16.95
20.21
22.93
24.04
23.25
21.00
18.13
15.42
13.27
11.64
10.25
8.87
7.50
6.30
5.56
5.46
5.98
6.91
7.95
8.78
9.15
8.99
8.41
7.72
7.25
7.26
7.69
8.29
8.58
8.18
7.05
5.59
4.52
4.63
6.43
9.89
14.47
19.31
23.51
26.41
27.76
27.68
26.50
24.56
22.04
18.95
15.23
10.79
5.68
-0.02
-6.18
-12.72
-19.56
-26.58
-33.69
-40.80
-47.86
-54.80
-61.46
-67.45
-72.16
-75.01
-75.70
-74.39
-71.72
-68.59
-65.76
-63.64
-62.26
-61.43
-60.89
-60.45
-59.86
-58.83
-57.02
-54.11
-49.85
-44.14
-37.07
-28.85
-19.88
-10.80
-2.40
4.49
9.33
12.01
13.01
13.16
13.39
14.36
16.29
18.99
22.07
25.13
27.82
29.87
31.06
31.27
30.61
29.48
28.52
28.34
29.17
30.68
32.04
32.33
31.05
28.37
25.07
22.06
19.92
18.61
17.54
16.01
13.55
10.19
6.32
2.47
-0.88
-3.48
-5.17
-5.91
-5.69
-4.55
-2.69
-0.35
2.17
4.62
6.81
8.54
9.66
10.09
9.85
9.22
8.65
8.61
9.42
11.05
13.15
15.16
16.57
17.07
16.61
15.48
14.06
12.73
11.70
10.95
10.31
9.51
8.42
7.07
5.65
4.33
3.16
1.93
0.31
-2.00
-5.04
-8.51
-11.93
-14.80
-16.82
-17.97
-18.46
-18.54
-18.34
-17.84
-16.90
-15.38
-13.19
-10.35
-6.93
-3.04
1.25
5.80
10.40
14.74
18.42
21.09
22.58
22.97
22.58
21.77
20.87
20.03
19.24
18.46
17.64
16.80
15.99
15.19
14.38
13.48
12.48
11.40
10.28
9.15
7.97
6.66
5.13
3.39
1.50
-0.44
-2.31
-4.06
-5.69
-7.25
-8.83
-10.49
-12.28
-14.17
-16.01
-17.59
-18.59
-18.73
-17.87
-16.02
-13.39
-10.28
-7.03
-3.91
-1.05
1.48
3.65
5.43
6.77
7.66
8.16
8.42
8.60
8.84
9.16
9.51
9.78
9.88
9.81
9.64
9.48
9.43
9.51
9.65
9.74
9.63
9.23
8.50
7.48
6.31
5.12
4.02
2.96
1.79
0.33
-1.57
-3.83
-6.22
-8.42
-10.14
-11.30
-12.03
-12.57
-13.15
-13.84
-14.46
-14.70
-14.25
-12.93
-10.80
-8.12
-5.27
-2.62
-0.40
1.25
2.31
2.86
3.03
2.97
2.87
2.88
3.07
3.41
3.74
3.87
3.63
2.93
1.81
0.41
-1.05
-2.38
-3.46
-4.30
-5.05
-5.88
-6.92
-8.14
-9.35
-10.27
-10.72
-10.70
-10.47
-10.34
-10.59
-11.24
-12.11
-12.91
-13.41
-13.49
-13.17
-12.52
-11.57
-10.31
-8.69
-6.68
-4.33
-1.74
0.96
3.59
5.92
7.71
8.81
9.24
9.21
9.05
9.02
9.16
9.27
9.04
8.26
6.97
5.50
4.25
3.51
3.28
3.28
3.14
2.56
1.46
-0.04
-1.69
-3.29
-4.74
-6.08
-7.39
-8.74
-10.19
-11.71
-13.32
-15.07
-17.01
-19.13
-21.21
-22.89
-23.68
-23.22
-21.41
-18.52
-15.02
-11.42
-8.03
-4.91
-1.90
1.13
4.17
7.02
9.42
11.20
12.35
13.03
13.44
13.72
13.93
13.98
13.78
13.27
12.47
11.53
10.59
9.79
9.18
8.65
8.07
7.28
6.26
5.07
3.90
2.88
2.05
1.28
0.39
-0.80
-2.35
-4.23
-6.30
-8.35
-10.18
-11.54
-12.27
-12.26
-11.52
-10.18
-8.34
-6.09
-3.42
-0.25
3.41
7.48
11.69
15.73
19.28
22.13
24.18
25.49
26.22
26.60
26.89
27.29
27.95
28.87
30.02
31.30
32.61
33.88
35.15
36.54
38.20
40.27
42.70
45.22
47.33
48.52
48.43
47.13
45.13
43.22
42.21
42.53
44.09
46.36
48.62
50.26
50.97
50.78
49.91
48.57
46.88
44.95
42.94
41.07
39.43
37.68
34.89
29.84
21.53
9.76
-4.63
-20.15
-35.25
-48.95
-61.04
-71.78
-81.35
-89.53
-95.73
-99.33
-100.13
-98.47
-95.08
-90.72
-85.92
-80.89
-75.66
-70.20
-64.54
-58.79
-53.10
-47.62
-42.44
-37.57
-32.93
-28.42
-23.93
-19.48
-15.18
-11.17
-7.45
-3.73
0.46
5.73
12.50
20.86
30.46
40.63
50.58
59.61
67.25
73.39
78.21
82.06
85.50
89.10
93.41
98.82
105.37
112.60
119.48
124.43
125.62
121.35
110.53
93.09
70.11
43.62
16.23
-9.58
-31.94
-49.95
-63.69
-73.77
-80.92
-85.60
-87.95
-88.02
-86.11
-82.78
-78.81
-74.83
-71.12
-67.72
-64.62
-62.13
-60.93
-61.88
-65.57
-71.99
-80.45
-89.86
-99.12
-107.51
-114.83
-121.19
-126.84
-131.85
-136.10
-139.30
-141.11
-141.19
-139.21
-134.82
-127.64
-117.33
-103.58
-86.26
-65.44
-41.61
-15.77
10.54
35.32
56.60
72.77
83.09
87.73
87.60
83.87
77.42
68.51
56.77
41.59
22.67
0.54
-23.40
-47.27
-69.34
-88.72
-105.40
-120.01
-133.11
-144.90
-155.18
-163.64
-170.08
-174.08
-174.68
-170.22
-159.08
-140.82
-117.02
-91.02
-66.38
-44.94
-25.56
-4.49
22.69
58.60
102.52
150.67
197.78
239.28
272.47
296.48
311.22
316.43
311.54
296.58
273.34
245.90
219.64
199.22
186.42
179.11
172.03
159.16
136.37
103.04
62.04
18.10
-24.15
-61.70
-93.47
-119.50
-139.94
-154.41
-162.08
-162.15
-154.25
-138.59
-115.82
-86.95
-53.60
-18.49
14.40
40.37
55.47
58.24
50.70
38.09
27.14
23.65
30.46
46.83
69.04
92.17
111.68
124.45
128.99
125.15
113.82
96.72
76.22
55.05
35.80
20.21
8.79
0.94
-4.65
-9.31
-13.86
-18.53
-23.05
-26.89
-29.41
-29.86
-27.46
-21.61
-12.27
-0.08
13.78
27.97
41.49
54.13
66.36
79.16
93.46
109.79
128.01
147.40
166.73
184.31
198.20
206.48
207.74
201.47
188.41
170.34
149.61
128.41
108.15
89.33
71.91
55.86
41.43
29.27
19.88
13.31
8.90
4.91
-0.96
-10.95
-26.77
-49.48
-78.99
-114.10
-151.73
-186.96
-214.51
-230.00
-231.09
-218.17
-194.47
-164.46
-133.09
-103.63
-77.13
-54.10
-35.22
-21.06
-11.75
-6.80
-4.35
-3.14
-1.99
-0.37
0.06
-3.84
-14.44
-32.11
-55.49
-81.34
-107.82
-133.68
-150.25
-150.07
-131.87
-101.71
-68.57
-45.77
-33.14
-29.25
-32.96
-43.95
-58.55
-73.93
-85.86
-89.84
-83.34
-66.17
-42.52
-17.73
2.83
14.70
15.15
4.78
-13.17
-34.06
-52.06
-62.73
-62.84
-52.70
-36.46
-21.24
-13.58
-17.70
-34.50
-61.22
-93.40
-117.59
-122.43
-105.05
-73.57
-39.59
-11.74
6.17
13.98
13.58
8.99
3.00
0.23
4.21
17.15
38.58
65.45
93.27
116.29
129.39
131.15
123.99
111.63
97.89
85.44
76.20
71.11
69.67
69.66
66.88
57.12
38.42
13.50
-13.12
-35.59
-49.73
-54.80
-52.73
-46.53
-38.45
-29.67
-19.62
-10.24
-4.74
-6.60
-17.12
-33.43
-48.85
-56.06
-51.68
-36.33
-14.99
5.81
20.56
26.73
25.30
19.87
14.35
11.00
10.01
9.99
9.79
9.10
8.39
8.72
10.53
14.03
18.99
24.95
31.19
37.08
41.65
43.77
39.91
29.13
14.92
3.07
-2.95
-4.16
-4.25
-6.71
-12.71
-20.62
-26.55
-28.03
-24.68
-18.35
-11.86
-7.47
-5.83
-6.06
-6.42
-4.91
-1.21
4.32
10.59
16.47
21.44
25.66
29.63
33.73
38.16
42.55
46.16
48.02
47.42
44.37
39.55
33.96
28.55
23.99
20.41
17.52
14.76
11.64
8.03
4.11
0.11
-3.86
-7.87
-12.19
-16.92
-21.97
-26.94
-31.25
-34.29
-35.69
-35.36
-33.51
-30.54
-26.81
-22.69
-18.51
-14.48
-10.75
-7.32
-4.11
-1.06
1.78
4.23
5.99
6.84
6.77
6.03
5.06
4.28
3.98
4.09
4.37
4.48
4.22
3.62
2.92
2.44
2.31
2.40
2.37
1.82
0.58
-1.21
-3.09
-4.60
-5.43
-5.73
-5.95
-6.70
-8.36
-10.95
-14.05
-16.98
-19.08
-19.96
-19.61
-18.31
-16.47
-14.47
-12.58
-10.91
-9.56
-8.53
-7.69
-6.81
-5.56
-3.79
-1.71
0.11
0.83
-0.22
-3.23
-7.60
-12.04
-14.82
-14.42
-9.99
-1.72
9.21
21.04
31.90
40.42
45.93
48.46
48.47
46.46
42.80
37.68
31.24
23.73
15.51
6.98
-1.51
-9.63
-17.15
-23.77
-29.14
-32.88
-34.70
-34.51
-32.49
-29.09
-25.02
-20.97
-17.47
-14.80
-12.94
-11.77
-11.07
-10.54
-9.82
-8.47
-6.16
-2.88
0.88
4.14
5.78
4.94
1.48
-3.94
-10.04
-15.32
-18.43
-18.52
-15.27
-8.98
-0.56
8.69
17.27
23.88
27.85
29.27
28.87
27.52
25.83
23.80
20.94
16.64
10.55
2.95
-5.44
-13.70
-21.01
-26.85
-30.94
-33.14
-33.43
-31.92
-28.98
-25.32
-21.85
-19.39
-18.25
-18.24
-18.58
-18.40
-17.02
-14.26
-10.44
-6.18
-2.10
1.36
4.05
6.06
7.59
8.80
9.82
10.70
11.50
12.32
13.21
14.14
15.03
15.71
16.04
15.94
15.45
14.74
13.99
13.40
13.05
12.86
12.63
12.12
11.15
9.71
7.99
6.32
4.98
4.05
3.40
2.67
1.59
0.09
-1.60
-3.10
-4.08
-4.48
-4.57
-4.80
-5.58
-7.07
-9.09
-11.23
-13.04
-14.18
-14.56
-14.28
-13.51
-12.35
-10.74
-8.57
-5.74
-2.36
1.29
4.75
7.68
9.90
11.53
12.86
14.11
15.30
16.19
16.47
15.97
14.81
13.43
12.30
11.72
11.62
11.63
11.31
10.42
9.06
7.62
6.54
6.03
5.96
5.92
5.50
4.49
3.00
1.40
0.12
-0.69
-1.19
-1.79
-2.86
-4.56
-6.64
-8.68
-10.31
-11.41
-12.21
-13.05
-14.17
-15.48
-16.57
-16.90
-16.11
-14.15
-11.31
-8.06
-4.77
-1.67
1.18
3.82
6.23
8.27
9.76
10.60
10.85
10.77
10.71
10.96
11.66
12.69
13.76
14.55
14.85
14.65
14.13
13.56
13.12
12.84
12.51
11.88
10.72
9.06
7.12
5.27
3.76
2.62
1.59
0.27
-1.62
-4.03
-6.66
-9.02
-10.80
-12.08
-13.33
-15.10
-17.75
-21.12
-24.59
-27.31
-28.54
-27.97
-25.77
-22.46
-18.55
-14.45
-10.39
-6.52
-3.09
-0.38
1.29
1.82
1.42
0.71
0.42
1.11
2.82
5.14
7.21
8.20
7.58
5.47
2.69
0.42
-0.41
0.52
2.70
4.99
6.08
4.83
0.99
-4.53
-10.10
-14.11
-15.64
-14.75
-12.48
-10.67
-11.65
-17.20
-27.61
-41.43
-55.72
-66.68
-70.71
-66.02
-53.67
-37.97
-24.52
-17.53
-17.91
-23.11
-28.11
-27.63
-18.26
1.84
29.11
54.91
69.97
69.26
53.36
27.51
0.06
-19.66
-23.93
-9.42
21.79
62.76
103.04
131.61
140.90
129.88
104.60
75.66
53.32
43.04
43.66
48.40
49.46
41.71
25.11
3.76
-16.79
-32.57
-42.96
-49.40
-53.90
-57.57
-59.81
-59.47
-56.46
-52.56
-50.73
-54.11
-63.67
-77.72
-92.38
-102.47
-103.78
-94.82
-77.22
-51.61
-21.79
8.50
36.28
56.03
64.49
63.45
57.68
51.37
46.45
42.25
37.55
31.64
24.91
19.12
16.01
15.95
17.92
20.26
21.18
20.08
17.38
14.12
11.81
11.44
12.75
14.61
15.85
15.55
13.80
11.32
9.01
7.92
8.71
11.34
14.94
18.08
18.80
15.38
6.91
-6.12
-21.38
-35.54
-45.56
-49.85
-48.80
-44.45
-39.48
-35.52
-33.18
-31.89
-30.48
-27.99
-24.15
-19.20
-13.71
-7.99
-1.79
5.67
15.29
27.48
41.30
54.52
64.42
68.74
66.88
60.25
51.55
43.55
38.15
35.37
33.83
31.89
28.41
23.22
17.16
11.38
6.63
3.57
2.03
1.58
2.18
4.02
7.21
11.55
15.99
18.44
17.31
11.01
-1.58
-18.36
-35.45
-50.13
-61.72
-71.30
-82.00
-91.85
-97.23
-94.62
-82.29
-61.37
-35.95
-10.20
15.78
39.85
61.66
81.58
99.35
112.78
118.13
111.24
93.05
64.62
29.29
-7.47
-40.94
-68.33
-89.41
-99.94
-99.42
-90.35
-77.22
-63.73
-51.11
-39.41
-28.28
-17.88
-8.83
-2.68
-0.33
-1.64
-5.19
-8.63
-10.07
-8.60
-4.69
0.20
3.72
4.21
0.86
-6.17
-16.26
-28.84
-41.80
-52.17
-56.28
-51.19
-35.80
-11.99
15.68
41.38
59.08
66.88
66.88
63.46
60.48
59.39
58.87
55.98
47.85
34.23
16.26
-3.69
-23.13
-40.35
-54.66
-65.70
-71.41
-70.39
-60.53
-40.96
-13.94
14.91
38.32
50.39
49.47
39.57
26.89
18.26
17.68
24.66
35.34
44.61
48.08
43.84
33.10
19.44
8.20
4.25
10.29
26.74
51.02
77.40
98.70
108.91
105.44
90.29
68.23
43.76
20.62
0.69
-16.44
-32.35
-48.48
-66.04
-83.83
-101.87
-121.98
-144.30
-166.31
-183.29
-189.69
-180.98
-155.72
-116.32
-62.55
-5.39
41.35
70.29
82.98
85.44
83.39
80.26
77.47
75.24
72.69
70.70
70.93
73.70
76.86
76.66
69.44
54.03
32.71
9.51
-10.10
-22.43
-27.80
-30.12
-34.09
-42.68
-56.41
-72.23
-87.14
-98.22
-103.09
-99.77
-86.31
-61.27
-25.32
17.93
62.02
98.76
121.35
126.45
114.98
89.64
58.21
28.08
3.98
-12.37
-21.61
-25.27
-25.25
-24.02
-21.99
-19.20
-15.33
-9.77
-2.36
6.06
13.55
17.09
13.98
3.39
-14.04
-36.23
-60.05
-81.64
-96.73
-101.43
-94.01
-75.83
-47.52
-15.19
13.15
30.96
35.73
29.48
19.76
14.60
16.99
24.27
30.78
32.39
28.24
20.38
12.06
6.13
3.66
4.20
6.58
9.08
11.59
14.33
17.38
20.46
22.81
23.21
20.50
14.63
6.61
-1.50
-7.68
-10.63
-10.03
-6.48
-0.65
6.13
12.86
18.93
24.26
28.82
32.49
35.09
36.39
36.08
33.85
29.75
24.22
18.12
12.47
8.23
6.11
6.34
8.59
12.07
15.85
19.14
21.43
22.46
22.19
20.80
18.65
16.19
13.76
11.51
9.33
6.94
4.11
0.88
-2.36
-5.06
-6.73
-7.26
-6.83
-5.77
-4.23
-2.02
1.39
6.56
13.71
22.42
31.60
39.73
45.26
47.06
44.72
38.58
29.60
18.92
7.63
-3.45
-13.75
-22.81
-30.13
-35.18
-37.53
-36.97
-33.75
-28.51
-22.21
-15.89
-10.49
-6.67
-4.80
-4.98
-7.11
-10.94
-16.15
-22.26
-28.70
-34.78
-39.78
-43.12
-44.52
-44.12
-42.43
-40.12
-37.77
-35.68
-33.79
-31.76
-29.16
-25.66
-21.13
-15.78
-10.08
-4.59
0.08
3.51
5.55
6.37
6.38
6.08
5.88
6.05
6.58
7.34
8.10
8.66
8.93
8.88
8.54
7.92
6.96
5.57
3.76
1.65
-0.56
-2.72
-4.76
-6.74
-8.82
-11.06
-13.36
-15.51
-17.23
-18.34
-18.81
-18.85
-18.82
-19.14
-20.12
-21.89
-24.31
-26.95
-29.28
-30.83
-31.41
-31.08
-30.10
-28.66
-26.67
-23.87
-19.99
-15.05
-9.42
-3.73
1.36
5.49
8.57
10.77
12.22
12.92
12.73
11.58
9.56
7.04
4.45
2.16
0.19
-1.75
-4.10
-7.19
-10.87
-14.44
-16.78
-16.71
-13.50
-7.18
1.35
10.66
19.19
25.71
29.66
31.01
30.13
27.40
23.12
17.49
10.76
3.41
-3.87
-10.36
-15.52
-19.20
-21.62
-23.15
-24.13
-24.62
-24.50
-23.64
-22.19
-20.54
-19.21
-18.50
-18.26
-17.92
-16.66
-13.80
-9.04
-2.59
4.95
12.90
20.60
27.59
33.59
38.38
41.79
43.67
43.99
42.88
40.70
37.94
35.12
32.65
30.67
29.18
28.02
27.09
26.38
25.96
25.92
26.30
27.02
27.91
28.74
29.23
29.18
28.43
26.93
24.75
22.07
19.09
15.90
12.59
9.21
5.85
2.71
0.02
-2.03
-3.38
-4.13
-4.46
-4.53
-4.41
-4.10
-3.61
-3.00
-2.43
-2.08
-2.02
-2.20
-2.46
-2.62
-2.55
-2.29
-2.01
-1.94
-2.18
-2.68
-3.23
-3.51
-3.33
-2.66
-1.70
-0.80
-0.24
-0.14
-0.40
-0.83
-1.25
-1.63
-2.01
-2.47
-2.94
-3.32
-3.47
-3.36
-3.18
-3.23
-3.81
-5.04
-6.75
-8.54
-9.88
-10.39
-10.00
-9.05
-8.16
-7.96
-8.78
-10.51
-12.64
-14.51
-15.64
-15.94
-15.70
-15.40
-15.37
-15.66
-15.99
-15.94
-15.21
-13.80
-12.03
-10.44
-9.38
-8.96
-8.90
-8.73
-8.15
-7.13
-6.06
-5.40
-5.46
-6.21
-7.29
-8.26
-8.88
-9.22
-9.56
-10.20
-11.20
-12.37
-13.33
-13.69
-13.25
-12.10
-10.48
-8.68
-6.86
-5.00
-2.95
-0.59
1.94
4.29
5.89
6.26
5.28
3.21
0.64
-1.79
-3.72
-5.16
-6.40
-7.73
-9.23
-10.57
-11.26
-10.86
-9.29
-6.88
-4.26
-2.01
-0.41
0.67
1.62
2.86
4.56
6.51
8.27
9.31
9.38
8.54
7.17
5.79
4.74
4.12
3.73
3.28
2.53
1.40
0.09
-1.14
-2.01
-2.42
-2.36
-1.92
-1.14
-0.04
1.36
2.94
4.38
5.28
5.24
4.12
2.14
-0.20
-2.29
-3.72
-4.41
-4.64
-4.81
-5.20
-5.83
-6.45
-6.72
-6.35
-5.37
-4.03
-2.75
-1.87
-1.48
-1.38
-1.20
-0.65
0.29
1.33
2.02
2.06
1.53
0.93
0.94
2.02
4.14
6.73
8.93
10.08
10.02
9.14
8.16
7.74
8.12
9.05
9.97
10.35
9.97
8.91
7.52
6.07
4.59
2.86
0.64
-2.17
-5.30
-8.26
-10.49
-11.70
-11.93
-11.57
-11.09
-10.77
-10.61
-10.29
-9.46
-7.95
-5.91
-3.78
-2.09
-1.16
-0.95
-1.10
-1.16
-0.88
-0.35
0.04
-0.12
-0.96
-2.19
-3.26
-3.59
-2.98
-1.76
-0.63
-0.35
-1.32
-3.39
-5.94
-8.14
-9.38
-9.46
-8.65
-7.50
-6.58
-6.22
-6.41
-6.93
-7.50
-7.99
-8.47
-9.12
-10.03
-11.08
-11.94
-12.22
-11.72
-10.53
-9.05
-7.71
-6.72
-5.94
-4.95
-3.26
-0.67
2.62
6.03
8.93
10.85
11.69
11.70
11.30
10.81
10.41
10.03
9.61
9.23
9.11
9.50
10.51
11.90
13.13
13.52
12.65
10.56
7.77
5.06
3.09
2.10
1.80
1.57
0.77
-0.92
-3.38
-6.13
-8.54
-10.19
-11.02
-11.27
-11.30
-11.31
-11.20
-10.69
-9.44
-7.35
-4.63
-1.72
0.93
3.06
4.61
5.72
6.53
7.13
7.57
7.86
8.09
8.36
8.77
9.36
10.03
10.59
10.87
10.78
10.43
10.12
10.22
10.97
12.30
13.68
14.36
13.72
11.64
8.73
6.09
4.74
5.14
6.72
8.21
8.06
5.28
-0.23
-7.63
-15.39
-21.63
-24.42
-22.09
-13.78
-0.03
16.98
33.81
46.90
53.95
54.77
51.18
45.85
40.87
36.82
32.84
27.61
20.35
11.40
1.94
-6.83
-14.33
-20.72
-26.51
-31.89
-36.44
-39.24
-39.40
-36.58
-31.25
-24.64
-18.21
-13.17
-10.09
-8.84
-8.73
-8.87
-8.42
-6.82
-4.00
-0.31
3.59
6.93
9.23
10.52
11.35
12.56
14.87
18.62
23.55
28.96
33.85
37.26
38.47
37.19
33.73
29.05
24.59
21.90
22.12
25.55
31.62
38.99
46.08
51.52
54.43
54.47
51.76
46.78
40.43
34.03
29.05
26.73
27.58
31.07
35.78
39.88
41.83
41.02
37.87
33.50
29.10
25.35
22.26
19.06
14.51
7.08
-4.40
-20.33
-40.25
-62.90
-86.23
-107.58
-124.40
-134.93
-138.99
-137.59
-132.47
-125.82
-119.66
-115.24
-112.70
-111.42
-110.62
-109.87
-108.35
-104.61
-97.04
-84.62
-67.19
-45.65
-22.31
-0.76
14.52
20.67
17.88
9.29
-0.18
-5.32
-2.11
10.59
33.13
59.17
78.69
85.82
82.46
74.48
66.97
62.58
61.27
61.37
60.17
55.61
46.53
32.30
13.74
-8.64
-32.46
-54.18
-70.09
-78.19
-77.92
-70.07
-56.66
-40.43
-24.19
-9.89
1.00
7.97
9.98
7.36
1.97
-3.32
-5.40
-2.00
7.78
20.38
30.90
34.57
30.11
20.31
9.84
2.32
-1.61
-3.39
-3.79
-4.30
-4.55
-2.38
5.04
19.65
41.65
68.91
99.29
126.24
145.08
152.20
145.65
125.91
95.96
60.82
25.34
-5.39
-28.72
-45.58
-60.85
-80.29
-106.55
-137.31
-166.35
-188.29
-198.47
-195.37
-179.94
-154.26
-119.02
-72.50
-12.61
60.64
134.43
190.07
214.14
208.80
187.07
161.79
139.43
119.49
105.08
88.08
65.50
39.73
15.75
-2.57
-13.68
-17.58
-18.76
-19.78
-23.98
-31.05
-38.24
-42.12
-41.02
-34.94
-24.74
-12.05
1.34
12.14
19.00
21.83
21.03
16.44
8.51
-0.95
-9.74
-15.80
-18.88
-18.51
-13.87
-4.15
10.69
25.70
36.51
41.15
40.89
37.15
30.75
21.74
13.16
2.89
-10.22
-25.14
-39.68
-51.28
-58.41
-61.41
-60.89
-58.45
-56.56
-56.50
-57.97
-59.99
-61.46
-62.07
-62.19
-62.13
-61.86
-61.21
-59.37
-55.57
-50.07
-43.47
-37.05
-32.37
-30.50
-31.62
-35.17
-39.54
-42.83
-43.52
-39.65
-30.71
-18.17
-4.60
7.67
17.33
24.35
29.26
32.73
37.46
45.45
56.79
69.85
82.54
93.25
101.25
106.70
110.50
116.79
128.73
146.52
167.89
190.19
211.86
232.24
250.74
248.94
216.96
159.75
93.61
33.80
-12.07
-42.66
-60.19
-68.54
-71.98
-71.55
-67.26
-61.31
-56.68
-55.38
-57.44
-61.52
-65.86
-69.02
-67.96
-60.92
-48.59
-33.21
-17.51
-3.28
8.78
18.79
27.24
35.94
46.06
57.19
67.92
76.76
82.86
85.94
86.04
83.67
80.51
78.53
79.03
82.18
86.91
91.48
94.12
93.82
90.54
85.19
78.63
71.09
62.31
52.16
41.01
29.45
17.65
4.75
-10.97
-31.36
-57.36
-88.45
-122.79
-157.96
-191.72
-222.33
-248.47
-269.02
-282.96
-289.65
-289.07
-281.86
-269.10
-252.15
-232.50
-211.58
-190.52
-169.85
-149.47
-128.90
-107.68
-85.91
-64.21
-43.46
-24.40
-7.24
8.24
22.42
35.52
47.49
58.19
67.61
75.95
83.36
89.70
94.45
97.01
97.02
94.68
90.58
85.53
80.23
75.08
70.22
65.49
60.59
55.20
49.05
42.06
34.39
26.39
18.61
11.71
6.30
2.83
1.48
2.03
3.92
6.41
8.79
10.59
11.55
11.48
10.01
6.58
0.51
-8.63
-20.73
-35.05
-50.46
-65.76
-79.89
-92.08
-101.70
-108.29
-111.68
-112.15
-110.46
-107.66
-104.68
-101.96
-99.50
-96.99
-94.15
-90.75
-86.59
-81.44
-75.07
-67.55
-59.44
-51.67
-45.14
-40.22
-36.48
-32.89
-28.41
-22.52
-15.38
-7.64
0.17
7.95
16.04
24.86
34.50
44.46
53.75
61.27
66.26
68.57
68.66
67.36
65.55
63.90
62.69
61.79
60.78
59.18
56.73
53.70
50.95
49.61
50.55
53.83
58.61
63.54
67.37
69.57
70.39
70.57
70.72
70.92
70.72
69.54
67.25
64.44
62.29
62.21
65.32
72.19
82.67
96.08
111.36
127.35
143.15
158.28
172.70
186.62
200.18
213.25
225.32
235.62
243.33
247.77
248.26
243.92
233.61
215.85
189.25
152.96
107.20
53.36
-5.77
-66.34
-123.80
-173.58
-211.64
-234.96
-241.94
-233.10
-211.76
-184.11
-158.18
-141.74
-140.01
-154.24
-181.74
-217.26
-254.69
-288.22
-312.55
-323.00
-315.95
-290.19
-248.22
-196.54
-144.28
-100.30
-70.36
-55.58
-52.99
-57.33
-63.15
-66.59
-66.00
-61.85
-55.79
-49.63
-44.47
-40.44
-36.90
-33.07
-28.43
-22.70
-15.33
-5.37
8.30
26.04
46.77
67.82
85.68
97.31
101.24
98.17
90.64
82.22
76.28
74.94
78.33
84.80
91.62
96.27
97.41
95.14
90.58
85.01
79.24
73.58
68.19
63.56
60.34
58.81
58.47
57.95
55.62
50.46
42.67
33.41
24.10
15.65
8.16
1.23
-5.49
-11.87
-17.29
-21.09
-23.00
-23.37
-23.00
-22.67
-22.65
-22.31
-20.16
-14.28
-3.06
14.09
36.29
61.42
86.76
110.10
130.63
149.14
167.55
187.81
210.88
236.01
260.66
280.99
292.83
292.90
279.81
254.28
218.94
177.17
131.92
84.89
36.55
-13.59
-66.33
-122.06
-180.01
-237.55
-289.74
-329.67
-350.18
-346.36
-317.70
-268.70
-207.19
-141.18
-75.96
-13.09
48.10
107.69
162.99
208.55
238.25
248.37
239.55
216.39
185.34
151.78
118.18
83.94
47.09
6.67
-36.01
-77.73
-115.13
-146.96
-175.17
-204.01
-237.46
-276.09
-315.53
-347.05
-360.67
-349.63
-313.91
-261.23
-204.88
-159.28
-135.26
-136.90
-161.29
-200.93
-247.21
-293.25
-335.00
-370.27
-397.02
-412.43
-413.27
-397.59
-366.27
-323.44
-275.12
-226.95
-182.03
-140.19
-98.85
-54.99
-6.68
46.11
102.03
159.38
216.80
273.11
327.03
376.63
419.52
453.34
476.64
489.38
493.07
490.41
484.71
479.36
477.01
478.74
483.35
487.10
484.47
470.00
440.56
397.18
345.08
291.72
243.73
204.07
170.91
139.11
103.15
59.99
10.34
-41.94
-91.71
-134.44
-167.59
-191.13
-207.55
-221.13
-236.39
-255.95
-278.46
-298.01
-305.53
-292.50
-255.25
-197.79
-131.54
-71.96
-33.47
-24.56
-45.11
-86.68
-135.84
-178.91
-206.37
-215.47
-209.61
-195.25
-177.97
-159.86
-139.52
-114.47
-84.14
-51.51
-22.25
-2.20
5.39
1.31
-10.46
-24.82
-37.74
-47.39
-53.93
-58.52
-61.96
-63.75
-61.94
-54.01
-38.18
-14.72
13.55
41.85
65.24
80.62
88.16
91.18
94.56
102.31
115.68
132.73
149.27
160.72
163.73
156.95
140.65
116.10
85.07
49.88
13.58
-20.17
-47.65
-66.04
-74.35
-73.75
-67.04
-57.59
-48.32
-41.05
-36.51
-34.69
-35.17
-37.31
-40.34
-43.50
-46.27
-48.65
-51.12
-54.33
-58.57
-63.37
-67.51
-69.48
-68.28
-63.97
-57.81
-51.61
-46.75
-43.52
-40.98
-37.57
-31.94
-23.75
-13.90
-4.05
4.15
9.86
13.36
15.80
18.52
22.41
27.72
34.21
41.55
49.54
58.15
67.30
76.67
85.71
93.88
100.91
106.93
112.25
117.14
121.59
125.42
128.15
129.00
126.89
120.70
109.75
94.40
76.26
57.64
40.40
24.96
10.07
-6.27
-25.30
-46.27
-66.35
-81.83
-89.85
-89.72
-82.93
-72.26
-60.34
-48.72
-37.70
-27.01
-16.50
-6.62
1.60
7.25
10.04
10.32
8.63
5.00
-1.14
-10.55
-23.28
-38.09
-52.50
-63.78
-70.44
-73.22
-74.87
-78.70
-86.68
-98.32
-111.08
-121.28
-125.67
-122.43
-111.58
-94.66
-74.03
-52.25
-31.67
-14.94
-3.74
1.72
2.62
0.75
-2.31
-5.41
-7.62
-7.81
-6.51
-4.27
-1.59
1.05
2.69
1.91
-2.08
-8.69
-16.05
-24.63
-35.02
-47.00
-59.00
-68.82
-75.08
-77.90
-78.93
-81.03
-90.85
-112.87
-146.78
-187.44
-227.90
-263.65
-293.76
-319.35
-318.59
-277.36
-195.61
-89.36
19.86
115.61
188.33
234.52
256.07
259.47
250.47
236.23
224.05
220.89
231.51
255.45
287.40
319.39
343.57
351.67
339.71
309.27
263.35
210.69
160.23
118.42
88.34
69.85
58.73
49.79
38.45
21.57
-1.92
-31.97
-66.21
-99.35
-124.04
-134.05
-126.08
-101.20
-64.51
-23.06
15.72
46.43
67.05
78.60
83.38
83.68
80.56
73.48
60.84
40.68
12.24
-22.92
-60.93
-96.81
-126.10
-146.16
-156.42
-157.44
-150.18
-135.28
-113.22
-85.09
-53.26
-21.39
6.50
27.18
39.27
43.26
40.92
34.41
25.40
14.69
2.24
-12.29
-28.97
-46.94
-64.17
-77.82
-84.97
-83.63
-73.60
-56.70
-36.17
-15.68
1.85
14.86
23.16
27.38
28.27
26.38
22.06
15.86
8.75
2.13
-2.51
-4.08
-2.23
2.68
9.91
18.64
28.31
38.46
48.55
57.76
65.10
69.80
71.67
71.29
69.70
67.97
66.63
65.59
64.26
61.94
58.05
52.36
44.85
35.72
25.33
14.27
3.48
-5.86
-12.61
-16.20
-17.14
-17.07
-18.36
-23.28
-33.03
-47.24
-64.01
-80.67
-94.78
-105.05
-111.61
-115.61
-118.61
-121.83
-125.85
-130.70
-136.01
-141.34
-146.32
-150.69
-154.44
-157.91
-161.94
-167.64
-176.03
-187.35
-200.57
-213.32
-222.37
-224.57
-217.70
-201.18
-176.09
-144.95
-111.11
-78.15
-49.21
-26.41
-10.36
0.12
7.68
15.87
27.97
46.09
70.85
101.62
137.09
175.66
215.60
254.80
290.78
320.96
343.25
356.79
362.06
360.48
353.31
340.87
322.26
296.21
262.00
220.49
174.56
128.51
86.75
52.25
25.62
5.15
-11.82
-28.03
-45.10
-62.96
-80.06
-94.46
-104.96
-111.73
-116.02
-118.70
-120.51
-121.88
-122.70
-122.11
-119.03
-112.54
-102.30
-88.76
-72.00
-53.20
-34.53
-18.00
-3.95
9.03
23.68
42.56
66.87
97.11
130.73
162.47
186.26
197.72
195.27
180.42
156.58
118.82
69.15
16.01
-30.83
-66.80
-93.12
-113.37
-129.18
-139.44
-140.93
-128.87
-101.62
-62.97
-21.80
13.62
36.50
44.74
41.07
31.76
24.90
25.59
34.09
46.87
59.63
65.24
61.01
48.14
30.37
12.14
-4.23
-18.73
-32.17
-44.55
-55.02
-61.65
-63.24
-60.04
-53.39
-45.46
-38.53
-34.22
-33.02
-34.54
-37.22
-39.37
-39.75
-37.82
-34.04
-29.51
-25.56
-23.20
-22.82
-23.95
-26.19
-29.62
-34.80
-41.74
-48.96
-53.60
-51.52
-39.94
-18.96
7.69
33.83
53.46
62.65
61.88
54.96
46.54
39.84
35.89
33.90
32.87
33.02
36.35
44.60
57.90
73.62
86.36
89.89
79.95
56.59
23.64
-11.12
-41.15
-62.81
-74.69
-76.90
-68.59
-49.74
-22.82
6.22
28.89
37.23
26.99
0.80
-33.32
-65.25
-86.45
-92.06
-81.89
-60.56
-34.06
-10.03
4.71
6.39
-3.57
-18.95
-31.15
-32.93
-21.22
1.98
30.82
58.44
78.88
88.56
86.24
72.63
49.77
21.06
-9.08
-36.15
-55.59
-64.95
-64.61
-57.01
-45.75
-35.17
-29.28
-30.33
-37.48
-46.19
-49.75
-41.90
-20.19
12.33
48.47
79.16
97.58
101.62
93.72
78.57
60.87
42.65
27.00
15.71
10.20
11.22
17.79
26.38
31.60
29.02
17.69
1.12
-14.45
-22.88
-21.10
-9.81
6.56
21.39
28.27
23.54
8.55
-11.22
-28.79
-39.22
-42.45
-43.38
-48.59
-60.93
-78.43
-92.70
-94.13
-77.87
-46.66
-9.49
23.00
43.37
49.22
41.31
21.58
-8.18
-45.16
-83.63
-114.71
-129.61
-123.40
-97.65
-60.10
-20.76
12.03
34.80
47.59
52.72
52.73
49.41
44.10
38.30
34.09
33.40
37.03
43.89
51.41
56.52
57.25
53.57
47.57
42.49
41.43
46.16
56.44
69.62
81.08
85.79
80.41
64.70
41.90
17.53
-2.74
-15.10
-19.33
-18.63
-17.50
-19.10
-23.83
-29.57
-32.97
-30.97
-21.45
-4.47
17.82
41.52
61.91
74.44
75.73
64.53
39.73
6.29
-26.60
-50.91
-64.05
-68.21
-67.06
-63.22
-57.61
-50.32
-41.27
-31.70
-23.88
-19.66
-19.22
-21.02
-22.74
-22.48
-19.53
-14.21
-8.09
-3.28
-1.30
-2.18
-4.55
-6.55
-6.76
-4.80
-1.19
2.64
5.05
5.07
2.99
0.18
-1.79
-2.06
-0.73
1.11
1.89
0.24
-4.35
-11.61
-20.10
-28.25
-34.54
-37.78
-37.18
-32.87
-25.96
-18.31
-11.99
-8.32
-7.37
-7.72
-7.23
-4.14
1.66
8.70
14.61
17.25
15.67
10.45
3.65
-2.15
-4.77
-3.57
0.47
5.19
8.24
8.07
4.69
-0.34
-4.82
-7.15
-8.00
-9.65
-14.68
-24.58
-38.97
-55.76
-72.47
-87.82
-99.60
-107.04
-109.45
-104.71
-89.55
-60.69
-16.39
42.16
109.74
177.45
234.14
270.17
280.86
266.06
228.89
174.99
112.02
48.42
-7.86
-51.38
-78.85
-88.78
-83.98
-71.99
-61.73
-59.08
-64.91
-75.56
-86.16
-90.51
-81.37
-54.83
-12.78
38.49
91.13
137.18
169.57
181.98
161.66
110.21
47.67
-3.32
-33.48
-46.23
-49.96
-52.52
-62.47
-80.84
-103.09
-123.69
-139.33
-148.21
-148.66
-140.09
-111.09
-66.35
-19.92
16.03
37.37
46.43
47.97
46.46
44.37
42.23
37.63
30.64
24.31
21.66
23.01
26.33
29.48
31.16
31.21
28.65
24.18
20.00
17.97
18.37
20.22
22.37
24.18
25.52
25.75
25.31
25.20
25.80
25.89
23.06
14.97
0.94
-17.70
-38.07
-55.97
-67.63
-71.29
-67.99
-60.97
-54.41
-50.55
-49.96
-51.51
-52.88
-51.77
-46.87
-38.12
-26.08
-12.19
3.15
19.84
37.61
54.95
68.72
75.01
71.35
58.84
42.61
29.81
25.61
30.17
38.38
42.99
39.35
28.32
15.62
7.84
7.99
13.37
17.66
15.20
4.57
-10.91
-25.66
-35.16
-37.97
-35.34
-29.44
-22.02
-13.75
-5.15
3.07
9.76
13.77
14.40
11.54
5.53
-2.97
-12.87
-22.65
-30.64
-35.60
-37.14
-35.83
-32.82
-29.15
-25.40
-21.82
-18.72
-16.39
-15.14
-15.11
-16.03
-17.60
-20.09
-24.52
-31.63
-40.26
-47.27
-48.25
-39.75
-21.51
2.97
28.09
48.72
62.10
68.51
70.22
69.54
67.50
63.86
57.43
48.96
39.68
31.21
24.78
20.67
18.29
16.76
15.53
14.45
14.16
15.42
18.38
21.95
23.89
21.49
12.95
-1.44
-19.07
-36.00
-48.88
-55.95
-57.38
-54.74
-49.88
-44.11
-37.67
-30.31
-21.88
-12.80
-4.01
3.51
9.17
12.96
15.28
17.03
18.69
19.93
19.61
16.73
11.29
4.99
0.78
1.36
8.29
20.45
34.32
45.48
50.20
46.55
34.50
15.28
-9.45
-36.83
-63.47
-85.40
-98.55
-99.94
-88.85
-67.67
-40.06
-14.83
1.57
6.66
2.32
-6.38
-14.38
-18.29
-17.69
-14.60
-12.28
-12.11
-13.92
-16.26
-17.41
-16.85
-15.48
-15.26
-17.54
-22.29
-26.93
-28.64
-25.72
-17.96
-7.22
3.56
11.48
16.03
19.00
24.44
35.11
50.69
68.35
83.68
93.00
95.20
93.37
87.40
80.45
75.51
73.13
72.45
72.54
77.04
86.07
99.16
114.04
127.38
135.25
130.34
111.10
80.48
43.26
3.57
-35.99
-74.92
-112.97
-149.07
-180.33
-201.90
-210.13
-205.25
-190.95
-172.10
-152.92
-135.54
-120.29
-106.09
-90.62
-67.90
-37.65
-4.77
24.88
48.35
65.20
75.44
78.76
75.73
68.09
58.14
50.14
45.55
44.72
46.34
47.93
46.99
42.63
35.76
28.17
22.56
21.62
27.21
39.95
58.72
78.21
89.65
84.60
59.38
18.29
-27.80
-65.34
-84.14
-81.33
-61.98
-36.00
-13.54
-1.19
-0.11
-6.86
-15.55
-21.37
-21.84
-16.71
-7.18
5.01
18.09
30.70
41.84
50.89
57.21
60.10
58.89
53.31
44.16
33.37
23.38
16.00
11.35
8.21
4.02
-3.92
-16.95
-33.80
-50.88
-63.79
-69.48
-67.69
-60.86
-52.84
-46.96
-44.65
-45.13
-46.36
-46.43
-44.47
-40.90
-36.92
-33.75
-31.93
-31.11
-30.21
-28.10
-24.23
-18.96
-13.37
-8.67
-5.56
-3.95
-3.08
-2.14
-0.76
0.86
2.17
2.75
2.55
1.87
1.04
0.11
-1.17
-3.13
-5.85
-8.95
-11.76
-13.59
-14.03
-13.12
-11.16
-8.59
-5.77
-2.89
-0.03
2.78
5.49
8.03
10.28
12.16
13.64
14.76
15.64
16.41
17.19
18.01
18.81
19.51
20.01
20.28
20.27
20.00
19.46
18.64
17.59
16.36
15.01
13.55
11.97
10.23
8.32
6.15
3.58
0.48
-3.26
-7.50
-11.91
-15.95
-19.18
-21.42
-22.85
-23.91
-25.10
-26.73
-28.76
-30.74
-32.05
-31.99
-29.95
-25.41
-18.20
-8.80
1.49
10.87
17.70
21.28
22.45
23.32
26.45
33.45
43.94
55.54
64.92
69.28
67.53
60.72
51.46
43.05
38.14
37.63
40.63
45.16
48.89
49.82
46.59
38.77
27.31
13.88
-0.10
-13.89
-27.06
-39.29
-50.30
-59.74
-67.14
-71.03
-70.04
-63.97
-53.94
-41.80
-30.05
-22.11
-21.99
-32.47
-51.91
-73.99
-89.72
-90.42
-70.91
-31.85
20.04
73.28
110.63
120.23
105.12
79.50
56.85
42.93
36.33
32.24
26.21
16.37
5.64
-3.01
-7.96
-9.44
-8.91
-8.03
-8.29
-10.57
-14.89
-19.78
-23.78
-27.41
-32.13
-39.53
-50.29
-63.77
-77.87
-89.37
-94.77
-92.12
-82.13
-67.14
-50.40
-34.89
-22.76
-14.81
-10.62
-8.97
-8.80
-9.47
-9.38
-6.84
-0.79
8.62
20.59
34.32
48.89
62.78
73.66
80.41
82.79
81.70
79.30
79.26
85.88
101.83
126.64
147.30
151.41
135.00
105.37
73.49
46.79
27.47
14.05
3.69
-5.89
-13.99
-18.65
-18.54
-14.31
-8.06
-2.13
1.60
2.26
0.17
-2.11
-1.80
2.40
9.21
15.57
18.19
14.76
4.84
-10.08
-26.57
-41.06
-51.13
-55.89
-55.58
-51.08
-43.89
-35.39
-26.72
-18.30
-10.61
-3.65
2.84
9.39
16.71
24.82
33.40
41.36
46.92
47.38
41.21
28.62
11.67
-6.47
-23.60
-38.57
-51.61
-63.83
-77.20
-91.93
-106.97
-120.74
-128.00
-126.97
-118.24
-104.45
-83.77
-59.39
-36.41
-19.40
-9.18
-3.63
-0.86
-0.14
-2.02
-6.88
-16.42
-27.57
-35.94
-36.98
-27.79
-8.36
19.49
53.03
89.23
124.21
153.30
170.19
170.40
153.43
123.11
86.56
51.14
21.24
-2.63
-20.39
-34.89
-49.52
-66.04
-84.00
-101.37
-115.27
-122.06
-122.49
-113.69
-95.49
-70.82
-44.61
-21.95
-5.86
3.63
8.74
12.63
18.01
25.12
32.74
39.34
43.97
46.60
47.75
47.78
46.55
43.80
38.89
31.85
23.95
17.14
13.15
12.49
14.11
15.95
16.24
13.95
9.36
3.95
-0.60
-3.36
-4.61
-5.65
-8.00
-12.57
-18.57
-24.56
-29.25
-32.18
-33.24
-32.25
-28.97
-23.49
-16.54
-9.39
-3.32
1.22
4.83
8.93
14.79
22.61
31.20
38.42
42.31
41.91
38.46
33.59
29.37
27.50
28.63
32.10
36.12
38.60
37.89
33.59
26.60
18.45
10.86
5.12
1.45
-1.02
-3.71
-7.80
-13.88
-22.04
-31.65
-41.88
-51.66
-59.93
-66.09
-70.09
-72.40
-73.96
-72.24
-67.40
-61.55
-56.84
-53.43
-49.83
-44.21
-35.45
-23.57
-9.78
3.55
14.44
21.99
26.88
30.37
33.39
35.90
36.74
34.23
26.69
14.59
-0.68
-16.00
-28.16
-35.20
-37.06
-35.27
-32.12
-29.98
-30.13
-32.52
-35.52
-37.60
-38.30
-38.28
-38.69
-40.63
-44.90
-51.86
-61.50
-72.80
-84.47
-95.31
-103.64
-106.80
-101.64
-86.06
-60.47
-28.12
7.72
43.14
74.70
100.96
123.18
144.21
166.19
189.13
210.97
231.65
250.99
268.26
282.32
292.04
296.34
294.02
284.17
251.83
194.17
121.37
50.19
-7.52
-49.24
-78.17
-98.48
-112.72
-121.40
-121.95
-113.87
-100.29
-86.63
-77.55
-74.44
-75.35
-77.50
-78.63
-76.22
-70.17
-62.40
-55.20
-49.63
-44.64
-38.70
-31.69
-25.34
-21.12
-20.12
-22.12
-25.11
-26.48
-22.34
-10.23
9.22
32.25
53.96
69.69
76.31
72.67
58.52
35.83
7.36
-23.45
-52.71
-76.03
-89.47
-91.15
-78.18
-54.95
-30.27
-13.08
-7.49
-13.40
-29.32
-53.31
-82.81
-113.42
-142.55
-163.80
-172.15
-166.20
-149.15
-128.19
-111.06
-103.66
-104.18
-110.65
-116.24
-113.44
-97.11
-66.80
-27.33
14.50
51.77
80.22
97.84
109.07
115.12
116.80
115.82
113.94
114.21
118.86
128.55
140.84
151.56
155.46
150.18
139.58
124.02
109.95
103.08
105.56
114.83
126.00
134.15
128.93
109.39
82.22
57.12
38.79
26.68
18.31
12.05
6.79
1.10
-5.94
-16.69
-32.47
-52.70
-73.72
-90.18
-97.74
-95.47
-86.99
-75.37
-64.23
-55.60
-49.70
-44.88
-38.84
-30.28
-19.61
-8.49
2.22
11.79
20.33
28.29
36.07
43.52
49.65
53.04
51.84
46.30
37.65
27.99
19.63
14.71
14.66
19.70
28.56
38.61
46.79
49.96
46.15
35.49
20.49
5.43
-5.09
-7.74
-1.64
11.46
27.69
42.58
52.55
55.81
52.42
43.54
30.36
13.50
-7.04
-31.31
-58.49
-86.46
-112.24
-133.05
-147.40
-155.79
-160.23
-163.08
-165.77
-168.19
-169.11
-167.24
-162.38
-155.80
-149.70
-146.00
-145.11
-145.42
-143.77
-136.68
-121.74
-98.56
-68.82
-35.56
-2.00
29.47
57.66
82.44
104.11
122.87
138.56
150.93
159.90
165.62
168.27
167.69
163.49
155.48
144.12
130.61
116.20
101.39
85.36
66.52
43.62
17.06
-10.53
-34.95
-51.99
-58.94
-55.39
-42.94
-24.30
-2.40
20.12
40.95
58.11
69.98
75.69
75.16
69.18
59.22
47.17
34.99
24.38
16.44
11.52
9.27
9.17
10.84
14.10
18.44
22.37
23.48
19.42
9.48
-4.49
-18.65
-29.47
-36.16
-41.60
-50.62
-66.75
-89.28
-112.89
-130.07
-134.81
-125.15
-103.18
-72.80
-37.07
2.84
46.56
92.62
137.29
175.24
201.72
214.72
215.67
208.32
196.53
182.24
164.67
141.05
108.37
65.33
13.47
-42.98
-98.36
-147.37
-186.33
-213.58
-228.88
-232.77
-226.29
-211.29
-190.72
-168.04
-145.78
-123.79
-98.82
-66.04
-22.19
31.35
87.56
135.81
165.94
172.47
156.67
125.71
89.52
57.06
33.80
20.97
16.47
16.48
17.22
16.03
11.87
5.19
-2.73
-10.57
-17.46
-23.04
