1.593547182000000000e+09
-2.999999999999999889e-02
5.059999999999999609e+00
1.791000000000000014e+01
7.934000000000000341e+01
2.282500000000000000e+02
-4.865000000000000000e+02
-5.910000000000000142e+00
1.561699999999999875e+02
4.652000000000000313e+01
-4.199999999999999845e-01
-8.050000000000000711e+00
-2.335000000000000142e+01
4.161999999999999744e+01
-2.728999999999999915e+01
-1.110000000000000098e+00
2.257000000000000028e+01
1.719999999999999929e+01
-2.479999999999999982e+00
-1.751999999999999957e+01
2.025000000000000000e+01
2.816000000000000014e+01
-7.740000000000000213e+00
-2.948000000000000043e+01
1.565000000000000036e+01
-1.892999999999999972e+01
-2.562000000000000099e+01
1.558999999999999986e+01
-1.315000000000000036e+01
-2.903999999999999915e+01
4.271000000000000085e+01
-1.438000000000000078e+01
-7.129999999999999716e+01
1.490000000000000036e+01
7.280000000000000249e+00
-4.029999999999999716e+01
1.858999999999999986e+01
9.070000000000000284e+00
-2.164000000000000057e+01
3.535999999999999943e+01
1.269999999999999929e+01
-2.255999999999999872e+01
4.919999999999999929e+00
7.120000000000000107e+00
-2.442999999999999972e+01
2.582999999999999829e+01
1.594999999999999929e+01
-1.276999999999999957e+01
1.361999999999999922e+01
6.099999999999999645e+00
-3.073000000000000043e+01
8.449999999999999289e+00
1.498000000000000043e+01
-4.910000000000000142e+00
9.369999999999999218e+00
8.550000000000000711e+00
-2.055000000000000071e+01
-2.633999999999999986e+01
2.308999999999999986e+01
5.940000000000000391e+00
-1.473000000000000043e+01
1.580000000000000071e+00
-6.000000000000000000e+00
-1.224000000000000021e+01
-6.419999999999999929e+00
8.265999999999999659e+01
-1.782999999999999829e+01
-2.325800000000000125e+02
5.603000000000000114e+01
2.760400000000000205e+02
1.425099999999999909e+02
-1.563899999999999864e+02
8.889000000000000057e+01
1.167399999999999949e+02
-3.122099999999999795e+02
-4.897500000000000000e+02
-1.547100000000000080e+02
3.680099999999999909e+02
1.051800000000000068e+02
1.431000000000000050e+01
-3.225000000000000000e+01
4.228000000000000114e+01
-8.012000000000000455e+01
-1.061200000000000045e+02
1.296299999999999955e+02
1.702299999999999898e+02
-6.884000000000000341e+01
-7.182999999999999829e+01
-5.982999999999999829e+01
1.917999999999999972e+01
-6.322999999999999687e+01
1.912100000000000080e+02
-2.519000000000000128e+01
-9.056999999999999318e+01
6.643000000000000682e+01
-1.422000000000000064e+01
-1.536999999999999922e+01
1.108000000000000007e+01
-3.671999999999999886e+01
1.083400000000000034e+02
-3.645000000000000284e+01
4.592000000000000171e+01
-2.491000000000000014e+01
-4.157999999999999829e+01
-2.642000000000000171e+01
3.554999999999999716e+01
-3.747999999999999687e+01
2.269000000000000128e+01
3.654999999999999716e+01
7.731999999999999318e+01
-1.115999999999999943e+02
2.560000000000000053e+00
2.107000000000000028e+01
-8.570000000000000284e+00
6.175000000000000000e+01
-7.662999999999999545e+01
5.200000000000000000e+01
1.163000000000000078e+01
-1.070000000000000062e+00
-3.939999999999999858e+01
-1.030699999999999932e+02
1.769399999999999977e+02
-3.802000000000000313e+01
2.171999999999999886e+01
-8.843999999999999773e+01
-4.453000000000000114e+01
2.794999999999999929e+01
4.788000000000000256e+01
3.618999999999999773e+01
2.810000000000000053e+00
-4.564000000000000057e+01
4.259999999999999787e+00
6.099999999999999645e+00
-1.422000000000000064e+01
1.191999999999999993e+01
5.300000000000000266e-01
-2.939000000000000057e+01
1.393999999999999950e+01
-6.330000000000000071e+00
-5.153000000000000114e+01
3.553000000000000114e+01
1.942000000000000171e+01
1.696000000000000085e+01
1.928000000000000114e+01
-3.364000000000000057e+01
5.239999999999999858e+01
-2.383999999999999986e+01
-3.149999999999999911e+00
5.400000000000000355e+00
2.301999999999999957e+01
5.000000000000000278e-02
1.757000000000000028e+01
8.050000000000000711e+00
-2.500000000000000000e+00
9.900000000000000355e+00
-1.191000000000000014e+01
1.308000000000000007e+01
-4.870000000000000107e+00
-1.987000000000000099e+01
1.658999999999999986e+01
-2.069999999999999840e+00
-2.280999999999999872e+01
1.436999999999999922e+01
-3.400000000000000244e-01
-2.801999999999999957e+01
1.842000000000000171e+01
8.060000000000000497e+00
-2.048000000000000043e+01
1.375000000000000000e+01
8.289999999999999147e+00
-8.769999999999999574e+00
-4.899999999999999911e-01
7.139999999999999680e+00
-9.300000000000000711e+00
-2.171999999999999886e+01
-1.723999999999999844e+01
9.631999999999999318e+01
5.019999999999999574e+00
5.160000000000000142e+00
-1.230000000000000071e+01
-3.870000000000000284e+01
1.459999999999999964e+01
1.096000000000000085e+01
-1.498000000000000043e+01
1.239999999999999991e+00
1.798000000000000043e+01
1.060000000000000053e+00
-2.039000000000000057e+01
1.359999999999999964e+01
4.219999999999999751e+00
-8.539999999999999147e+00
1.719999999999999973e+00
1.231000000000000050e+01
-1.183000000000000007e+01
-9.000000000000000000e+00
2.226999999999999957e+01
8.580000000000000071e+00
-7.840999999999999659e+01
-1.939999999999999947e+00
9.901000000000000512e+01
-1.413000000000000078e+01
4.732000000000000028e+01
6.971999999999999886e+01
-2.710000000000000000e+02
-1.257000000000000028e+01
8.900000000000000133e-01
1.105300000000000011e+02
1.329699999999999989e+02
-1.714000000000000057e+01
-9.257999999999999829e+01
-1.202999999999999972e+02
1.263499999999999943e+02
1.789999999999999858e+01
9.939999999999999503e+00
7.500000000000000000e-01
-6.820000000000000284e+00
2.709999999999999964e+00
9.550000000000000711e+00
-1.560999999999999943e+01
-1.033999999999999986e+01
-2.310000000000000053e+00
-1.080000000000000071e+00
5.370000000000000107e+00
2.605000000000000071e+01
4.214000000000000057e+01
-1.255100000000000051e+02
-8.710000000000000853e+00
2.264999999999999858e+01
6.080000000000000071e+00
3.779999999999999805e+00
-2.200000000000000011e-01
-7.679999999999999716e+00
-1.407000000000000028e+01
7.580000000000000071e+00
5.509999999999999787e+00
8.230000000000000426e+00
7.049999999999999822e+00
-6.629000000000000625e+01
-3.564999999999999858e+01
8.140000000000000568e+00
1.502999999999999936e+01
-2.410000000000000142e+01
-4.669999999999999929e+00
2.173999999999999844e+01
1.189999999999999947e+00
-4.400000000000000022e-01
2.041000000000000014e+01
3.140000000000000124e+00
-1.780999999999999872e+01
1.794999999999999929e+01
1.208000000000000007e+01
-8.269999999999999574e+00
1.712000000000000099e+01
7.769999999999999574e+00
-2.250000000000000000e+00
4.809999999999999609e+00
1.851000000000000156e+01
-1.109999999999999964e+01
-8.160000000000000142e+00
-7.500000000000000000e-01
6.269999999999999574e+00
4.440000000000000391e+00
4.849999999999999645e+00
-1.942999999999999972e+01
-1.796999999999999886e+01
7.679999999999999716e+00
-3.700000000000000178e+00
9.300000000000000488e-01
1.810999999999999943e+01
-6.259999999999999787e+00
6.559999999999999609e+00
7.139999999999999680e+00
-1.655999999999999872e+01
6.360000000000000320e+00
2.246999999999999886e+01
3.089999999999999858e+00
-2.141000000000000014e+01
1.739000000000000057e+01
5.839999999999999858e+00
-1.572000000000000064e+01
5.040000000000000036e+00
1.612999999999999901e+01
-2.910000000000000142e+00
-1.892999999999999972e+01
1.775000000000000000e+01
4.629999999999999893e+00
-1.578999999999999915e+01
1.027999999999999936e+01
5.860000000000000320e+00
-8.039999999999999147e+00
4.059999999999999609e+00
3.220000000000000195e+00
-6.349999999999999645e+00
3.200000000000000067e-01
7.349999999999999645e+00
-9.769999999999999574e+00
-1.678999999999999915e+01
1.065000000000000036e+01
1.409999999999999920e+00
-1.541000000000000014e+01
1.372000000000000064e+01
3.049999999999999822e+00
-2.021000000000000085e+01
1.796000000000000085e+01
8.990000000000000213e+00
-1.653000000000000114e+01
6.820000000000000284e+00
1.019999999999999929e+01
-7.700000000000000178e+00
1.290000000000000036e+00
9.480000000000000426e+00
-5.740000000000000213e+00
-1.166000000000000014e+01
1.832000000000000028e+01
-5.100000000000000089e-01
-2.689999999999999858e+01
1.812999999999999901e+01
8.650000000000000355e+00
-1.842000000000000171e+01
1.662000000000000099e+01
7.809999999999999609e+00
-1.617999999999999972e+01
9.800000000000000711e+00
1.336999999999999922e+01
-1.298000000000000043e+01
-1.299000000000000021e+01
1.830999999999999872e+01
-1.550000000000000044e+00
-2.798000000000000043e+01
2.539999999999999858e+01
1.096000000000000085e+01
-2.023000000000000043e+01
1.307000000000000028e+01
1.224000000000000021e+01
-1.676000000000000156e+01
-8.499999999999999778e-01
1.671999999999999886e+01
-6.019999999999999574e+00
-2.717999999999999972e+01
2.276999999999999957e+01
8.320000000000000284e+00
-2.380999999999999872e+01
2.619000000000000128e+01
7.669999999999999929e+00
-2.080999999999999872e+01
2.005000000000000071e+01
5.219999999999999751e+00
-2.064999999999999858e+01
9.980000000000000426e+00
1.557000000000000028e+01
-1.022000000000000064e+01
-4.490000000000000213e+00
1.810999999999999943e+01
-4.190000000000000391e+00
-1.164000000000000057e+01
1.476999999999999957e+01
-1.290000000000000036e+01
-2.850000000000000089e+00
2.144000000000000128e+01
-6.743999999999999773e+01
3.257000000000000028e+01
1.600000000000000089e+00
4.969999999999999751e+00
-1.431000000000000050e+01
6.230000000000000426e+00
2.700000000000000178e+00
-1.996999999999999886e+01
1.510999999999999943e+01
5.000000000000000278e-02
-2.773000000000000043e+01
2.707999999999999829e+01
6.190000000000000391e+00
-1.698000000000000043e+01
1.921999999999999886e+01
5.190000000000000391e+00
-1.603000000000000114e+01
1.263000000000000078e+01
1.252999999999999936e+01
7.809999999999999609e+00
3.739999999999999858e+01
-5.636999999999999744e+01
-1.434999999999999964e+01
2.260999999999999943e+01
5.599999999999999645e+00
-1.455000000000000071e+01
1.134999999999999964e+01
4.290000000000000036e+00
-1.205000000000000071e+01
1.216000000000000014e+01
3.959999999999999964e+00
-1.723000000000000043e+01
7.110000000000000320e+00
1.235999999999999943e+01
-9.769999999999999574e+00
9.199999999999999289e+00
2.462999999999999901e+01
-9.426999999999999602e+01
1.293999999999999950e+01
-7.779000000000000625e+01
-6.270000000000000284e+01
-8.795999999999999375e+01
4.824000000000000199e+01
-7.459000000000000341e+01
-3.203999999999999915e+01
1.928999999999999915e+01
6.580000000000000071e+00
-2.042999999999999972e+01
1.174000000000000021e+01
-9.570000000000000284e+00
1.075199999999999960e+02
1.581200000000000045e+02
-1.692500000000000000e+02
-1.203999999999999915e+01
2.196999999999999886e+01
1.853000000000000114e+01
-2.387999999999999901e+01
-1.351999999999999957e+01
-1.570000000000000062e+00
-1.109999999999999964e+01
2.660000000000000142e+00
-3.699999999999999956e-01
-1.506000000000000050e+01
1.284999999999999964e+01
2.020000000000000018e+00
-1.416000000000000014e+01
1.680000000000000071e+01
3.939999999999999947e+00
-2.001000000000000156e+01
1.382000000000000028e+01
8.000000000000000444e-01
-2.714000000000000057e+01
1.610000000000000142e+01
7.379999999999999893e+00
-2.267000000000000171e+01
2.710000000000000142e+01
1.390000000000000036e+01
-1.660999999999999943e+01
2.180999999999999872e+01
7.120000000000000107e+00
-1.478999999999999915e+01
1.565000000000000036e+01
1.108000000000000007e+01
-1.249000000000000021e+01
3.540000000000000036e+00
1.703999999999999915e+01
8.380000000000000782e+00
-1.084999999999999964e+01
-7.323000000000000398e+01
1.780000000000000071e+01
4.127000000000000313e+01
2.208999999999999986e+01
-1.150999999999999979e+01
-2.294000000000000128e+01
1.325000000000000000e+01
5.339999999999999858e+00
-1.176999999999999957e+01
5.860000000000000320e+00
5.769999999999999574e+00
-1.114000000000000057e+01
1.300000000000000044e-01
6.759999999999999787e+00
-8.460000000000000853e+00
-1.810000000000000053e+00
7.240000000000000213e+00
-4.419999999999999929e+00
-1.081000000000000050e+01
1.344999999999999929e+01
-1.830000000000000071e+00
-1.664000000000000057e+01
1.016000000000000014e+01
-4.379999999999999893e+00
-2.073999999999999844e+01
1.422000000000000064e+01
-6.400000000000000133e-01
-2.401999999999999957e+01
1.880000000000000071e+01
4.589999999999999858e+00
-1.451999999999999957e+01
1.794999999999999929e+01
-8.759999999999999787e+00
-1.507000000000000028e+01
2.026000000000000156e+01
8.550000000000000711e+00
-1.601999999999999957e+01
1.767000000000000171e+01
1.049000000000000021e+01
-1.088000000000000078e+01
6.690000000000000391e+00
7.839999999999999858e+00
-1.427999999999999936e+01
2.669999999999999929e+00
1.239000000000000057e+01
-9.899999999999999911e-01
-1.425999999999999979e+01
1.483999999999999986e+01
2.300000000000000100e-01
-1.206000000000000050e+01
2.039000000000000057e+01
9.980000000000000426e+00
-1.394999999999999929e+01
3.597999999999999687e+01
-2.971000000000000085e+01
-3.463000000000000256e+01
2.241000000000000014e+01
6.269999999999999574e+00
-1.921999999999999886e+01
1.598000000000000043e+01
1.052999999999999936e+01
-2.767000000000000171e+01
1.515000000000000036e+01
1.810000000000000053e+00
-2.482000000000000028e+01
1.073000000000000043e+01
7.259999999999999787e+00
-1.892999999999999972e+01
-7.459999999999999964e+00
-6.403000000000000114e+01
1.633400000000000034e+02
2.036999999999999886e+02
7.254999999999999716e+01
-1.688499999999999943e+02
-4.717000000000000171e+01
3.463000000000000256e+01
2.096000000000000085e+01
1.270000000000000018e+00
-4.920000000000000284e+01
2.689999999999999858e+01
2.576999999999999957e+01
-1.249000000000000021e+01
3.014999999999999858e+01
-3.130000000000000071e+01
1.167999999999999972e+01
-1.008000000000000007e+01
-3.031499999999999773e+02
3.465600000000000023e+02
4.928999999999999915e+01
-3.840999999999999659e+01
-5.290000000000000036e+00
2.444999999999999929e+01
4.267000000000000171e+01
2.723999999999999844e+01
6.537999999999999545e+01
3.834000000000000341e+01
3.185999999999999943e+01
7.676999999999999602e+01
7.910999999999999943e+01
3.374000000000000199e+01
5.696999999999999886e+01
3.282999999999999829e+01
-1.717000000000000171e+01
-8.720000000000000639e+00
7.469999999999999751e+00
-7.669999999999999929e+00
1.725000000000000000e+01
1.106000000000000050e+01
-7.030000000000000249e+00
7.400000000000000355e+00
7.629999999999999893e+00
-4.080000000000000071e+00
-3.640000000000000124e+00
7.219999999999999751e+00
-5.419999999999999929e+00
-1.042999999999999972e+01
7.839999999999999858e+00
-5.650000000000000355e+00
-1.750000000000000000e+01
1.332000000000000028e+01
4.080000000000000071e+00
-1.610000000000000142e+01
1.271000000000000085e+01
3.370000000000000107e+00
-1.352999999999999936e+01
4.429999999999999716e+00
7.459999999999999964e+00
-7.750000000000000000e+00
-5.400000000000000355e-01
1.188000000000000078e+01
-4.429999999999999716e+00
-1.151999999999999957e+01
1.475999999999999979e+01
-2.700000000000000178e-01
-2.255000000000000071e+01
1.675000000000000000e+01
2.799999999999999822e+00
-2.332000000000000028e+01
1.735999999999999943e+01
1.007000000000000028e+01
-1.055000000000000071e+01
4.110000000000000320e+00
5.040000000000000036e+00
-1.443999999999999950e+01
1.230000000000000071e+01
3.569999999999999840e+00
-1.605999999999999872e+01
8.980000000000000426e+00
1.696999999999999886e+01
-2.229999999999999982e+00
-1.183000000000000007e+01
1.646999999999999886e+01
4.669999999999999929e+00
-2.019999999999999929e+01
1.221000000000000085e+01
5.389999999999999680e+00
-2.680000000000000160e+00
7.330000000000000071e+00
4.370000000000000107e+00
-5.150000000000000355e+00
2.060000000000000053e+00
3.800000000000000044e-01
-8.580000000000000071e+00
-9.899999999999999911e-01
4.669999999999999929e+00
-8.789999999999999147e+00
-8.119999999999999218e+00
8.830000000000000071e+00
-5.320000000000000284e+00
-1.520000000000000018e+00
7.150000000000000355e+00
-1.600000000000000089e+00
-1.000000000000000000e+00
8.060000000000000497e+00
-6.320000000000000284e+00
-9.480000000000000426e+00
4.610000000000000320e+00
5.699999999999999512e-01
-2.089999999999999858e+00
7.299999999999999822e+00
-4.870000000000000107e+00
-4.370000000000000107e+00
7.160000000000000142e+00
-3.660000000000000142e+00
-6.559999999999999609e+00
4.679999999999999716e+00
-4.160000000000000142e+00
-1.590000000000000080e+00
1.660999999999999943e+01
-3.149999999999999911e+00
-7.259999999999999787e+00
2.800000000000000266e-01
-6.879999999999999893e+00
-3.310000000000000053e+00
8.800000000000000711e+00
-5.610000000000000320e+00
4.570000000000000284e+00
-1.639999999999999902e+00
-1.347000000000000064e+01
1.967999999999999972e+01
6.280000000000000249e+00
-1.708999999999999986e+01
1.998000000000000043e+01
5.190000000000000391e+00
-1.365000000000000036e+01
1.133999999999999986e+01
-1.100000000000000000e+01
-3.402000000000000313e+01
2.571000000000000085e+01
-4.099999999999999756e-01
3.464000000000000057e+01
2.142000000000000171e+01
-4.263000000000000256e+01
1.717000000000000171e+01
1.143999999999999950e+01
8.100000000000000533e-01
-1.662999999999999901e+01
-9.839999999999999858e+00
-1.173000000000000043e+01
4.639999999999999680e+00
1.413000000000000078e+01
-1.229999999999999982e+00
1.006000000000000050e+01
1.191000000000000014e+01
1.870000000000000107e+00
-8.399999999999999689e-01
4.600000000000000200e-01
-1.416000000000000014e+01
-5.240000000000000213e+00
1.783999999999999986e+01
-3.419999999999999929e+00
-1.356000000000000050e+01
6.854999999999999716e+01
-2.817999999999999972e+01
2.217999999999999972e+01
-3.580000000000000071e+00
-2.542999999999999972e+01
3.359999999999999876e+00
2.635999999999999943e+01
1.088000000000000078e+01
3.133999999999999986e+01
-6.210000000000000142e+01
-3.931000000000000227e+01
-5.907000000000000028e+01
7.799999999999999822e+00
1.172500000000000000e+02
6.529000000000000625e+01
3.146999999999999886e+01
-7.240000000000000213e+00
-1.200199999999999960e+02
-7.426000000000000512e+01
2.524699999999999989e+02
-2.583000000000000114e+02
-3.239999999999999858e+01
3.989999999999999858e+01
2.700000000000000000e+01
-4.990000000000000213e+00
-2.869999999999999929e+01
1.253999999999999915e+01
6.030000000000000249e+00
-4.745000000000000284e+01
-4.888000000000000256e+01
7.270000000000000284e+01
7.359000000000000341e+01
1.800000000000000044e+00
3.128000000000000114e+01
-8.043000000000000682e+01
-4.132999999999999829e+01
-2.441000000000000014e+01
-8.080000000000000071e+00
5.570000000000000284e+00
-1.207000000000000028e+01
1.411999999999999922e+01
-8.419999999999999929e+00
-1.058000000000000007e+01
3.546999999999999886e+01
-1.817000000000000171e+01
-2.851999999999999957e+01
-5.161999999999999744e+01
-2.471000000000000085e+01
-9.220000000000000639e+00
1.559999999999999964e+01
-1.405000000000000071e+01
-6.730000000000000426e+00
5.540000000000000036e+00
-9.830000000000000071e+00
7.129999999999999893e+00
1.197000000000000064e+01
-7.030000000000000249e+00
8.419999999999999929e+00
1.208000000000000007e+01
-9.109999999999999432e+00
1.218999999999999950e+01
8.029999999999999361e+00
-1.592999999999999972e+01
1.348000000000000043e+01
7.730000000000000426e+00
-1.730999999999999872e+01
4.164999999999999858e+01
6.557999999999999829e+01
-1.832000000000000028e+01
1.175999999999999979e+01
3.867000000000000171e+01
-1.810000000000000053e+00
-7.426000000000000512e+01
-1.515300000000000011e+02
-5.864000000000000057e+01
2.021000000000000085e+01
4.010000000000000142e+01
-1.630999999999999872e+01
9.890000000000000568e+00
-1.601000000000000156e+01
-3.704999999999999716e+01
3.643999999999999773e+01
-1.584999999999999964e+01
-2.470000000000000195e+00
7.870000000000000107e+00
-2.870000000000000107e+00
-1.503999999999999915e+01
1.689999999999999858e+01
-7.049999999999999822e+00
1.750000000000000000e+00
9.849999999999999645e+00
-5.629999999999999893e+00
-2.560000000000000053e+00
2.014999999999999858e+01
-1.739999999999999858e+01
-4.135999999999999943e+01
-8.712999999999999545e+01
1.120499999999999972e+02
1.411999999999999922e+01
-6.764000000000000057e+01
3.790999999999999659e+01
-8.980000000000000426e+00
9.445000000000000284e+01
-7.985999999999999943e+01
1.303700000000000045e+02
1.104099999999999966e+02
-2.423000000000000043e+01
-4.384000000000000341e+01
-2.942000000000000171e+01
4.410999999999999943e+01
-2.520000000000000018e+00
-6.679999999999999716e+01
-6.990000000000000213e+00
3.041000000000000014e+01
-3.580000000000000071e+00
-3.385000000000000142e+01
-3.279999999999999805e+00
1.051599999999999966e+02
-4.100999999999999801e+01
-2.080999999999999872e+01
-4.559999999999999609e+00
-7.280000000000000249e+00
7.523000000000000398e+01
-9.419999999999999929e+00
1.369999999999999929e+01
-4.592000000000000171e+01
-3.151999999999999957e+01
3.657999999999999829e+01
-6.799999999999999822e+00
-1.535999999999999943e+01
-6.480000000000000426e+00
-2.680000000000000160e+00
2.999999999999999889e-01
-1.260999999999999943e+01
1.353999999999999915e+01
1.489999999999999991e+00
-1.632999999999999829e+01
1.484999999999999964e+01
-1.659999999999999920e+00
-5.330000000000000071e+00
1.601000000000000156e+01
2.689999999999999947e+00
6.035000000000000142e+01
-3.654999999999999716e+01
2.794000000000000128e+01
-9.684000000000000341e+01
-2.976800000000000068e+02
4.384499999999999886e+02
1.299799999999999898e+02
-2.375000000000000000e+01
-2.868299999999999841e+02
-9.496999999999999886e+01
-2.987000000000000099e+01
-1.496000000000000085e+01
-4.435000000000000142e+01
-1.566500000000000057e+02
2.311599999999999966e+02
9.121999999999999886e+01
7.176999999999999602e+01
-2.767999999999999972e+01
2.482999999999999829e+01
4.475000000000000000e+01
7.669999999999999929e+00
-6.595999999999999375e+01
1.463600000000000136e+02
-5.557999999999999829e+01
-3.615999999999999659e+01
-8.289999999999999147e+00
7.970000000000000284e+01
-8.990000000000000568e+01
1.094099999999999966e+02
-6.029999999999999716e+01
-5.540000000000000036e+00
5.999999999999999778e-02
2.067000000000000171e+01
-7.621999999999999886e+01
-1.123000000000000043e+01
4.699999999999999734e-01
-6.521999999999999886e+01
1.029500000000000028e+02
-3.424000000000000199e+01
1.323000000000000043e+01
9.450000000000000000e+01
-6.564000000000000057e+01
-1.074500000000000028e+02
1.880999999999999872e+01
-1.755000000000000071e+01
1.561299999999999955e+02
-1.501999999999999957e+01
3.446999999999999886e+01
2.828999999999999915e+01
-2.478999999999999915e+01
-2.367000000000000171e+01
-1.053999999999999915e+01
2.171999999999999886e+01
-7.839999999999999858e+00
-5.152000000000000313e+01
9.919999999999999929e+00
3.210000000000000142e+01
4.610000000000000320e+00
8.276999999999999602e+01
-2.006999999999999886e+02
5.985999999999999943e+01
-2.025000000000000000e+01
-1.789699999999999989e+02
2.848999999999999844e+01
1.566000000000000014e+01
5.932000000000000028e+01
-2.029999999999999805e+00
4.714999999999999858e+01
-2.075399999999999920e+02
7.368000000000000682e+01
6.626000000000000512e+01
1.423000000000000043e+01
1.131700000000000017e+02
-2.858999999999999986e+01
-1.896399999999999864e+02
1.024500000000000028e+02
2.921999999999999886e+01
8.869999999999999218e+00
8.289999999999999147e+00
2.455999999999999872e+01
-6.745000000000000284e+01
-5.410999999999999943e+01
1.898999999999999844e+01
2.837000000000000099e+01
-4.549999999999999822e+00
1.516000000000000014e+01
1.929999999999999938e+00
-1.034999999999999964e+01
1.846000000000000085e+01
-4.400000000000000022e-01
-1.027999999999999936e+01
9.880000000000000782e+00
1.790000000000000036e+00
-1.080000000000000071e+01
3.629999999999999893e+00
-1.047000000000000064e+01
9.599999999999999645e-01
3.509999999999999787e+00
-1.507000000000000028e+01
7.019999999999999574e+00
8.650000000000000355e+00
-1.153999999999999915e+01
2.548999999999999844e+01
4.521999999999999886e+01
4.857000000000000028e+01
-7.178000000000000114e+01
-4.761999999999999744e+01
4.063000000000000256e+01
1.213499999999999943e+02
-8.278000000000000114e+01
-1.211899999999999977e+02
1.053999999999999915e+01
-6.934000000000000341e+01
-6.637999999999999545e+01
2.733399999999999750e+02
-1.399399999999999977e+02
2.714000000000000057e+01
8.789999999999999147e+00
4.149000000000000199e+01
1.496100000000000136e+02
-7.898999999999999488e+01
-1.175000000000000000e+01
-1.318700000000000045e+02
2.830000000000000071e+00
-9.340000000000000568e+01
6.545000000000000284e+01
1.350000000000000000e+01
-5.606000000000000227e+01
8.720000000000000639e+00
-6.709999999999999964e+00
1.646999999999999886e+01
1.751999999999999957e+01
-3.350999999999999801e+01
5.059999999999999609e+00
-3.089999999999999858e+00
-1.258000000000000007e+01
-1.441999999999999993e+01
6.980000000000000426e+00
-1.176999999999999957e+01
-1.851999999999999957e+01
2.950000000000000178e+00
-1.839999999999999858e+01
1.414000000000000057e+01
6.320000000000000284e+00
-1.123000000000000043e+01
1.285999999999999943e+01
6.540000000000000036e+00
-1.031000000000000050e+01
6.230000000000000426e+00
1.311999999999999922e+01
-1.080000000000000071e+01
-3.089999999999999858e+00
-4.099999999999999756e-01
-2.760999999999999943e+01
2.910999999999999943e+01
1.045999999999999943e+02
-5.981000000000000227e+01
3.628000000000000114e+01
2.117999999999999972e+01
1.493999999999999950e+01
-3.048000000000000043e+01
5.154999999999999716e+01
7.209999999999999964e+00
-8.229000000000000625e+01
-4.093999999999999773e+01
-5.190000000000000391e+00
-3.579999999999999716e+01
-2.312999999999999901e+01
1.767999999999999972e+01
1.054399999999999977e+02
-1.896899999999999977e+02
7.093000000000000682e+01
-8.714000000000000057e+01
3.979999999999999982e+00
-1.403999999999999915e+01
1.698999999999999844e+01
2.280999999999999872e+01
3.249000000000000199e+01
2.142999999999999972e+01
-6.830000000000000071e+00
7.629999999999999893e+00
-7.110000000000000320e+00
-2.916000000000000014e+01
8.099999999999999645e+00
-1.335999999999999943e+01
-3.010000000000000142e+01
9.560000000000000497e+00
1.919000000000000128e+01
-2.412999999999999901e+01
2.060000000000000142e+01
2.637999999999999901e+01
9.210000000000000853e+00
-2.200000000000000178e+00
-1.400000000000000133e-01
-8.539999999999999147e+00
-1.566000000000000014e+01
-6.209999999999999964e+00
-5.000000000000000000e+00
-1.057000000000000028e+01
8.539999999999999147e+00
-4.000000000000000083e-02
-6.450000000000000178e+00
9.300000000000000488e-01
8.910000000000000142e+00
-1.028999999999999915e+01
-3.259999999999999787e+00
-6.410000000000000142e+00
-4.950000000000000178e+00
9.500000000000000000e+00
-6.129999999999999893e+00
5.719999999999999751e+00
1.097000000000000064e+01
-1.539000000000000057e+01
2.760999999999999943e+01
-1.316999999999999993e+01
1.862000000000000099e+01
5.152000000000000313e+01
3.350000000000000000e+01
-1.375900000000000034e+02
-7.600000000000000089e-01
6.257999999999999829e+01
-4.042999999999999972e+01
2.030999999999999872e+01
1.521999999999999886e+02
-1.953700000000000045e+02
8.807999999999999829e+01
-1.205000000000000071e+01
2.569999999999999929e+01
-5.845000000000000284e+01
-3.236999999999999744e+01
3.746000000000000085e+01
2.507400000000000091e+02
-5.743999999999999773e+01
6.792000000000000171e+01
7.862999999999999545e+01
-2.484699999999999989e+02
-6.420999999999999375e+01
9.468000000000000682e+01
2.830000000000000071e+00
-6.576000000000000512e+01
-8.143999999999999773e+01
2.485999999999999943e+01
5.370000000000000284e+01
6.443999999999999773e+01
2.356200000000000045e+02
-2.349600000000000080e+02
-2.901899999999999977e+02
-4.043999999999999773e+01
8.221999999999999886e+01
5.881000000000000227e+01
-2.337000000000000099e+01
1.878100000000000023e+02
-1.220600000000000023e+02
2.085500000000000114e+02
-2.040099999999999909e+02
-2.932500000000000000e+02
4.610999999999999943e+01
4.787400000000000091e+02
-4.193999999999999773e+01
-7.195999999999999375e+01
-5.150999999999999801e+01
-1.472000000000000064e+01
1.160999999999999943e+02
-3.731000000000000227e+01
-4.352000000000000313e+01
4.953999999999999915e+01
1.097500000000000000e+02
-6.034000000000000341e+01
-5.250000000000000000e+01
-3.167000000000000171e+01
-2.080000000000000071e+00
-2.279000000000000057e+02
2.240500000000000114e+02
5.872999999999999687e+01
6.704999999999999716e+01
-1.501800000000000068e+02
-2.896999999999999886e+01
2.205999999999999872e+01
7.167000000000000171e+01
-1.260999999999999943e+01
-1.258499999999999943e+02
-2.176999999999999886e+02
1.370900000000000034e+02
1.745600000000000023e+02
-1.205100000000000051e+02
6.687000000000000455e+01
-1.291800000000000068e+02
5.963000000000000256e+01
-3.853000000000000114e+01
-3.479999999999999716e+01
3.389999999999999858e+01
-7.690000000000000568e+01
-1.002999999999999936e+01
2.105999999999999872e+01
1.233000000000000007e+01
2.901999999999999957e+01
-4.338000000000000256e+01
-8.362999999999999545e+01
3.339999999999999858e+01
6.470000000000000284e+01
4.152000000000000313e+01
-3.169999999999999929e+01
-4.799999999999999822e+00
-2.825000000000000000e+01
1.725000000000000000e+01
-9.650000000000000355e+00
1.774499999999999886e+02
-5.907999999999999829e+01
-3.319999999999999840e+00
1.603000000000000114e+01
2.864999999999999858e+01
9.399999999999999467e-01
-2.607999999999999829e+01
3.935000000000000142e+01
-1.375000000000000000e+01
-2.914999999999999858e+01
-2.151000000000000156e+01
1.828999999999999915e+01
-5.738000000000000256e+01
1.960999999999999943e+01
-6.346999999999999886e+01
-1.227999999999999936e+01
1.148000000000000043e+01
7.254000000000000625e+01
-1.803300000000000125e+02
6.520000000000000284e+01
2.162000000000000099e+01
-1.189999999999999947e+00
5.331000000000000227e+01
-5.284000000000000341e+01
-1.336999999999999922e+01
-5.849999999999999645e+00
1.364000000000000057e+01
1.500999999999999979e+01
-2.510000000000000142e+01
2.644999999999999929e+01
4.659000000000000341e+01
-3.005000000000000071e+01
5.685000000000000142e+01
-2.378000000000000114e+01
-1.061999999999999922e+01
7.929999999999999716e+01
-1.864999999999999858e+01
-1.008000000000000007e+01
2.482000000000000028e+01
-1.207399999999999949e+02
-2.757000000000000028e+01
2.123999999999999844e+01
-5.860000000000000320e+00
2.394999999999999929e+01
-1.857000000000000028e+01
3.119999999999999929e+01
1.085999999999999943e+01
-7.223999999999999488e+01
3.589999999999999858e+01
-3.760000000000000142e+01
-2.812000000000000099e+01
2.940199999999999818e+02
-7.754999999999999716e+01
-2.212000000000000099e+01
-7.603000000000000114e+01
-1.661999999999999886e+02
1.090699999999999932e+02
1.055600000000000023e+02
-3.246999999999999886e+01
2.220000000000000195e+00
2.855999999999999872e+01
5.242000000000000171e+01
-1.691100000000000136e+02
5.765999999999999659e+01
8.535999999999999943e+01
7.568999999999999773e+01
1.942000000000000171e+01
-3.707000000000000028e+01
1.347000000000000064e+01
-2.219000000000000128e+01
1.186999999999999922e+01
-7.919999999999999929e+00
-3.509999999999999787e+00
-1.128700000000000045e+02
-1.124800000000000040e+02
1.298799999999999955e+02
1.249899999999999949e+02
-1.138900000000000006e+02
5.596999999999999886e+01
-2.732000000000000028e+01
-2.155300000000000011e+02
-2.489000000000000057e+01
1.390900000000000034e+02
1.511999999999999886e+02
1.291200000000000045e+02
-4.730000000000000426e+00
-1.620999999999999943e+02
2.346800000000000068e+02
8.818999999999999773e+01
2.174099999999999966e+02
-3.033299999999999841e+02
-1.774699999999999989e+02
1.389000000000000057e+01
5.796999999999999886e+01
1.346999999999999886e+02
5.480000000000000426e+00
-5.900999999999999801e+01
-8.957999999999999829e+01
1.232800000000000011e+02
5.014999999999999858e+01
-1.751599999999999966e+02
-1.531899999999999977e+02
1.075900000000000034e+02
2.864599999999999795e+02
-1.598499999999999943e+02
-8.487000000000000455e+01
-1.956899999999999977e+02
1.591399999999999864e+02
2.213199999999999932e+02
3.264200000000000159e+02
-2.844499999999999886e+02
-1.468000000000000114e+02
1.655999999999999872e+01
1.178900000000000006e+02
7.468999999999999773e+01
3.564999999999999858e+01
-9.306999999999999318e+01
-5.395000000000000284e+01
-1.519999999999999929e+01
-6.339000000000000057e+01
6.593999999999999773e+01
1.407000000000000028e+01
1.059999999999999964e+01
4.309999999999999609e+00
-7.030000000000000249e+00
7.940000000000000391e+00
2.171000000000000085e+01
1.061999999999999922e+01
-5.078999999999999915e+01
-1.202000000000000028e+02
2.048300000000000125e+02
9.259999999999999787e+00
-1.045100000000000051e+02
1.120000000000000107e+00
2.283999999999999986e+01
3.872999999999999687e+01
-7.969999999999999751e+00
-6.129999999999999893e+00
1.105799999999999983e+02
-4.022999999999999687e+01
-7.646999999999999886e+01
8.018000000000000682e+01
-4.799000000000000199e+01
1.353000000000000114e+02
-1.082900000000000063e+02
1.003999999999999915e+01
4.575999999999999801e+01
5.346999999999999886e+01
4.490999999999999659e+01
-2.489000000000000057e+01
-1.082099999999999937e+02
-9.781999999999999318e+01
6.606999999999999318e+01
-1.068700000000000045e+02
-1.049099999999999966e+02
1.657299999999999898e+02
-5.788000000000000256e+01
1.380699999999999932e+02
-3.038700000000000045e+02
7.789000000000000057e+01
2.523999999999999844e+01
2.078000000000000114e+02
3.745899999999999750e+02
-2.200399999999999920e+02
-1.504799999999999898e+02
-9.364000000000000057e+01
3.430000000000000160e+00
1.521000000000000085e+01
3.942000000000000171e+01
1.139699999999999989e+02
-8.665999999999999659e+01
-3.721000000000000085e+01
1.400500000000000114e+02
8.457999999999999829e+01
2.026000000000000156e+01
-2.085999999999999943e+02
8.095000000000000284e+01
1.039000000000000057e+02
-6.190999999999999659e+01
-1.694000000000000128e+01
-1.364000000000000057e+01
1.612999999999999901e+01
-7.219999999999999751e+00
1.862999999999999901e+01
4.953999999999999915e+01
1.026999999999999957e+01
-3.417000000000000171e+01
3.589000000000000057e+01
3.062000000000000099e+01
-1.081400000000000006e+02
5.722999999999999687e+01
2.989999999999999858e+01
2.660000000000000142e+00
7.384000000000000341e+01
-6.113000000000000256e+01
7.714000000000000057e+01
-6.200000000000000178e+00
-3.250000000000000000e+01
2.107000000000000028e+01
4.945000000000000284e+01
2.487000000000000099e+01
5.175999999999999801e+01
7.912000000000000455e+01
-4.590799999999999841e+02
1.752899999999999920e+02
1.083299999999999983e+02
7.500000000000000000e+00
1.167999999999999972e+01
-9.289999999999999147e+00
-3.788000000000000256e+01
1.925000000000000000e+01
3.293999999999999773e+01
-7.200000000000000000e+01
-2.370000000000000107e+00
-1.182399999999999949e+02
2.469999999999999929e+01
1.060600000000000023e+02
8.517000000000000171e+01
6.995999999999999375e+01
-9.893000000000000682e+01
-5.886999999999999744e+01
4.707000000000000028e+01
-5.792000000000000171e+01
5.310999999999999943e+01
-2.999999999999999889e-02
-7.653000000000000114e+01
-6.998000000000000398e+01
1.391599999999999966e+02
-2.887000000000000099e+01
-3.863000000000000256e+01
1.224000000000000021e+01
3.256000000000000227e+01
1.980999999999999872e+01
-1.705999999999999872e+01
1.140000000000000036e+01
3.009999999999999787e+00
-5.219999999999999751e+00
2.600000000000000089e+00
-4.940000000000000391e+00
1.149999999999999911e+00
1.610000000000000098e+00
-9.539999999999999147e+00
1.015000000000000036e+01
-1.370000000000000107e+00
-3.759999999999999787e+00
1.948000000000000043e+01
-4.349999999999999645e+00
-2.848999999999999844e+01
1.600000000000000033e-01
2.171000000000000085e+01
7.410999999999999943e+01
-6.309000000000000341e+01
-2.089300000000000068e+02
1.306899999999999977e+02
4.900000000000000000e+01
-1.957999999999999829e+01
-4.528999999999999915e+01
3.846000000000000085e+01
-9.026999999999999602e+01
1.333000000000000007e+01
1.115000000000000036e+01
2.419999999999999929e+01
1.239999999999999991e+00
3.549999999999999822e+00
-6.193999999999999773e+01
-5.192999999999999972e+01
-2.491000000000000014e+01
1.274399999999999977e+02
1.082000000000000028e+02
-1.504499999999999886e+02
-1.770000000000000018e+00
4.660000000000000142e+01
4.317999999999999972e+01
-3.211999999999999744e+01
-5.942999999999999972e+01
-4.497999999999999687e+01
1.202199999999999989e+02
-7.523999999999999488e+01
-5.714000000000000057e+01
3.682999999999999829e+01
-1.994999999999999929e+01
2.182000000000000028e+01
4.202000000000000313e+01
1.627599999999999909e+02
1.317299999999999898e+02
-1.432100000000000080e+02
2.571000000000000085e+01
-6.617000000000000171e+01
-1.525399999999999920e+02
4.553999999999999915e+01
7.200000000000000178e+00
1.293999999999999950e+01
8.070999999999999375e+01
1.098000000000000043e+01
-5.171999999999999886e+01
-5.960999999999999943e+01
-1.989999999999999991e+00
1.297000000000000064e+01
1.739199999999999875e+02
-4.099000000000000199e+01
7.734000000000000341e+01
-1.119200000000000017e+02
1.297000000000000064e+01
-4.474000000000000199e+01
-4.586999999999999744e+01
-1.735200000000000102e+02
6.645000000000000284e+01
-2.244999999999999929e+01
-5.200000000000000178e-01
-1.790000000000000036e+00
2.201000000000000156e+01
-3.246999999999999886e+01
-3.364000000000000057e+01
-6.314999999999999858e+01
6.003000000000000114e+01
3.899000000000000199e+01
-1.037699999999999960e+02
1.797899999999999920e+02
2.569999999999999840e+00
-1.791399999999999864e+02
-2.828000000000000114e+01
9.556999999999999318e+01
-1.522299999999999898e+02
-3.021999999999999886e+01
-3.453999999999999915e+01
6.920000000000000284e+01
5.072999999999999687e+01
-4.464999999999999858e+01
-1.810699999999999932e+02
1.462700000000000102e+02
-4.709999999999999964e+00
-4.446000000000000085e+01
-3.021999999999999886e+01
8.073000000000000398e+01
-9.240000000000000213e+00
7.818000000000000682e+01
5.754999999999999716e+01
-1.376999999999999957e+01
-1.637800000000000011e+02
1.143100000000000023e+02
-3.696000000000000085e+01
-1.880000000000000071e+01
2.214999999999999858e+01
2.001000000000000156e+01
-4.339999999999999858e+01
-1.585999999999999943e+01
1.129999999999999893e+00
1.100000000000000000e+01
5.264999999999999858e+01
-1.764000000000000057e+01
-2.669000000000000128e+01
9.259999999999999787e+00
-2.669000000000000128e+01
9.210000000000000853e+00
-1.263000000000000078e+01
-8.065999999999999659e+01
2.069000000000000128e+01
1.950699999999999932e+02
-2.457000000000000028e+01
-8.689000000000000057e+01
6.146000000000000085e+01
-5.964999999999999858e+01
2.478000000000000114e+01
4.072999999999999687e+01
3.990000000000000213e+00
4.230000000000000426e+00
-6.575000000000000000e+01
-2.466000000000000014e+01
-2.098000000000000043e+01
1.670300000000000011e+02
-4.392000000000000171e+01
-1.041099999999999994e+02
1.120699999999999932e+02
7.139999999999999680e+00
9.340000000000000568e+01
5.034000000000000341e+01
8.917000000000000171e+01
-1.597000000000000064e+01
-8.792000000000000171e+01
-6.781000000000000227e+01
1.161999999999999922e+01
3.220000000000000284e+01
1.168999999999999950e+01
4.228999999999999915e+01
9.630000000000000782e+00
-1.327999999999999936e+01
-1.040000000000000036e+01
-2.417999999999999972e+01
1.124000000000000021e+01
3.899999999999999911e+00
-2.032999999999999829e+01
2.551999999999999957e+01
-2.148000000000000043e+01
1.692000000000000171e+01
2.923999999999999844e+01
-2.660000000000000142e+00
-1.780999999999999872e+01
6.759999999999999787e+00
5.280000000000000249e+00
-1.339000000000000057e+01
3.609999999999999876e+00
-8.299999999999999600e-01
-8.949999999999999289e+00
1.515000000000000036e+01
1.409999999999999920e+00
-2.160000000000000142e+00
-1.071000000000000085e+01
-2.520000000000000018e+00
-9.480000000000000426e+00
1.649999999999999911e+00
-7.559999999999999609e+00
-1.564000000000000057e+01
5.549999999999999822e+00
-4.240000000000000213e+00
1.419999999999999929e+01
1.090000000000000080e+00
-4.809999999999999609e+00
1.612999999999999901e+01
-4.059999999999999609e+00
-1.746000000000000085e+01
1.264000000000000057e+01
3.649999999999999911e+00
-1.880999999999999872e+01
2.557000000000000028e+01
1.653999999999999915e+01
-6.969999999999999751e+00
-9.039999999999999147e+00
-1.227999999999999936e+01
-8.099999999999999645e+00
1.273000000000000043e+01
7.330000000000000071e+00
-3.310000000000000053e+00
2.919999999999999929e+00
-4.240000000000000213e+00
6.509999999999999787e+00
5.200000000000000178e-01
-9.160000000000000142e+00
1.905000000000000071e+01
7.370000000000000107e+00
-1.887999999999999901e+01
-4.230000000000000426e+00
-7.950000000000000178e+00
-1.034999999999999964e+01
4.092999999999999972e+01
1.377999999999999936e+01
5.740000000000000213e+00
-1.125000000000000000e+01
2.879999999999999893e+00
-7.759999999999999787e+00
2.390000000000000124e+00
-1.933999999999999986e+01
2.060999999999999943e+01
2.335000000000000142e+01
-2.735999999999999943e+01
9.399999999999999467e-01
7.399999999999999911e-01
1.222000000000000064e+01
-1.619999999999999929e+01
-1.147000000000000064e+01
1.858999999999999986e+01
3.319999999999999840e+00
-2.183999999999999986e+01
6.330000000000000071e+00
5.410000000000000142e+00
-1.418999999999999950e+01
1.181000000000000050e+01
-5.690000000000000391e+00
-3.339999999999999858e+00
1.666000000000000014e+01
-9.669999999999999929e+00
7.019999999999999574e+00
-1.923999999999999844e+01
-1.992999999999999972e+01
1.225000000000000000e+01
1.540000000000000036e+01
1.730999999999999872e+01
-1.164000000000000057e+01
-1.826000000000000156e+01
1.016999999999999993e+01
-5.349999999999999645e+00
-1.140000000000000036e+01
5.480000000000000426e+00
-8.089999999999999858e+00
-0.000000000000000000e+00
2.979999999999999982e+00
-8.669999999999999929e+00
1.816000000000000014e+01
-2.009999999999999787e+00
-2.589999999999999858e+00
1.703000000000000114e+01
4.000000000000000000e+00
-2.779999999999999805e+00
-2.379999999999999893e+00
-1.283999999999999986e+01
8.349999999999999645e+00
7.000000000000000666e-02
-2.367000000000000171e+01
2.979999999999999982e+00
1.239999999999999991e+00
-3.110000000000000142e+01
-1.084999999999999964e+01
-3.770000000000000018e+00
1.507000000000000028e+01
2.812000000000000099e+01
2.330000000000000071e+00
2.453000000000000114e+01
2.330000000000000071e+00
-3.863000000000000256e+01
-1.796000000000000085e+01
-1.698999999999999844e+01
2.330000000000000071e+00
2.555999999999999872e+01
4.500000000000000111e-01
1.050999999999999979e+01
1.008999999999999986e+01
-4.669999999999999929e+00
1.290000000000000036e+01
-6.549999999999999822e+00
-1.033000000000000007e+01
2.350000000000000089e+00
-5.299999999999999822e+00
1.031000000000000050e+01
3.419999999999999929e+00
-1.105000000000000071e+01
3.033999999999999986e+01
2.450000000000000000e+01
3.446000000000000085e+01
2.379199999999999875e+02
-1.622500000000000000e+02
4.730000000000000426e+00
-2.251500000000000057e+02
7.879999999999999716e+01
1.094999999999999929e+01
1.534999999999999964e+01
-5.263000000000000256e+01
-4.440000000000000391e+00
1.679999999999999938e+00
1.175499999999999972e+02
1.889999999999999858e+01
-1.610000000000000098e+00
-4.985999999999999943e+01
-1.219999999999999973e+00
-2.140000000000000124e+00
-3.740000000000000213e+00
2.839000000000000057e+01
2.796000000000000085e+01
-8.060000000000000497e+00
2.194000000000000128e+01
1.179999999999999938e+00
1.155000000000000071e+01
7.500000000000000000e-01
-4.150000000000000355e+00
3.330000000000000071e+00
-1.259999999999999964e+01
-4.450000000000000178e+00
1.571000000000000085e+01
3.990000000000000213e+00
-7.719999999999999751e+00
1.140000000000000036e+01
-6.940000000000000391e+00
6.599999999999999645e+00
1.019999999999999929e+01
1.588000000000000078e+01
-1.015000000000000036e+01
-4.520000000000000284e+01
-3.828000000000000114e+01
2.103000000000000114e+01
2.567999999999999972e+01
-3.729999999999999982e+00
1.290000000000000036e+00
-1.564000000000000057e+01
7.700000000000000178e-01
1.687000000000000099e+01
-1.729999999999999982e+00
8.539999999999999147e+00
-8.400000000000000355e+00
9.200000000000000400e-01
8.449999999999999289e+00
1.729999999999999982e+00
-1.870000000000000107e+00
-2.669999999999999929e+00
-5.730000000000000426e+00
1.298000000000000043e+01
-4.570000000000000284e+00
-2.370000000000000107e+00
2.500000000000000000e-01
-4.290000000000000036e+00
3.979999999999999982e+00
5.379999999999999893e+00
-5.900000000000000355e+00
8.100000000000000533e-01
4.169999999999999929e+00
-2.259999999999999787e+00
3.430000000000000160e+00
-5.570000000000000284e+00
-2.189999999999999947e+00
5.129999999999999893e+00
-2.899999999999999911e+00
2.500000000000000000e-01
2.919999999999999929e+00
-7.910000000000000142e+00
1.199999999999999956e-01
2.439999999999999947e+00
-6.160000000000000142e+00
-2.620000000000000107e+00
-5.759999999999999787e+00
2.740000000000000213e+00
-1.252999999999999936e+01
2.339999999999999858e+00
6.370000000000000107e+00
-3.990000000000000213e+00
-2.040000000000000036e+00
1.047000000000000064e+01
-1.679999999999999938e+00
2.640000000000000124e+00
8.210000000000000853e+00
-4.809999999999999609e+00
-5.419999999999999929e+00
5.040000000000000036e+00
-4.110000000000000320e+00
-3.540000000000000036e+00
7.379999999999999893e+00
1.570000000000000062e+00
-2.099999999999999922e-01
4.099999999999999645e+00
-9.919999999999999929e+00
-2.979999999999999982e+00
4.389999999999999680e+00
3.310000000000000053e+00
5.600000000000000533e-01
5.870000000000000107e+00
-3.099999999999999978e-01
2.279999999999999805e+00
7.740000000000000213e+00
1.959999999999999964e+00
-1.560999999999999943e+01
3.040000000000000036e+00
2.000000000000000042e-02
1.283000000000000007e+01
1.185999999999999943e+01
-1.689999999999999947e+00
-1.072000000000000064e+01
-7.549999999999999822e+00
-1.549000000000000021e+01
-2.350000000000000089e+00
-6.240000000000000213e+00
1.290000000000000036e+01
3.058999999999999986e+01
2.800000000000000266e-01
-3.149999999999999911e+00
-1.386999999999999922e+01
-1.413000000000000078e+01
5.000000000000000000e-01
1.885999999999999943e+01
2.859999999999999876e+00
6.480000000000000426e+00
1.389999999999999902e+00
-1.511999999999999922e+01
9.419999999999999929e+00
7.599999999999999645e+00
-5.330000000000000071e+00
-2.620000000000000107e+00
2.319999999999999840e+00
-1.969999999999999973e+00
5.370000000000000107e+00
4.809999999999999609e+00
-7.969999999999999751e+00
-7.059999999999999609e+00
2.023999999999999844e+01
-1.350999999999999979e+01
-1.186999999999999922e+01
7.790000000000000036e+00
-7.700000000000000178e+00
2.859999999999999876e+00
6.980000000000000426e+00
-7.750000000000000000e+00
-1.770000000000000018e+00
9.250000000000000000e+00
-2.689999999999999947e+00
4.089999999999999858e+00
-1.899999999999999911e+00
-6.339999999999999858e+00
7.000000000000000000e+00
-1.400000000000000133e-01
-2.209999999999999964e+00
1.844000000000000128e+01
7.879999999999999893e+00
3.540000000000000036e+00
-7.269999999999999574e+00
1.240000000000000036e+01
-5.500000000000000000e+00
6.250000000000000000e+00
-2.580000000000000071e+00
-6.410000000000000142e+00
-1.366999999999999993e+01
4.950000000000000178e+00
-2.966000000000000014e+01
1.499999999999999944e-01
3.896999999999999886e+01
-2.100000000000000089e+00
-1.426999999999999957e+01
-5.200000000000000178e+00
6.099999999999999645e+00
-5.839999999999999858e+00
-1.169999999999999929e+00
3.319999999999999840e+00
-5.490000000000000213e+00
1.080000000000000071e+00
6.669999999999999929e+00
-6.080000000000000071e+00
2.060000000000000053e+00
1.780000000000000027e+00
-8.929999999999999716e+00
6.599999999999999645e+00
3.009999999999999787e+00
-1.009999999999999964e+01
5.389999999999999680e+00
3.189999999999999947e+00
-6.639999999999999680e+00
8.970000000000000639e+00
-6.300000000000000044e-01
-8.089999999999999858e+00
5.120000000000000107e+00
-4.820000000000000284e+00
-3.600000000000000089e+00
6.889999999999999680e+00
-2.450000000000000178e+00
1.300000000000000044e-01
3.240000000000000213e+00
-5.120000000000000107e+00
5.169999999999999929e+00
1.600000000000000089e+00
-6.660000000000000142e+00
3.950000000000000178e+00
-1.149999999999999911e+00
-4.929999999999999716e+00
4.179999999999999716e+00
-2.109999999999999876e+00
-1.000000000000000056e-01
6.230000000000000426e+00
-3.609999999999999876e+00
3.540000000000000036e+00
1.790000000000000036e+00
-7.030000000000000249e+00
3.390000000000000124e+00
-3.800000000000000044e-01
-4.889999999999999680e+00
6.139999999999999680e+00
-2.799999999999999822e+00
-1.110000000000000098e+00
5.690000000000000391e+00
-2.040000000000000036e+00
1.149999999999999911e+00
3.689999999999999947e+00
-5.280000000000000249e+00
2.620000000000000107e+00
1.669999999999999929e+00
-8.160000000000000142e+00
5.990000000000000213e+00
-4.699999999999999734e-01
-6.169999999999999929e+00
5.589999999999999858e+00
-1.679999999999999938e+00
-8.399999999999999689e-01
6.429999999999999716e+00
-3.799999999999999822e+00
3.169999999999999929e+00
1.820000000000000062e+00
-7.950000000000000178e+00
6.780000000000000249e+00
2.200000000000000011e-01
-5.969999999999999751e+00
6.750000000000000000e+00
-3.600000000000000089e+00
2.000000000000000000e+00
4.139999999999999680e+00
-5.879999999999999893e+00
2.279999999999999805e+00
-1.689999999999999947e+00
-6.769999999999999574e+00
7.940000000000000391e+00
-4.019999999999999574e+00
-1.258000000000000007e+01
8.259999999999999787e+00
-2.870000000000000107e+00
1.094999999999999929e+01
5.910000000000000142e+00
1.642000000000000171e+01
-1.411999999999999922e+01
-3.417999999999999972e+01
2.144000000000000128e+01
1.873000000000000043e+01
-2.732999999999999829e+01
2.750000000000000000e+00
2.419999999999999929e+00
-7.700000000000000178e-01
1.616000000000000014e+01
-1.199999999999999956e+00
1.100999999999999979e+01
-7.980000000000000426e+00
-1.172000000000000064e+01
2.410000000000000142e+00
-2.017000000000000171e+01
7.429999999999999716e+00
3.142999999999999972e+01
5.057999999999999829e+01
-8.154999999999999716e+01
-1.998999999999999844e+01
-3.990999999999999659e+01
8.750000000000000000e+00
2.609999999999999876e+00
1.601000000000000156e+01
6.990000000000000213e+00
-1.322000000000000064e+01
2.196000000000000085e+01
2.428999999999999915e+01
-1.946000000000000085e+01
9.759999999999999787e+00
2.680000000000000160e+00
-6.030000000000000249e+00
7.259999999999999787e+00
-1.586999999999999922e+01
-3.200000000000000067e-01
1.017999999999999972e+01
2.208999999999999986e+01
9.025000000000000000e+01
-4.775999999999999801e+01
-8.128000000000000114e+01
-2.013499999999999943e+02
2.072500000000000000e+02
2.720000000000000195e+00
-4.335000000000000142e+01
-6.050000000000000000e+01
1.043999999999999950e+01
1.304699999999999989e+02
5.235000000000000142e+01
7.719999999999999751e+00
-6.848000000000000398e+01
-3.364999999999999858e+01
-6.374000000000000199e+01
8.726000000000000512e+01
-2.512000000000000099e+01
-1.166999999999999993e+01
-4.902000000000000313e+01
2.709999999999999964e+00
6.014000000000000057e+01
-3.997999999999999687e+01
-2.021999999999999886e+01
-1.237000000000000028e+02
1.673000000000000043e+01
-4.285000000000000142e+01
-2.289000000000000057e+01
-5.163000000000000256e+01
3.113799999999999955e+02
-1.747899999999999920e+02
5.181000000000000227e+01
4.335000000000000142e+01
-1.746999999999999886e+01
1.111999999999999922e+01
1.152999999999999936e+01
-1.223100000000000023e+02
5.064999999999999858e+01
5.645000000000000284e+01
6.959999999999999964e+00
-1.069899999999999949e+02
-4.024000000000000199e+01
4.829999999999999716e+01
1.034399999999999977e+02
4.469999999999999751e+00
2.764999999999999858e+01
-2.046999999999999886e+01
4.707999999999999829e+01
3.103000000000000114e+01
5.056000000000000227e+01
-4.393999999999999773e+01
-1.230000000000000071e+01
8.589999999999999858e+00
-5.613000000000000256e+01
-4.906000000000000227e+01
-1.169999999999999929e+01
2.068700000000000045e+02
3.363000000000000256e+01
7.673999999999999488e+01
2.121999999999999886e+01
-3.320500000000000114e+02
-3.379999999999999716e+01
-2.726000000000000156e+01
1.052300000000000040e+02
3.379999999999999893e+00
8.230000000000000426e+00
-7.020999999999999375e+01
-9.199999999999999289e+00
3.080999999999999872e+01
7.939000000000000057e+01
-5.824000000000000199e+01
-1.198400000000000034e+02
2.580000000000000071e+01
-4.870000000000000284e+01
-3.502000000000000313e+01
9.831000000000000227e+01
-4.178999999999999915e+01
-6.731999999999999318e+01
1.500000000000000000e+02
4.620000000000000107e+00
-1.149000000000000021e+01
-3.196000000000000085e+01
-1.966000000000000014e+01
2.160000000000000142e+00
1.948000000000000043e+01
-2.792000000000000171e+01
5.730000000000000426e+00
-8.769999999999999574e+00
1.468999999999999950e+01
1.072000000000000064e+01
-6.200999999999999801e+01
-1.600300000000000011e+02
8.453000000000000114e+01
6.567000000000000171e+01
4.835999999999999943e+01
5.919999999999999929e+00
-1.289000000000000057e+01
5.543999999999999773e+01
-2.801000000000000156e+01
-8.314000000000000057e+01
-2.967999999999999972e+01
1.778000000000000114e+01
2.405999999999999872e+01
-5.446000000000000085e+01
-1.367500000000000000e+02
6.039999999999999858e+01
-6.195000000000000284e+01
1.363000000000000078e+01
1.615500000000000114e+02
-5.721000000000000085e+01
2.389999999999999858e+01
1.502199999999999989e+02
1.502100000000000080e+02
5.289999999999999858e+01
-9.993000000000000682e+01
3.382000000000000028e+01
-1.062199999999999989e+02
-1.333000000000000007e+01
2.155000000000000071e+01
-2.251000000000000156e+01
3.240000000000000213e+00
3.085999999999999943e+01
6.776999999999999602e+01
-6.939000000000000057e+01
-1.196000000000000085e+01
-9.078000000000000114e+01
-4.153000000000000114e+01
3.328000000000000114e+01
-1.358600000000000136e+02
1.028999999999999915e+01
8.431999999999999318e+01
-5.478000000000000114e+01
-5.075999999999999801e+01
4.303000000000000114e+01
-2.141000000000000014e+01
-7.125000000000000000e+01
-2.600000000000000000e+01
1.335999999999999943e+02
9.943999999999999773e+01
-1.089300000000000068e+02
5.160000000000000142e+01
2.735999999999999943e+01
4.396000000000000085e+01
-1.880000000000000071e+01
4.254999999999999716e+01
-2.189999999999999947e+00
-3.667999999999999972e+01
6.052000000000000313e+01
-7.009000000000000341e+01
-2.398999999999999844e+01
5.618999999999999773e+01
-4.296000000000000085e+01
-8.145000000000000284e+01
5.452000000000000313e+01
3.256000000000000227e+01
2.782000000000000028e+01
2.628999999999999915e+01
-6.973000000000000398e+01
1.039099999999999966e+02
4.832000000000000028e+01
3.402000000000000313e+01
-6.928000000000000114e+01
1.128199999999999932e+02
-6.520999999999999375e+01
4.999000000000000199e+01
9.192000000000000171e+01
-8.906999999999999318e+01
7.945999999999999375e+01
-4.203000000000000114e+01
-5.300000000000000000e+01
-8.859999999999999432e+00
2.160000000000000142e+00
-1.333400000000000034e+02
-1.810500000000000114e+02
2.332100000000000080e+02
2.072599999999999909e+02
-2.437299999999999898e+02
-2.963999999999999773e+02
-7.756999999999999318e+01
1.032999999999999972e+02
1.434099999999999966e+02
-2.896999999999999886e+02
2.189199999999999875e+02
5.278000000000000114e+01
-1.894300000000000068e+02
7.870000000000000284e+01
1.093400000000000034e+02
8.403000000000000114e+01
-3.757000000000000028e+01
-1.117699999999999960e+02
-2.607000000000000028e+01
7.450000000000000178e+00
5.929999999999999716e+00
7.942000000000000171e+01
2.842999999999999972e+01
-1.205199999999999960e+02
-7.631000000000000227e+01
1.847299999999999898e+02
-2.150099999999999909e+02
1.179500000000000028e+02
4.309999999999999609e+00
-2.378600000000000136e+02
1.721500000000000057e+02
9.929999999999999716e+01
1.982000000000000028e+01
1.074000000000000021e+01
9.869999999999999218e+00
-5.870000000000000107e+00
-5.975000000000000000e+01
2.321999999999999886e+01
-1.703999999999999915e+01
-5.902000000000000313e+01
-3.754999999999999716e+01
3.423000000000000114e+02
-1.874399999999999977e+02
-2.819999999999999929e+01
1.855800000000000125e+02
-1.689000000000000057e+01
-4.835000000000000142e+01
1.142199999999999989e+02
-9.009999999999999432e+01
-2.217999999999999972e+01
-3.518999999999999773e+01
-2.891000000000000014e+01
4.299999999999999822e+00
3.008999999999999986e+01
-1.717700000000000102e+02
-2.356699999999999875e+02
1.265400000000000063e+02
1.083499999999999943e+02
-2.258999999999999986e+01
-4.738000000000000256e+01
8.864000000000000057e+01
-9.812000000000000455e+01
-7.065000000000000568e+01
3.322999999999999687e+01
5.240999999999999659e+01
2.007000000000000028e+01
4.392999999999999972e+01
1.188000000000000078e+01
4.367999999999999972e+01
-1.656899999999999977e+02
1.568000000000000114e+02
-4.982000000000000028e+01
-1.047000000000000064e+01
4.400000000000000000e+01
-2.458999999999999986e+01
3.796999999999999886e+01
-6.879999999999999716e+01
1.261099999999999994e+02
-8.515000000000000568e+01
3.779999999999999716e+01
-5.064000000000000057e+01
-4.850000000000000000e+01
8.381999999999999318e+01
-1.163900000000000006e+02
5.161999999999999744e+01
-1.998000000000000043e+01
-1.357000000000000028e+01
-3.169999999999999929e+00
1.146000000000000085e+01
-5.599999999999999645e+00
3.282999999999999829e+01
-9.550000000000000711e+00
-2.900000000000000000e+01
8.387000000000000455e+01
-8.201999999999999602e+01
-1.789999999999999858e+01
-2.340900000000000034e+02
1.098000000000000043e+01
1.354600000000000080e+02
2.192299999999999898e+02
5.750000000000000000e+01
-2.976999999999999886e+02
-3.968299999999999841e+02
2.570500000000000114e+02
2.635000000000000000e+02
2.382400000000000091e+02
7.545999999999999375e+01
-9.215999999999999659e+01
-4.308600000000000136e+02
1.741000000000000014e+01
3.997999999999999687e+01
3.198700000000000045e+02
-2.142999999999999972e+01
-1.169099999999999966e+02
-2.953000000000000114e+01
-6.771999999999999886e+01
-3.611999999999999744e+01
-3.089000000000000057e+01
-2.357000000000000028e+01
-8.298999999999999488e+01
-2.092400000000000091e+02
1.889999999999999858e+01
1.560500000000000114e+02
2.319600000000000080e+02
1.732100000000000080e+02
9.589000000000000057e+01
-4.160999999999999943e+01
-8.812000000000000455e+01
-1.167600000000000051e+02
-4.778999999999999915e+01
-8.359000000000000341e+01
-2.668100000000000023e+02
2.469900000000000091e+02
3.552400000000000091e+02
-1.896999999999999886e+01
-1.975200000000000102e+02
-2.398999999999999844e+01
3.754999999999999716e+01
5.093999999999999773e+01
-5.488000000000000256e+01
-8.348000000000000398e+01
-5.682999999999999829e+01
3.010999999999999943e+01
-6.684000000000000341e+01
-7.946999999999999886e+01
-1.331699999999999875e+02
4.853999999999999915e+01
2.621100000000000136e+02
-1.521100000000000136e+02
9.287000000000000455e+01
7.706000000000000227e+01
-8.398000000000000398e+01
3.890000000000000124e+00
6.379999999999999893e+00
-8.660000000000000142e+00
-4.511999999999999744e+01
2.219999999999999929e+01
2.430000000000000071e+01
-2.705000000000000071e+01
3.899999999999999911e+00
7.219999999999999751e+00
-1.277999999999999936e+01
1.506000000000000050e+01
3.950000000000000178e+00
-2.687999999999999901e+01
3.979999999999999982e+00
7.030000000000000249e+00
-1.366000000000000014e+01
1.015000000000000036e+01
4.759999999999999787e+00
-1.032000000000000028e+01
9.109999999999999432e+00
5.110000000000000320e+00
-9.650000000000000355e+00
9.429999999999999716e+00
3.779999999999999805e+00
-1.022000000000000064e+01
9.269999999999999574e+00
5.410000000000000142e+00
-7.799999999999999822e+00
7.589999999999999858e+00
3.580000000000000071e+00
-8.070000000000000284e+00
1.177999999999999936e+01
2.160000000000000142e+00
-1.214000000000000057e+01
1.211999999999999922e+01
-4.199999999999999845e-01
-9.060000000000000497e+00
7.790000000000000036e+00
-1.669999999999999929e+00
-1.489999999999999991e+00
1.034999999999999964e+01
1.023000000000000043e+01
8.250000000000000000e+00
-7.029000000000000625e+01
8.198000000000000398e+01
7.290000000000000036e+00
-9.362999999999999545e+01
4.514000000000000057e+01
1.286399999999999864e+02
2.350000000000000089e+00
4.877000000000000313e+01
-1.591200000000000045e+02
-2.254399999999999977e+02
3.110799999999999841e+02
3.593999999999999773e+01
-1.294499999999999886e+02
-8.104000000000000625e+01
-1.225000000000000000e+01
-2.087000000000000099e+01
-1.478600000000000136e+02
2.079600000000000080e+02
-1.050999999999999943e+02
1.200900000000000034e+02
2.387899999999999920e+02
1.228900000000000006e+02
-5.852000000000000313e+01
1.411599999999999966e+02
-2.413600000000000136e+02
-2.890400000000000205e+02
1.389699999999999989e+02
2.643000000000000114e+02
2.678100000000000023e+02
-4.636999999999999744e+01
-5.542200000000000273e+02
-5.417999999999999972e+01
1.596800000000000068e+02
1.324000000000000057e+02
3.361999999999999744e+01
8.764000000000000057e+01
-1.774199999999999875e+02
-7.215999999999999659e+01
2.023499999999999943e+02
-2.156500000000000057e+02
-1.379600000000000080e+02
1.142099999999999937e+02
4.520000000000000284e+01
5.403000000000000114e+01
1.341000000000000014e+01
-2.509999999999999787e+00
-2.428999999999999915e+01
2.210000000000000142e+01
-4.627000000000000313e+01
6.009999999999999787e+00
4.297999999999999687e+01
-6.199999999999999956e-01
-1.536999999999999922e+01
-4.040000000000000036e+00
-4.649000000000000199e+01
1.321000000000000085e+01
2.651000000000000156e+01
-1.739999999999999858e+01
1.038000000000000078e+01
1.333000000000000007e+01
1.415000000000000036e+01
-2.807999999999999829e+01
-1.418999999999999950e+01
-8.310000000000000497e+00
-2.476000000000000156e+01
3.584000000000000341e+01
1.405000000000000071e+01
-1.494999999999999929e+01
1.264000000000000057e+01
-6.389999999999999680e+00
4.870000000000000107e+00
1.000000000000000000e+00
-1.116000000000000014e+01
1.556000000000000050e+01
-5.660000000000000142e+00
-6.830000000000000071e+00
9.339999999999999858e+00
-8.710000000000000853e+00
-3.069999999999999840e+00
2.719000000000000128e+01
-1.524000000000000021e+01
4.009999999999999787e+00
8.359999999999999432e+00
-3.060000000000000053e+00
4.450000000000000178e+00
5.200000000000000178e-01
-5.209999999999999964e+00
4.419999999999999929e+00
1.080000000000000071e+00
-5.629999999999999893e+00
2.450000000000000178e+00
9.399999999999999467e-01
-8.839999999999999858e+00
8.429999999999999716e+00
-2.049999999999999822e+00
-4.589999999999999858e+00
9.880000000000000782e+00
-2.200000000000000011e-01
-6.830000000000000071e+00
5.400000000000000355e+00
-3.339999999999999858e+00
-8.720000000000000639e+00
7.320000000000000284e+00
-2.099999999999999922e-01
4.269999999999999574e+00
4.093999999999999773e+01
9.410999999999999943e+01
-4.505899999999999750e+02
1.506100000000000136e+02
4.947999999999999687e+01
1.872800000000000011e+02
1.040799999999999983e+02
-3.318799999999999955e+02
-8.954000000000000625e+01
6.014999999999999858e+01
2.619000000000000128e+01
1.282000000000000028e+01
5.660000000000000142e+00
-7.259999999999999787e+00
-2.189999999999999947e+00
7.750000000000000000e+00
6.530000000000000249e+00
1.041000000000000014e+01
-1.117999999999999972e+01
-5.759999999999999787e+00
3.479999999999999982e+00
-2.760999999999999943e+01
3.339999999999999858e+00
2.219999999999999929e+01
-7.120000000000000107e+00
-4.064999999999999858e+01
1.166000000000000014e+01
7.230000000000000426e+00
4.022999999999999687e+01
4.403999999999999915e+01
2.890000000000000124e+00
-1.060000000000000053e+00
-1.134999999999999964e+01
5.277000000000000313e+01
1.889999999999999858e+01
2.446999999999999886e+01
1.900000000000000000e+01
5.357999999999999829e+01
1.379999999999999893e+00
2.085000000000000142e+01
-4.204999999999999716e+01
-2.348000000000000043e+01
-9.943999999999999773e+01
3.377000000000000313e+01
1.064699999999999989e+02
2.283999999999999986e+01
1.058000000000000007e+01
1.377999999999999936e+01
8.295000000000000284e+01
-1.522899999999999920e+02
5.334000000000000341e+01
-9.937999999999999545e+01
4.753999999999999915e+01
-4.164999999999999858e+01
-4.639999999999999858e+01
8.929000000000000625e+01
-4.642000000000000171e+01
-5.956000000000000227e+01
1.092300000000000040e+02
1.994000000000000128e+01
-1.078100000000000023e+02
8.400000000000000355e+00
-2.192999999999999972e+01
-1.755000000000000071e+01
-6.121000000000000085e+01
6.434999999999999432e+01
-5.463000000000000256e+01
6.919999999999999929e+00
9.396999999999999886e+01
-8.529999999999999716e+01
-7.885999999999999943e+01
1.440000000000000036e+01
1.367199999999999989e+02
9.629999999999999716e+01
-3.249800000000000182e+02
3.671999999999999886e+01
2.492299999999999898e+02
6.459999999999999432e+01
-2.363000000000000114e+02
1.983000000000000114e+02
1.474000000000000057e+02
-6.670000000000000284e+01
-9.634999999999999432e+01
-2.786100000000000136e+02
5.657100000000000364e+02
-1.262300000000000040e+02
-1.878899999999999864e+02
-5.728999999999999915e+01
-1.289300000000000068e+02
4.893999999999999773e+01
-7.665000000000000568e+01
2.162999999999999901e+01
-2.201999999999999957e+01
7.668000000000000682e+01
5.927000000000000313e+01
1.635000000000000142e+01
8.626000000000000512e+01
5.839999999999999858e+00
4.196000000000000085e+01
-2.298999999999999844e+01
1.091999999999999993e+01
-5.774000000000000199e+01
-1.766000000000000014e+01
5.985999999999999943e+01
3.729999999999999716e+01
5.975000000000000000e+01
-4.663000000000000256e+01
-1.789999999999999858e+01
-5.195000000000000284e+01
5.832999999999999829e+01
-9.710000000000000853e+00
-7.309000000000000341e+01
6.357999999999999829e+01
2.546000000000000085e+01
-1.123000000000000043e+01
4.589999999999999858e+00
4.330000000000000071e+00
1.633999999999999986e+01
1.056000000000000050e+01
4.719999999999999751e+00
-2.171999999999999886e+01
-3.745000000000000284e+01
8.349999999999999645e+00
2.505999999999999872e+01
-9.699999999999999289e+00
2.729999999999999982e+00
8.419999999999999929e+00
-7.839999999999999858e+00
-4.442000000000000171e+01
-3.722999999999999687e+01
2.730999999999999872e+01
4.807000000000000028e+01
-3.107999999999999829e+01
-3.440999999999999659e+01
1.855999999999999872e+01
-8.287000000000000455e+01
2.239000000000000057e+01
2.205000000000000071e+01
-7.830000000000000071e+00
-8.980000000000000426e+00
3.121999999999999886e+01
-1.657999999999999829e+01
-4.929999999999999716e+00
-3.439999999999999858e+01
4.107000000000000028e+01
-5.097999999999999687e+01
-6.700000000000000178e+00
-1.155000000000000071e+01
-9.820000000000000284e+00
2.144999999999999929e+01
-2.180000000000000160e+00
3.270000000000000284e+01
1.327999999999999936e+01
-7.000000000000000000e+00
1.599000000000000021e+01
1.063000000000000078e+01
-6.996999999999999886e+01
4.421999999999999886e+01
-8.525000000000000000e+01
-2.292000000000000171e+01
5.307999999999999829e+01
5.396000000000000085e+01
3.543999999999999773e+01
-8.970000000000000284e+01
-1.280000000000000027e+00
1.564000000000000057e+01
3.160999999999999943e+01
-4.860000000000000320e+00
1.103999999999999915e+01
-7.629999999999999893e+00
-8.769999999999999574e+00
2.528000000000000114e+01
-2.390000000000000124e+00
-1.550000000000000000e+01
5.690000000000000391e+00
6.346000000000000085e+01
-4.018999999999999773e+01
-3.900000000000000133e-01
-3.990000000000000213e+00
2.089999999999999858e+00
1.146000000000000085e+01
-6.440000000000000391e+00
-1.879999999999999893e+00
7.410000000000000142e+00
3.499999999999999778e-01
-2.500000000000000000e+00
6.000000000000000000e+00
-1.257000000000000028e+01
2.200000000000000178e+00
6.500000000000000000e+00
1.397000000000000064e+01
-3.229999999999999716e+01
-5.292999999999999972e+01
2.098999999999999844e+01
6.620000000000000107e+00
-2.137000000000000099e+01
-8.331000000000000227e+01
-8.768999999999999773e+01
-1.946999999999999886e+01
1.898000000000000043e+01
2.373700000000000045e+02
-1.879199999999999875e+02
-5.990000000000000213e+00
6.590999999999999659e+01
-3.631000000000000227e+01
9.480000000000000426e+00
1.777400000000000091e+02
1.984199999999999875e+02
-2.059099999999999966e+02
-7.721999999999999886e+01
-1.353600000000000136e+02
2.381899999999999977e+02
1.280399999999999920e+02
-2.133100000000000023e+02
-1.147199999999999989e+02
4.559999999999999609e+00
2.582999999999999829e+01
6.580000000000000071e+00
2.582000000000000028e+01
7.459999999999999964e+00
-2.212999999999999901e+01
-6.985999999999999943e+01
6.206000000000000227e+01
-0.000000000000000000e+00
8.084000000000000341e+01
-8.990999999999999659e+01
-4.442999999999999972e+01
4.309999999999999609e+00
2.637000000000000099e+01
5.621999999999999886e+01
-4.965999999999999659e+01
-1.983999999999999986e+01
-6.681999999999999318e+01
4.046000000000000085e+01
1.620000000000000107e+00
3.790999999999999659e+01
-4.850000000000000000e+01
-1.962999999999999901e+01
-1.536999999999999922e+01
-2.064000000000000057e+01
-3.082999999999999829e+01
-5.128000000000000114e+01
-8.182999999999999829e+01
1.089399999999999977e+02
7.651000000000000512e+01
-8.695999999999999375e+01
1.951999999999999957e+01
-4.080000000000000071e+00
2.028000000000000114e+01
3.842000000000000171e+01
-5.210999999999999943e+01
-8.170000000000000284e+01
3.636999999999999744e+01
-7.049999999999999822e+00
6.809999999999999609e+00
3.807000000000000028e+01
-1.216000000000000014e+01
7.340000000000000568e+01
-3.903999999999999915e+01
1.937000000000000099e+01
-6.459999999999999964e+00
-3.310000000000000053e+00
2.821999999999999886e+01
5.864999999999999858e+01
5.038000000000000256e+01
-1.227300000000000040e+02
-2.819999999999999840e+00
8.179999999999999716e+00
5.338000000000000256e+01
1.662000000000000099e+01
1.376999999999999957e+01
-1.174000000000000021e+01
-6.302000000000000313e+01
1.280000000000000071e+01
3.485999999999999943e+01
1.733999999999999986e+01
9.509999999999999787e+00
-2.769999999999999929e+01
1.325999999999999979e+01
1.790000000000000036e+00
2.664999999999999858e+01
-1.304300000000000068e+02
1.673999999999999844e+01
9.112999999999999545e+01
2.255999999999999872e+01
4.546000000000000085e+01
-2.788500000000000227e+02
-1.400900000000000034e+02
3.230899999999999750e+02
1.024500000000000028e+02
-3.689000000000000057e+01
7.860999999999999943e+01
4.071999999999999886e+01
3.950000000000000000e+01
9.318000000000000682e+01
1.823899999999999864e+02
-1.670900000000000034e+02
-1.640500000000000114e+02
-6.340999999999999659e+01
-3.485999999999999943e+01
4.992000000000000171e+01
1.780999999999999872e+01
8.485999999999999943e+01
3.829999999999999716e+01
-2.576999999999999957e+01
-2.001999999999999957e+01
-2.728000000000000114e+01
-2.210000000000000142e+01
-1.080000000000000071e+01
-1.760000000000000009e+00
2.380000000000000071e+01
5.910000000000000142e+00
-1.066999999999999993e+01
3.939999999999999947e+00
-3.549999999999999822e+00
-1.475000000000000000e+01
6.099999999999999645e+00
-1.360000000000000098e+00
-1.340000000000000036e+01
1.358000000000000007e+01
5.540000000000000036e+00
-1.500999999999999979e+01
9.490000000000000213e+00
-2.899999999999999911e+00
-2.160000000000000142e+00
7.700000000000000178e+00
-4.570000000000000284e+00
-6.410000000000000142e+00
3.970000000000000195e+00
-3.430000000000000160e+00
-1.199999999999999956e-01
4.259999999999999787e+00
-4.049999999999999822e+00
2.049999999999999822e+00
2.529999999999999805e+00
-6.299999999999999822e+00
2.540000000000000036e+00
-3.099999999999999978e-01
-3.890000000000000124e+00
5.309999999999999609e+00
-1.413000000000000078e+01
2.459999999999999964e+00
5.980000000000000426e+00
-1.870000000000000107e+00
-4.199999999999999845e-01
1.159999999999999920e+00
-3.930000000000000160e+00
7.620000000000000107e+00
2.379999999999999893e+00
3.699999999999999956e-01
6.099999999999999645e+00
-7.070000000000000284e+00
-8.710000000000000853e+00
9.720000000000000639e+00
-1.800000000000000044e+00
-5.240000000000000213e+00
7.650000000000000355e+00
-5.639999999999999680e+00
-1.182000000000000028e+01
3.099999999999999978e-01
6.700000000000000178e+00
-4.769999999999999574e+00
1.280000000000000071e+01
2.040000000000000036e+00
1.149999999999999911e+00
-5.385999999999999943e+01
1.100999999999999979e+01
1.678999999999999915e+01
9.899999999999999911e-01
-1.842999999999999972e+01
-1.050000000000000044e+00
-3.421000000000000085e+01
1.760999999999999943e+01
3.282999999999999829e+01
-1.801000000000000156e+01
1.901999999999999957e+01
-8.943999999999999773e+01
5.809999999999999609e+00
5.740000000000000213e+00
2.407999999999999829e+01
8.299999999999999600e-01
3.763000000000000256e+01
-1.203999999999999915e+01
-9.130000000000000782e+00
4.063000000000000256e+01
-1.027999999999999936e+01
4.324000000000000199e+01
3.493999999999999773e+01
-5.343999999999999773e+01
3.814999999999999858e+01
7.451000000000000512e+01
-5.971799999999999500e+02
2.796100000000000136e+02
1.302199999999999989e+02
4.742000000000000171e+01
-1.765200000000000102e+02
4.738000000000000256e+01
3.360000000000000142e+01
2.750000000000000000e+01
4.449000000000000199e+01
-5.370000000000000284e+01
1.794999999999999929e+01
-1.087500000000000000e+02
9.401999999999999602e+01
2.676000000000000156e+01
6.292999999999999972e+01
-2.351999999999999957e+01
-4.367000000000000171e+01
-4.599999999999999645e+00
2.905000000000000071e+01
-1.166999999999999993e+01
1.241000000000000014e+01
-3.085000000000000142e+01
1.077999999999999936e+01
3.615999999999999659e+01
-1.288799999999999955e+02
6.039999999999999858e+01
5.104999999999999716e+01
2.398899999999999864e+02
-2.104900000000000091e+02
-3.846000000000000085e+01
7.200000000000000178e+00
4.099999999999999645e+00
1.645900000000000034e+02
-4.709000000000000341e+01
-2.042899999999999920e+02
8.293999999999999773e+01
7.143000000000000682e+01
1.273499999999999943e+02
-1.736399999999999864e+02
-1.503700000000000045e+02
1.244500000000000028e+02
1.221099999999999994e+02
-5.075000000000000000e+01
-1.274500000000000028e+02
-6.617000000000000171e+01
8.957999999999999829e+01
1.452299999999999898e+02
-4.800999999999999801e+01
-7.770999999999999375e+01
-5.847999999999999687e+01
2.855000000000000071e+01
1.075600000000000023e+02
-2.903999999999999915e+01
-8.995999999999999375e+01
2.025000000000000000e+01
1.349000000000000021e+01
6.170000000000000284e+01
-2.746999999999999886e+01
-4.517000000000000171e+01
4.463000000000000256e+01
4.684000000000000341e+01
-8.334999999999999432e+01
1.518999999999999950e+01
-6.756000000000000227e+01
8.818999999999999773e+01
7.212999999999999545e+01
-5.924000000000000199e+01
-1.919999999999999929e+00
-5.835999999999999943e+01
8.110999999999999943e+01
8.118000000000000682e+01
-1.003499999999999943e+02
1.328999999999999915e+01
-4.049000000000000199e+01
6.443999999999999773e+01
8.304000000000000625e+01
1.335999999999999943e+01
-3.082999999999999829e+01
1.060999999999999943e+01
1.350999999999999979e+01
-6.479000000000000625e+01
1.123000000000000043e+01
-1.033999999999999986e+01
3.119000000000000128e+01
2.240000000000000213e+00
-2.730000000000000071e+01
-5.000000000000000000e+00
2.048999999999999844e+01
5.167999999999999972e+01
-1.029899999999999949e+02
3.979999999999999716e+01
6.021999999999999886e+01
2.040000000000000036e+00
-4.750000000000000000e+00
-7.034999999999999432e+01
4.571000000000000085e+01
9.560000000000000497e+00
-1.932999999999999829e+01
-1.324000000000000021e+01
1.159999999999999920e+00
2.287000000000000099e+01
1.372000000000000064e+01
7.929999999999999716e+00
2.423999999999999844e+01
-1.082000000000000028e+01
2.989999999999999858e+01
1.633999999999999986e+01
5.702000000000000313e+01
3.404999999999999716e+01
-4.672999999999999687e+01
2.430000000000000071e+01
9.489000000000000057e+01
-9.562999999999999545e+01
-3.211999999999999744e+01
1.550900000000000034e+02
1.191400000000000006e+02
-1.406200000000000045e+02
-2.819999999999999929e+01
1.264000000000000057e+01
1.208700000000000045e+02
-5.404999999999999716e+01
-7.943999999999999773e+01
-2.601000000000000156e+01
9.259999999999999787e+00
-6.000999999999999801e+01
-1.376200000000000045e+02
6.698000000000000398e+01
-1.621000000000000085e+01
6.520000000000000284e+01
1.467899999999999920e+02
-1.290999999999999943e+02
1.007800000000000011e+02
-2.305000000000000071e+01
-2.708999999999999986e+01
6.701000000000000512e+01
3.370000000000000107e+00
-3.856000000000000227e+01
-3.640999999999999659e+01
2.517999999999999972e+01
2.662000000000000099e+01
4.106000000000000227e+01
-9.204999999999999716e+01
5.874000000000000199e+01
-3.035999999999999943e+01
1.694000000000000128e+01
-2.117999999999999972e+01
5.434000000000000341e+01
3.653000000000000114e+01
-1.128799999999999955e+02
-1.427899999999999920e+02
2.669100000000000250e+02
1.610600000000000023e+02
-3.375000000000000000e+01
-6.426000000000000512e+01
-3.092999999999999972e+01
-9.853000000000000114e+01
1.208000000000000007e+01
1.535200000000000102e+02
-2.825000000000000000e+01
-1.852400000000000091e+02
-1.048000000000000043e+01
-4.378000000000000114e+01
-5.272999999999999687e+01
1.072699999999999960e+02
-9.843000000000000682e+01
7.234000000000000341e+01
-5.570000000000000284e+00
-1.459699999999999989e+02
2.101000000000000156e+01
2.721999999999999886e+01
9.949999999999999289e+00
-6.089999999999999858e+00
2.473000000000000043e+01
-7.910000000000000142e+00
-2.390000000000000124e+00
3.114999999999999858e+01
7.599999999999999645e+00
-7.209999999999999432e+01
2.542999999999999972e+01
5.419999999999999929e+00
2.012000000000000099e+01
-3.240000000000000213e+00
-1.438000000000000078e+01
2.096999999999999886e+01
-6.350999999999999801e+01
4.063000000000000256e+01
7.235999999999999943e+01
-1.064300000000000068e+02
8.650000000000000355e+00
-1.341999999999999993e+01
2.026999999999999957e+01
1.064000000000000057e+01
-2.925000000000000000e+01
8.631000000000000227e+01
-1.145199999999999960e+02
4.347999999999999687e+01
4.660000000000000142e+00
-2.292999999999999972e+01
4.325999999999999801e+01
-1.333100000000000023e+02
-6.957999999999999829e+01
7.784999999999999432e+01
1.030100000000000051e+02
-5.171999999999999886e+01
1.774699999999999989e+02
-3.183000000000000114e+02
9.601000000000000512e+01
2.223300000000000125e+02
1.885000000000000000e+02
-2.073400000000000034e+02
-2.541599999999999966e+02
-3.013100000000000023e+02
3.548700000000000045e+02
1.492700000000000102e+02
8.150000000000000355e+00
-9.684999999999999432e+01
-1.785000000000000142e+01
-1.474000000000000021e+01
-1.255000000000000071e+01
1.365300000000000011e+02
2.083999999999999986e+01
-4.938000000000000256e+01
-8.220000000000000284e+01
-6.650000000000000355e+00
-2.451999999999999957e+01
5.171000000000000085e+01
1.676000000000000156e+01
-3.917000000000000171e+01
1.065000000000000036e+01
-3.137999999999999901e+01
1.301999999999999957e+01
-1.439000000000000057e+01
1.166899999999999977e+02
-4.539000000000000057e+01
-3.178999999999999915e+01
8.828000000000000114e+01
1.665300000000000011e+02
9.539000000000000057e+01
-1.195900000000000034e+02
3.167999999999999972e+01
1.770000000000000018e+00
-1.676699999999999875e+02
3.279999999999999805e+00
1.659999999999999920e+00
4.764999999999999858e+01
4.920000000000000284e+01
-9.348000000000000398e+01
-2.705699999999999932e+02
2.446500000000000057e+02
1.581000000000000050e+01
-5.817000000000000171e+01
3.571999999999999886e+01
-4.221000000000000085e+01
-4.143999999999999773e+01
1.091599999999999966e+02
-9.050000000000000711e+00
-1.950000000000000000e+01
1.191999999999999993e+01
4.030000000000000249e+00
-1.591000000000000014e+01
2.653999999999999915e+01
-3.549999999999999822e+00
1.712999999999999901e+01
1.692000000000000171e+01
-1.351999999999999957e+01
-3.540000000000000036e+00
-1.841000000000000014e+01
-5.759999999999999787e+00
-5.580000000000000071e+00
-1.446000000000000085e+01
9.240000000000000213e+00
6.120000000000000107e+00
3.167999999999999972e+01
-1.207999999999999972e+02
-2.290000000000000036e+00
2.089499999999999886e+02
-4.489999999999999858e+01
-1.959999999999999964e+00
-3.728000000000000114e+01
-1.492999999999999972e+01
-1.264000000000000057e+01
-8.073000000000000398e+01
1.621399999999999864e+02
1.733700000000000045e+02
-1.487899999999999920e+02
1.507199999999999989e+02
-1.710000000000000142e+01
5.660999999999999943e+01
5.847999999999999687e+01
4.099999999999999645e+00
1.157500000000000000e+02
-3.339999999999999858e+00
-1.107999999999999972e+02
-3.900000000000000133e-01
1.749099999999999966e+02
2.919000000000000128e+01
-1.399499999999999886e+02
9.321999999999999886e+01
-1.325000000000000000e+01
1.980800000000000125e+02
-3.579999999999999716e+01
2.139999999999999858e+01
7.049999999999999822e+00
1.443600000000000136e+02
-2.967000000000000171e+01
-1.038000000000000078e+01
2.867999999999999972e+01
2.788999999999999773e+02
-2.050900000000000034e+02
-1.189000000000000057e+02
8.984999999999999432e+01
1.766599999999999966e+02
-3.542400000000000091e+02
1.125999999999999943e+02
-7.239000000000000057e+01
1.480399999999999920e+02
3.933500000000000227e+02
-4.838600000000000136e+02
3.458199999999999932e+02
-3.095799999999999841e+02
8.900000000000000355e+00
-2.614000000000000057e+01
-1.119800000000000040e+02
9.145000000000000284e+01
3.047799999999999727e+02
-1.179699999999999989e+02
-2.263600000000000136e+02
6.537999999999999545e+01
1.660900000000000034e+02
2.959999999999999964e+00
2.678999999999999915e+01
9.132999999999999829e+01
-5.352000000000000313e+01
-2.162999999999999901e+01
2.269000000000000128e+01
-3.846000000000000085e+01
1.391000000000000014e+01
2.421000000000000085e+01
4.167000000000000171e+01
2.025000000000000000e+01
8.460000000000000853e+00
3.225999999999999801e+01
-1.401999999999999957e+01
3.635999999999999943e+01
5.436999999999999744e+01
-2.816499999999999773e+02
1.115000000000000036e+01
7.129999999999999893e+00
-8.869999999999999218e+00
3.825000000000000000e+01
-5.690999999999999659e+01
-3.810000000000000142e+01
4.015999999999999659e+01
9.412999999999999545e+01
1.411599999999999966e+02
-2.200399999999999920e+02
-8.992000000000000171e+01
-7.045000000000000284e+01
1.468300000000000125e+02
1.263799999999999955e+02
-1.195799999999999983e+02
-5.296999999999999886e+01
-2.798000000000000043e+01
1.172800000000000011e+02
1.132000000000000028e+02
-1.215699999999999932e+02
-5.969999999999999751e+00
-7.323000000000000398e+01
8.551000000000000512e+01
9.337999999999999545e+01
-1.295800000000000125e+02
-1.250000000000000000e+00
-8.867000000000000171e+01
8.931999999999999318e+01
9.193000000000000682e+01
-1.385200000000000102e+02
2.171000000000000085e+01
-6.854999999999999716e+01
6.161999999999999744e+01
8.857999999999999829e+01
-9.184999999999999432e+01
1.370000000000000107e+00
-2.257999999999999829e+01
2.585000000000000142e+01
6.096999999999999886e+01
2.410999999999999943e+01
-1.256000000000000050e+01
-4.507000000000000028e+01
-1.044999999999999929e+01
7.176999999999999602e+01
9.773000000000000398e+01
-1.007000000000000028e+02
-1.748999999999999844e+01
1.959999999999999964e+00
3.688000000000000256e+01
9.362000000000000455e+01
-1.950099999999999909e+02
-1.166999999999999993e+01
3.228000000000000114e+01
5.940000000000000391e+00
1.061899999999999977e+02
-1.692500000000000000e+02
-1.049399999999999977e+02
1.265799999999999983e+02
4.352000000000000313e+01
9.160000000000000142e+00
-1.018499999999999943e+02
-2.851999999999999957e+01
9.323000000000000398e+01
5.035999999999999943e+01
-3.403999999999999915e+01
-4.460999999999999943e+01
-2.096999999999999886e+01
1.124899999999999949e+02
8.439000000000000057e+01
-1.737700000000000102e+02
3.335000000000000142e+01
-1.028299999999999983e+02
9.137999999999999545e+01
9.645999999999999375e+01
-1.684900000000000091e+02
-2.767999999999999972e+01
2.796000000000000085e+01
1.040499999999999972e+02
1.048299999999999983e+02
-1.731100000000000136e+02
-1.202699999999999960e+02
8.279000000000000625e+01
3.860999999999999943e+01
4.967999999999999972e+01
-8.623999999999999488e+01
-6.789000000000000057e+01
8.257999999999999829e+01
6.325999999999999801e+01
-3.213000000000000256e+01
-7.918000000000000682e+01
8.320000000000000284e+00
9.121999999999999886e+01
3.470000000000000284e+01
-7.599999999999999645e+00
-9.840000000000000568e+01
2.023000000000000043e+01
9.115000000000000568e+01
9.843000000000000682e+01
-1.401699999999999875e+02
-5.146000000000000085e+01
5.182999999999999829e+01
5.802000000000000313e+01
6.067000000000000171e+01
-2.139099999999999966e+02
-8.599999999999999645e+00
9.579999999999999716e+01
8.068999999999999773e+01
-5.845000000000000284e+01
-8.273999999999999488e+01
-4.049999999999999822e+00
8.948000000000000398e+01
8.754999999999999716e+01
-1.601500000000000057e+02
-2.200000000000000011e-01
-1.603000000000000114e+01
7.190000000000000568e+01
1.004599999999999937e+02
-2.365800000000000125e+02
-1.458000000000000007e+01
7.504999999999999716e+01
6.959000000000000341e+01
-2.755999999999999872e+01
-5.464999999999999858e+01
-8.460000000000000853e+00
6.218999999999999773e+01
8.392000000000000171e+01
-8.818999999999999773e+01
-5.152000000000000313e+01
8.929999999999999716e+00
5.236999999999999744e+01
7.417000000000000171e+01
-1.017300000000000040e+02
-3.465999999999999659e+01
1.076999999999999957e+01
4.529999999999999716e+01
7.712000000000000455e+01
-1.349300000000000068e+02
-7.192000000000000171e+01
7.410999999999999943e+01
5.646000000000000085e+01
-1.514300000000000068e+02
2.182000000000000028e+01
-8.100000000000000533e-01
-1.141000000000000014e+01
-6.990000000000000213e+00
-2.194999999999999929e+01
-8.557999999999999829e+01
-2.626000000000000227e+02
4.725799999999999841e+02
1.673400000000000034e+02
-1.614600000000000080e+02
-8.945999999999999375e+01
-1.007399999999999949e+02
6.340999999999999659e+01
1.481999999999999886e+02
-3.026499999999999773e+02
4.018999999999999773e+01
-7.923999999999999488e+01
2.394999999999999929e+01
6.856000000000000227e+01
-1.100600000000000023e+02
-2.549999999999999822e+00
7.450000000000000178e+00
4.542999999999999972e+01
1.247000000000000064e+01
-1.062399999999999949e+02
-5.915999999999999659e+01
6.809000000000000341e+01
7.587999999999999545e+01
-1.065199999999999960e+02
-1.150999999999999979e+01
1.853000000000000114e+01
4.206000000000000227e+01
9.298000000000000398e+01
-1.731500000000000057e+02
-6.439000000000000057e+01
8.220999999999999375e+01
5.343999999999999773e+01
5.432000000000000028e+01
-1.434199999999999875e+02
5.269999999999999574e+00
8.731999999999999318e+01
4.525999999999999801e+01
-5.059000000000000341e+01
-5.410999999999999943e+01
2.992000000000000171e+01
5.643999999999999773e+01
6.309000000000000341e+01
-2.282999999999999829e+01
-5.903999999999999915e+01
-1.161999999999999922e+01
8.768000000000000682e+01
1.256500000000000057e+02
-2.623799999999999955e+02
-5.395000000000000284e+01
4.690999999999999659e+01
4.429999999999999716e+01
6.801000000000000512e+01
-4.596999999999999886e+01
4.067999999999999972e+01
-5.959999999999999964e+00
2.592000000000000171e+01
2.960999999999999943e+01
-3.267000000000000171e+01
-6.510999999999999943e+01
3.997999999999999687e+01
-1.033499999999999943e+02
1.021500000000000057e+02
-1.739000000000000057e+02
-1.437899999999999920e+02
8.571999999999999886e+01
7.712000000000000455e+01
-8.715000000000000568e+01
6.179999999999999716e+00
-1.199000000000000021e+01
8.193000000000000682e+01
7.771999999999999886e+01
-1.248299999999999983e+02
-5.907000000000000028e+01
4.335999999999999943e+01
7.679999999999999716e+01
8.381999999999999318e+01
-1.366299999999999955e+02
-7.273999999999999488e+01
1.267099999999999937e+02
6.839000000000000057e+01
3.395000000000000284e+01
-1.618400000000000034e+02
2.562000000000000099e+01
8.669999999999999929e+00
2.985000000000000142e+01
-1.129999999999999893e+00
-5.457999999999999829e+01
-5.671999999999999886e+01
-2.044000000000000057e+02
2.421999999999999886e+02
2.351100000000000136e+02
3.956000000000000227e+01
-3.889999999999999858e+01
-4.585000000000000142e+01
-1.989999999999999991e+00
5.953999999999999915e+01
5.132999999999999829e+01
1.533000000000000007e+01
-4.600999999999999801e+01
1.964999999999999858e+01
-1.794499999999999886e+02
-5.789000000000000057e+01
1.055199999999999960e+02
-2.582999999999999829e+01
-3.931000000000000227e+01
1.111299999999999955e+02
-2.160399999999999920e+02
-4.217000000000000171e+01
1.102399999999999949e+02
5.410999999999999943e+01
2.115200000000000102e+02
-2.934300000000000068e+02
-6.700000000000000400e-01
3.299999999999999822e+00
3.035000000000000142e+01
1.980800000000000125e+02
-1.724199999999999875e+02
-2.798000000000000043e+01
8.609999999999999432e+00
8.190999999999999659e+01
5.413000000000000256e+01
-1.012900000000000063e+02
-4.554999999999999716e+01
3.872999999999999687e+01
1.107099999999999937e+02
4.371999999999999886e+01
-1.536500000000000057e+02
-3.752000000000000313e+01
1.143499999999999943e+02
1.213100000000000023e+02
-8.698999999999999488e+01
-4.953000000000000114e+01
-7.535999999999999943e+01
9.975000000000000000e+01
1.242800000000000011e+02
-1.607199999999999989e+02
-9.184999999999999432e+01
6.246000000000000085e+01
9.232999999999999829e+01
8.540999999999999659e+01
-2.005399999999999920e+02
-5.297999999999999687e+01
8.914000000000000057e+01
7.179999999999999716e+01
2.976000000000000156e+01
-6.929000000000000625e+01
-9.681000000000000227e+01
1.294399999999999977e+02
1.024899999999999949e+02
-1.365800000000000125e+02
1.871000000000000085e+01
-1.172900000000000063e+02
1.172399999999999949e+02
9.393999999999999773e+01
-1.149099999999999966e+02
-4.292999999999999972e+01
-7.057999999999999829e+01
3.009999999999999787e+00
1.994999999999999929e+01
1.130000000000000071e+01
-3.720000000000000195e+00
-4.149000000000000199e+01
1.163000000000000078e+01
6.632999999999999829e+01
6.370000000000000107e+00
-1.149999999999999911e+00
4.839999999999999858e+00
8.620000000000000284e+01
-3.792000000000000171e+01
1.561999999999999922e+01
-3.750000000000000000e+00
-1.519999999999999929e+01
5.442999999999999972e+01
-5.111999999999999744e+01
-1.090900000000000034e+02
3.467999999999999972e+01
9.432999999999999829e+01
-1.913000000000000114e+02
4.940000000000000391e+00
1.800999999999999943e+02
-1.685600000000000023e+02
-1.935800000000000125e+02
4.835999999999999943e+01
-7.864000000000000057e+01
-5.160000000000000142e+00
2.357000000000000028e+01
-7.070000000000000284e+00
2.744999999999999929e+01
-3.169999999999999929e+00
4.059999999999999609e+00
1.646000000000000085e+01
-5.660000000000000142e+00
-2.448000000000000043e+01
9.028000000000000114e+01
6.846999999999999886e+01
1.991699999999999875e+02
-1.575800000000000125e+02
-1.778300000000000125e+02
1.914199999999999875e+02
-1.235300000000000011e+02
-3.520000000000000018e+00
-5.834000000000000341e+01
1.491800000000000068e+02
7.321999999999999886e+01
-1.885500000000000114e+02
-1.992999999999999972e+01
2.971999999999999886e+01
-9.806000000000000227e+01
3.592000000000000171e+01
-1.103499999999999943e+02
4.822999999999999687e+01
4.386700000000000159e+02
-1.166099999999999994e+02
-1.694399999999999977e+02
-8.619999999999999218e+00
7.726999999999999602e+01
-6.354999999999999716e+01
-1.810000000000000142e+01
4.353000000000000114e+01
2.457999999999999829e+01
-7.698999999999999488e+01
4.017999999999999972e+01
3.353000000000000114e+01
-4.606000000000000227e+01
-4.943999999999999773e+01
-5.932000000000000028e+01
-3.953000000000000114e+01
1.392100000000000080e+02
8.226000000000000512e+01
-3.877000000000000313e+01
4.142999999999999972e+01
1.942999999999999972e+01
5.222999999999999687e+01
1.284399999999999977e+02
2.475099999999999909e+02
-2.392100000000000080e+02
-8.007999999999999829e+01
-4.446000000000000085e+01
-2.269999999999999929e+01
-2.807000000000000028e+01
3.020000000000000018e+00
8.751999999999999602e+01
-1.292999999999999972e+01
2.053999999999999915e+01
-4.789000000000000057e+01
-5.075000000000000000e+01
7.750000000000000000e+00
8.975000000000000000e+01
-1.355000000000000071e+01
-1.826500000000000057e+02
1.510300000000000011e+02
-6.979000000000000625e+01
7.576999999999999602e+01
5.363000000000000256e+01
-5.500000000000000000e+01
-7.618999999999999773e+01
2.351999999999999957e+01
3.260000000000000142e+01
-3.615999999999999659e+01
-3.689999999999999947e+00
1.975000000000000000e+01
-1.483000000000000007e+01
-8.320000000000000284e+00
9.730000000000000426e+00
-4.750000000000000000e+00
-3.549999999999999822e+00
3.950000000000000178e+00
3.282999999999999829e+01
4.153000000000000114e+01
-6.200999999999999801e+01
-1.119099999999999966e+02
4.478999999999999915e+01
1.628000000000000114e+01
2.101000000000000156e+01
4.189999999999999858e+01
-1.608999999999999986e+01
2.062999999999999901e+01
8.980000000000000426e+00
2.310999999999999943e+01
-1.250000000000000000e+00
5.240000000000000213e+00
6.820000000000000284e+00
-8.380000000000000782e+00
-3.919999999999999929e+00
1.182000000000000028e+01
-4.425000000000000000e+01
2.767999999999999972e+01
-4.017000000000000171e+01
2.214000000000000057e+01
2.055999999999999872e+01
-8.769999999999999574e+00
-8.050000000000000711e+00
-1.124000000000000021e+01
-7.849999999999999645e+00
-1.728999999999999915e+01
1.714999999999999858e+01
8.800000000000000044e-01
-1.310999999999999943e+01
-1.899999999999999911e+00
-1.233999999999999986e+01
2.910000000000000142e+00
2.859999999999999876e+00
-1.372000000000000064e+01
1.323000000000000043e+01
6.400000000000000133e-01
-7.669999999999999929e+00
1.228999999999999915e+01
2.270000000000000018e+00
1.159999999999999920e+00
2.000000000000000000e+00
-9.580000000000000071e+00
5.100000000000000089e-01
-6.500000000000000222e-01
-1.584999999999999964e+01
4.190000000000000391e+00
4.169999999999999929e+00
-1.441000000000000014e+01
1.092999999999999972e+01
8.240000000000000213e+00
-1.601999999999999957e+01
5.150000000000000355e+00
-2.709999999999999964e+00
-1.021000000000000085e+01
1.347000000000000064e+01
-1.729999999999999982e+00
1.379999999999999893e+00
7.980000000000000426e+00
-1.359999999999999964e+01
2.970000000000000195e+00
8.779999999999999361e+00
-8.820000000000000284e+00
2.682999999999999829e+01
7.009000000000000341e+01
1.954399999999999977e+02
-1.649300000000000068e+02
-2.183999999999999986e+01
-1.804399999999999977e+02
5.238000000000000256e+01
-1.175000000000000000e+01
1.221000000000000085e+01
-1.598000000000000043e+01
7.400000000000000355e+00
6.490999999999999659e+01
-4.099999999999999645e+00
-1.038000000000000078e+01
-8.651000000000000512e+01
-5.796999999999999886e+01
4.636999999999999744e+01
1.110499999999999972e+02
8.401000000000000512e+01
-2.039499999999999886e+02
-5.100999999999999801e+01
-7.034000000000000341e+01
-1.030300000000000011e+02
9.295000000000000284e+01
1.232000000000000028e+01
1.449000000000000021e+01
7.610000000000000320e+00
5.836999999999999744e+01
2.359999999999999876e+00
-3.005999999999999872e+01
5.892000000000000171e+01
6.342999999999999972e+01
-3.587099999999999795e+02
1.495900000000000034e+02
6.845999999999999375e+01
-3.425000000000000000e+01
-7.769999999999999574e+00
7.360000000000000320e+00
1.069999999999999929e+01
1.800000000000000044e+00
-8.849999999999999645e+00
1.440000000000000036e+01
2.549999999999999822e+00
-1.366999999999999993e+01
1.032000000000000028e+01
-1.100000000000000006e-01
-5.709999999999999964e+00
3.133999999999999986e+01
9.262000000000000455e+01
1.282400000000000091e+02
-1.271599999999999966e+02
-3.289999999999999858e+01
7.606999999999999318e+01
-1.744499999999999886e+02
-2.186999999999999886e+02
5.922999999999999687e+01
5.528000000000000114e+01
5.024000000000000199e+01
7.330000000000000071e+00
5.467999999999999972e+01
1.031899999999999977e+02
3.000000000000000000e+00
-2.371000000000000085e+01
-9.300000000000000711e+00
-3.692000000000000171e+01
3.827000000000000313e+01
3.954999999999999716e+01
-7.371999999999999886e+01
-7.428000000000000114e+01
-2.089999999999999858e+01
-7.120000000000000107e+00
3.357999999999999829e+01
1.825000000000000000e+01
-5.200000000000000178e+00
2.144000000000000128e+01
-6.009999999999999787e+00
-7.799999999999999822e+00
1.879999999999999893e+00
-1.632999999999999829e+01
1.969999999999999973e+00
-1.310000000000000053e+00
-1.844999999999999929e+01
8.439999999999999503e+00
1.588000000000000078e+01
-9.679999999999999716e+00
1.289000000000000057e+01
4.643999999999999773e+01
-1.128700000000000045e+02
-3.299999999999999822e+00
5.102000000000000313e+01
-9.329999999999999716e+01
-6.025999999999999801e+01
-4.642999999999999972e+01
-3.162000000000000099e+01
1.345500000000000114e+02
-2.321000000000000085e+01
-1.000000000000000056e-01
-2.980999999999999872e+01
-8.679999999999999716e+00
9.210000000000000853e+00
-1.739999999999999991e+00
3.635999999999999943e+01
3.699999999999999956e-01
-1.199999999999999956e+00
1.586999999999999922e+01
-9.480000000000000426e+00
1.464000000000000057e+01
1.958999999999999986e+01
-2.780999999999999872e+01
5.410000000000000142e+00
3.390000000000000124e+00
-1.491000000000000014e+01
4.030000000000000249e+00
3.439999999999999947e+00
-1.290000000000000036e+00
5.830000000000000071e+00
5.099999999999999645e+00
1.410999999999999943e+01
7.709999999999999964e+00
-1.425000000000000000e+01
5.309999999999999609e+00
-2.689000000000000057e+01
-2.839999999999999858e+00
5.432999999999999829e+01
1.429300000000000068e+02
-9.645999999999999375e+01
-2.339000000000000057e+01
4.404999999999999716e+01
1.149000000000000021e+01
-6.003000000000000114e+01
-1.498000000000000043e+01
4.402000000000000313e+01
4.767000000000000171e+01
6.025999999999999801e+01
-1.091099999999999994e+02
-2.102500000000000000e+02
-2.017999999999999972e+01
-2.569999999999999840e+00
3.103999999999999915e+01
2.166000000000000014e+01
-9.815999999999999659e+01
-6.639999999999999680e+00
-2.135000000000000142e+01
-2.862999999999999901e+01
4.789000000000000057e+01
1.353600000000000136e+02
-5.025000000000000000e+01
-6.110000000000000142e+01
-1.662199999999999989e+02
7.298000000000000398e+01
1.561899999999999977e+02
-1.183499999999999943e+02
-9.037000000000000455e+01
8.573999999999999488e+01
8.565999999999999659e+01
-4.629999999999999893e+00
-4.977000000000000313e+01
8.199999999999999512e-01
-9.380000000000000782e+00
-1.839999999999999858e+01
-5.502000000000000313e+01
5.919999999999999929e+00
-2.735999999999999943e+01
1.313300000000000125e+02
3.268999999999999773e+02
-4.466600000000000250e+02
-2.739100000000000250e+02
3.389300000000000068e+02
4.397799999999999727e+02
-2.437500000000000000e+02
-5.746000000000000085e+01
-1.299499999999999886e+02
-3.166000000000000014e+01
2.353000000000000114e+01
-3.529999999999999805e+00
-3.819999999999999840e+00
-1.737999999999999901e+01
-6.839999999999999858e+00
-1.760999999999999943e+01
6.929999999999999716e+00
2.370000000000000107e+00
-1.675000000000000000e+01
1.448000000000000043e+01
7.059999999999999609e+00
-1.547000000000000064e+01
2.155000000000000071e+01
-3.089999999999999858e+00
2.540000000000000036e+00
1.424000000000000021e+01
-9.119999999999999218e+00
1.896999999999999886e+01
2.387000000000000099e+01
2.001000000000000156e+01
1.236999999999999922e+01
-4.163000000000000256e+01
3.228999999999999915e+01
2.139999999999999858e+01
-9.660000000000000142e+00
-4.419999999999999929e+00
7.240000000000000213e+00
-9.779999999999999361e+00
7.910000000000000142e+00
7.519999999999999574e+00
-2.319999999999999840e+00
1.771999999999999886e+01
4.669999999999999929e+00
-1.472000000000000064e+01
3.290000000000000036e+00
2.529999999999999805e+00
3.049999999999999822e+00
3.339999999999999858e+01
1.529300000000000068e+02
-1.937500000000000000e+02
-1.990699999999999932e+02
4.949000000000000199e+01
-9.109999999999999432e+00
6.059000000000000341e+01
9.159999999999999432e+01
-3.554999999999999716e+01
-2.239000000000000057e+01
-2.467999999999999972e+01
-2.526000000000000156e+01
-6.589999999999999858e+00
-2.185000000000000142e+01
-7.200000000000000178e+00
-1.198000000000000043e+01
1.225000000000000000e+01
2.339000000000000057e+01
-2.410000000000000142e+00
1.391999999999999993e+01
8.230000000000000426e+00
1.499000000000000021e+01
-6.832999999999999829e+01
8.429999999999999716e+01
-4.904999999999999716e+01
-2.746000000000000085e+01
-8.029999999999999361e+00
-1.812999999999999901e+01
2.180000000000000160e+00
1.165000000000000036e+01
1.210999999999999943e+01
-8.310000000000000497e+00
4.542999999999999972e+01
3.370000000000000107e+00
-1.484999999999999964e+01
-2.129999999999999893e+00
-3.311999999999999744e+01
3.030999999999999872e+01
-1.510999999999999943e+01
-1.402999999999999936e+01
-5.893999999999999773e+01
2.028000000000000114e+01
4.295000000000000284e+01
3.607999999999999829e+01
-2.109999999999999876e+00
-6.610000000000000320e+00
-1.541000000000000014e+01
4.080000000000000071e+00
2.870000000000000107e+00
9.460000000000000853e+00
7.280000000000000249e+00
-7.750000000000000000e+00
-3.350000000000000089e+00
2.060000000000000142e+01
3.770000000000000018e+00
6.769999999999999574e+00
1.258000000000000007e+01
1.746000000000000085e+01
6.192000000000000171e+01
-2.719999999999999929e+01
-1.142999999999999972e+01
1.465000000000000036e+01
-4.609000000000000341e+01
-5.632000000000000028e+01
-3.140000000000000124e+00
1.007000000000000028e+01
1.088000000000000078e+01
-1.199000000000000021e+01
1.494999999999999929e+01
-1.750000000000000000e+00
-1.332000000000000028e+01
5.919999999999999929e+00
3.003999999999999915e+01
3.322999999999999687e+01
3.171000000000000085e+01
5.320000000000000284e+00
-2.630000000000000071e+01
-5.389000000000000057e+01
1.574000000000000021e+01
-5.607000000000000028e+01
-1.643899999999999864e+02
1.488000000000000114e+02
7.095999999999999375e+01
1.433300000000000125e+02
1.828999999999999915e+01
-1.025799999999999983e+02
-7.548999999999999488e+01
-1.784099999999999966e+02
8.818999999999999773e+01
-4.449000000000000199e+01
-1.245499999999999972e+02
1.740399999999999920e+02
2.256100000000000136e+02
-7.290000000000000036e+00
-8.129999999999999716e+01
9.770999999999999375e+01
-2.890000000000000124e+00
1.505000000000000071e+01
1.238000000000000078e+01
6.317999999999999972e+01
-8.981000000000000227e+01
3.075000000000000000e+01
9.669999999999999929e+00
5.592999999999999972e+01
-1.976999999999999957e+01
7.545999999999999375e+01
-1.084099999999999966e+02
-6.107999999999999829e+01
2.418300000000000125e+02
-1.886299999999999955e+02
6.350000000000000000e+01
-2.078000000000000114e+01
-5.600999999999999801e+01
1.200300000000000011e+02
-1.011400000000000006e+02
8.104999999999999716e+01
-7.235999999999999943e+01
5.757000000000000028e+01
-3.500000000000000000e+00
-3.820000000000000284e+01
-1.770000000000000018e+00
6.079999999999999716e+01
2.107700000000000102e+02
-2.055500000000000114e+02
9.862000000000000455e+01
-1.785200000000000102e+02
2.587999999999999901e+01
-8.687000000000000455e+01
1.159099999999999966e+02
-1.356100000000000136e+02
-1.757400000000000091e+02
-1.114099999999999966e+02
2.976100000000000136e+02
1.645399999999999920e+02
7.634000000000000341e+01
7.165000000000000568e+01
6.178000000000000114e+01
4.053199999999999932e+02
-4.455500000000000114e+02
-7.912000000000000455e+01
6.325000000000000000e+01
-1.445200000000000102e+02
2.859999999999999876e+00
8.051999999999999602e+01
1.246000000000000085e+01
-4.785999999999999943e+01
-4.000699999999999932e+02
-8.949999999999999289e+00
5.147999999999999687e+01
2.375000000000000000e+01
4.657999999999999829e+01
-1.125000000000000000e+01
-1.823000000000000043e+01
-3.621000000000000085e+01
-9.309999999999999432e+01
-4.040000000000000036e+00
9.470999999999999375e+01
-2.346999999999999886e+01
4.690999999999999659e+01
-1.442299999999999898e+02
1.116000000000000014e+01
-1.374799999999999898e+02
1.409699999999999989e+02
2.646000000000000085e+01
-1.205000000000000000e+02
-5.842000000000000171e+01
-5.942000000000000171e+01
5.895000000000000284e+01
-2.054399999999999977e+02
-1.012600000000000051e+02
2.464300000000000068e+02
1.638499999999999943e+02
3.300999999999999801e+01
8.170000000000000284e+01
3.236899999999999977e+02
-4.648700000000000045e+02
-1.626999999999999886e+02
6.799999999999999822e+00
-4.410000000000000142e+00
1.564000000000000057e+01
4.730000000000000426e+00
-2.214000000000000057e+01
3.160000000000000142e+00
-1.159999999999999920e+00
-2.082999999999999829e+01
1.898000000000000043e+01
2.455999999999999872e+01
-2.155999999999999872e+01
-1.687000000000000099e+01
-5.674000000000000199e+01
1.662999999999999901e+01
5.418999999999999773e+01
3.300999999999999801e+01
4.370000000000000107e+00
5.375999999999999801e+01
-9.673000000000000398e+01
1.187699999999999960e+02
-1.075999999999999979e+01
-6.769999999999999574e+00
9.699999999999999289e+00
-6.096000000000000085e+01
2.578000000000000114e+01
1.208400000000000034e+02
-2.176999999999999957e+01
-3.031600000000000250e+02
1.185999999999999943e+01
1.951399999999999864e+02
1.418100000000000023e+02
-9.351000000000000512e+01
-1.129999999999999893e+00
-7.196999999999999886e+01
9.142000000000000171e+01
-7.639999999999999680e+00
1.019000000000000057e+02
-3.037000000000000099e+01
1.391000000000000014e+01
1.238000000000000078e+01
5.792999999999999972e+01
-4.267999999999999972e+01
-1.289000000000000057e+01
-9.037999999999999545e+01
6.209999999999999964e+00
-1.420399999999999920e+02
7.040000000000000036e+00
-7.796999999999999886e+01
2.037899999999999920e+02
1.207699999999999960e+02
-1.228199999999999932e+02
1.620600000000000023e+02
-1.884799999999999898e+02
-3.484000000000000341e+01
-6.571999999999999886e+01
1.127300000000000040e+02
1.083000000000000007e+01
-7.029000000000000625e+01
-8.148999999999999488e+01
5.352000000000000313e+01
3.085000000000000142e+01
-5.238000000000000256e+01
-5.210999999999999943e+01
6.712999999999999545e+01
-8.057999999999999829e+01
-7.049999999999999822e+00
-3.703000000000000114e+01
2.421000000000000085e+01
5.849999999999999645e+00
-2.903000000000000114e+01
8.209000000000000341e+01
-5.950999999999999801e+01
-1.300300000000000011e+02
9.235999999999999943e+01
-4.515999999999999659e+01
-1.855000000000000071e+01
8.792000000000000171e+01
-1.048499999999999943e+02
1.671999999999999886e+01
-6.025999999999999801e+01
3.971999999999999886e+01
-6.006000000000000227e+01
-4.875000000000000000e+01
7.254999999999999716e+01
-2.171200000000000045e+02
-1.190999999999999943e+02
3.313999999999999773e+02
3.300000000000000155e-01
-1.883700000000000045e+02
2.205999999999999872e+01
1.769999999999999929e+01
7.734999999999999432e+01
-1.689999999999999858e+01
6.573000000000000398e+01
1.932999999999999829e+01
-1.247500000000000000e+02
-1.033700000000000045e+02
1.657100000000000080e+02
2.534099999999999966e+02
-2.935199999999999818e+02
-8.323000000000000398e+01
2.121999999999999886e+01
-1.053799999999999955e+02
-6.867000000000000171e+01
-1.912899999999999920e+02
2.496100000000000136e+02
6.509999999999999432e+01
5.919999999999999929e+00
1.733999999999999986e+01
-3.685999999999999943e+01
-3.033999999999999986e+01
1.372800000000000011e+02
9.259000000000000341e+01
-1.896100000000000136e+02
-4.539000000000000057e+01
-1.523600000000000136e+02
-1.453799999999999955e+02
2.036200000000000045e+02
1.088100000000000023e+02
4.259000000000000341e+01
-8.529999999999999361e+00
-3.089999999999999858e+01
-2.383999999999999986e+01
-8.265000000000000568e+01
-1.199300000000000068e+02
-1.649099999999999966e+02
3.978999999999999773e+02
8.575000000000000000e+01
1.476800000000000068e+02
3.964200000000000159e+02
-4.060199999999999818e+02
-2.133799999999999955e+02
-4.197999999999999687e+01
-1.419999999999999929e+01
-1.205300000000000011e+02
4.282000000000000028e+01
-6.160000000000000142e+00
1.100000000000000000e+01
1.978499999999999943e+02
-1.396399999999999864e+02
3.824000000000000199e+01
-1.888700000000000045e+02
6.299999999999999822e+00
-3.089999999999999858e+00
2.899999999999999911e+00
3.672999999999999687e+01
1.055000000000000071e+01
-7.682999999999999829e+01
1.060499999999999972e+02
8.051000000000000512e+01
-8.059999999999999432e+01
-1.349199999999999875e+02
-7.099999999999999645e-01
-2.419000000000000128e+01
7.507999999999999829e+01
2.432000000000000028e+01
-4.064000000000000057e+01
3.303000000000000114e+01
1.021000000000000085e+01
-3.899999999999999911e+00
1.666000000000000014e+01
-5.599000000000000199e+01
-2.200000000000000000e+01
8.590999999999999659e+01
5.940999999999999659e+01
-7.370000000000000107e+00
-1.699999999999999956e+00
4.519999999999999574e+00
-6.378999999999999915e+01
1.848999999999999844e+01
-8.365999999999999659e+01
-6.451999999999999602e+01
1.573600000000000136e+02
1.255900000000000034e+02
2.250000000000000000e+00
-1.726999999999999886e+02
-1.155999999999999943e+02
3.005999999999999872e+01
2.041100000000000136e+02
-1.678000000000000114e+02
-7.635999999999999943e+01
4.761999999999999744e+01
-1.664000000000000057e+01
8.800000000000000000e+01
5.234000000000000341e+01
-9.195000000000000284e+01
1.900000000000000000e+01
5.882999999999999829e+01
5.449000000000000199e+01
-6.468999999999999773e+01
-7.257999999999999829e+01
2.592999999999999972e+01
6.568999999999999773e+01
-3.271000000000000085e+01
1.882000000000000028e+01
-3.720000000000000284e+01
-4.057000000000000028e+01
2.750000000000000000e+00
1.291999999999999993e+01
3.339999999999999858e+01
1.348000000000000043e+01
-6.643000000000000682e+01
-2.879900000000000091e+02
7.773000000000000398e+01
1.732700000000000102e+02
2.316999999999999886e+02
2.336699999999999875e+02
2.366100000000000136e+02
-1.657500000000000000e+02
-3.318100000000000023e+02
-9.448999999999999488e+01
2.610000000000000142e+01
3.166700000000000159e+02
-1.148299999999999983e+02
-5.919999999999999929e+00
-2.326999999999999957e+01
-1.083299999999999983e+02
-6.484999999999999432e+01
1.303999999999999915e+01
1.522000000000000064e+01
4.030000000000000249e+00
-9.599999999999999645e-01
1.539000000000000057e+01
9.684999999999999432e+01
-1.126599999999999966e+02
3.956000000000000227e+01
4.614000000000000057e+01
8.018000000000000682e+01
-9.019999999999999574e+00
-6.695999999999999375e+01
1.142699999999999960e+02
-4.671999999999999886e+01
-6.842000000000000171e+01
2.857999999999999829e+01
-4.357999999999999829e+01
5.374000000000000199e+01
-1.356000000000000050e+01
-9.493000000000000682e+01
2.276599999999999966e+02
4.634000000000000341e+01
-1.882100000000000080e+02
2.269000000000000128e+01
1.310300000000000011e+02
-4.495000000000000284e+01
-3.435999999999999943e+01
-2.464999999999999858e+01
-2.858999999999999986e+01
-1.719999999999999973e+00
2.189999999999999947e+00
-9.660000000000000142e+00
1.198000000000000043e+01
9.060000000000000497e+00
1.330000000000000071e+00
2.569999999999999929e+01
-4.219999999999999751e+00
-1.778999999999999915e+01
3.819999999999999840e+00
-1.319999999999999929e+01
-1.000999999999999979e+01
1.701999999999999957e+01
-1.381000000000000050e+01
-9.169999999999999929e+00
1.987999999999999901e+01
3.839999999999999858e+00
-2.621000000000000085e+01
-3.229999999999999982e+00
-4.270000000000000284e+01
1.326100000000000136e+02
-2.687999999999999901e+01
-5.517000000000000171e+01
-3.852000000000000313e+01
1.213000000000000078e+01
-4.490000000000000213e+00
-1.353999999999999915e+01
1.097000000000000064e+01
-9.699999999999999289e+00
-1.676999999999999957e+01
2.925000000000000000e+01
1.853000000000000114e+01
-1.937000000000000099e+01
2.759999999999999787e+00
3.290000000000000036e+00
-7.950000000000000178e+00
2.009999999999999787e+00
1.075999999999999979e+01
-5.629999999999999893e+00
-8.980000000000000426e+00
1.089000000000000057e+01
-1.729999999999999982e+00
-8.710000000000000853e+00
1.313000000000000078e+01
6.800000000000000488e-01
-5.613000000000000256e+01
-1.487700000000000102e+02
2.816600000000000250e+02
1.102800000000000011e+02
-7.426000000000000512e+01
-9.767000000000000171e+01
-1.435999999999999943e+01
-1.352400000000000091e+02
1.092399999999999949e+02
2.805000000000000071e+01
-7.240999999999999659e+01
-4.622999999999999687e+01
-1.062600000000000051e+02
8.081999999999999318e+01
8.035999999999999943e+01
3.284200000000000159e+02
7.299999999999999822e-01
-3.327500000000000000e+02
-2.577200000000000273e+02
4.490000000000000213e+00
3.382200000000000273e+02
2.800000000000000000e+02
-1.729000000000000057e+02
-4.560000000000000000e+02
-7.956999999999999318e+01
4.586499999999999773e+02
-1.630000000000000071e+01
-5.678000000000000114e+01
1.901999999999999957e+01
-3.471000000000000085e+01
-4.485999999999999943e+01
-1.698999999999999844e+01
-2.800000000000000266e-01
-1.425500000000000114e+02
-1.803499999999999943e+02
1.701800000000000068e+02
3.148100000000000023e+02
-1.533600000000000136e+02
-3.102599999999999909e+02
-2.490699999999999932e+02
4.581800000000000068e+02
3.741000000000000227e+02
-5.038899999999999864e+02
-1.322899999999999920e+02
1.404900000000000091e+02
-9.723000000000000398e+01
-9.640000000000000568e+00
-2.639999999999999858e+01
-9.096999999999999886e+01
-3.079200000000000159e+02
1.316100000000000136e+02
4.344100000000000250e+02
6.336999999999999744e+01
-5.679999999999999716e+00
2.203999999999999915e+01
-2.124799999999999898e+02
-8.064000000000000057e+01
3.540500000000000114e+02
3.240000000000000000e+02
-4.617999999999999972e+01
-3.184200000000000159e+02
-1.360699999999999932e+02
-2.089999999999999858e+00
1.152999999999999936e+01
-1.310000000000000053e+00
1.199999999999999956e-01
-1.098000000000000043e+01
-1.699999999999999956e+00
7.650000000000000355e+00
-8.250000000000000000e+00
1.385999999999999943e+01
2.100000000000000089e+00
-3.342999999999999972e+01
5.320000000000000284e+00
2.569999999999999840e+00
-2.500000000000000000e+00
2.467999999999999972e+01
-1.998000000000000043e+01
-1.400999999999999979e+01
1.682000000000000028e+01
1.483999999999999986e+01
-1.293799999999999955e+02
-1.345000000000000000e+02
1.863700000000000045e+02
1.991500000000000057e+02
-1.336999999999999922e+01
-6.209999999999999964e+00
-2.405999999999999872e+01
-1.051999999999999957e+01
-2.400000000000000000e+01
5.139999999999999680e+00
3.087999999999999901e+01
6.780000000000000249e+00
-2.642000000000000171e+01
1.485999999999999943e+01
5.900000000000000355e+00
-1.561999999999999922e+01
7.120000000000000107e+00
2.399999999999999911e+00
-1.588000000000000078e+01
1.289000000000000057e+01
-6.400000000000000133e-01
-2.044000000000000128e+01
2.119000000000000128e+01
1.016999999999999993e+01
-1.628000000000000114e+01
1.028999999999999915e+01
-7.740000000000000213e+00
-1.689999999999999858e+01
1.307000000000000028e+01
1.403999999999999915e+01
-4.299999999999999933e-01
1.373000000000000043e+01
2.830000000000000071e+00
-4.740000000000000213e+00
-1.729999999999999982e+00
-3.790000000000000036e+00
-2.251000000000000156e+01
3.709999999999999964e+00
9.599999999999999645e+00
-1.081000000000000050e+01
8.390000000000000568e+00
2.560000000000000053e+00
-4.190000000000000391e+00
1.574000000000000021e+01
3.300000000000000155e-01
-1.712000000000000099e+01
9.429999999999999716e+00
-2.439999999999999947e+00
-1.127999999999999936e+01
8.810000000000000497e+00
-7.719999999999999751e+00
-1.402999999999999936e+01
3.810000000000000053e+00
-4.290000000000000036e+00
-9.939999999999999503e+00
1.857000000000000028e+01
-7.250000000000000000e+00
-2.998000000000000043e+01
-1.039899999999999949e+02
3.578700000000000045e+02
-2.387299999999999898e+02
-2.814200000000000159e+02
1.121299999999999955e+02
1.193900000000000006e+02
2.880000000000000071e+01
4.282999999999999829e+01
-1.796999999999999886e+01
-1.284999999999999964e+01
-6.664000000000000057e+01
-3.628999999999999915e+01
-1.702899999999999920e+02
4.092300000000000182e+02
-1.698199999999999932e+02
-3.037699999999999818e+02
-2.755000000000000071e+01
1.342800000000000011e+02
1.123799999999999955e+02
-2.724700000000000273e+02
5.789000000000000057e+01
-1.128999999999999915e+01
-5.975000000000000000e+01
1.205000000000000071e+01
-1.469999999999999929e+01
2.687000000000000099e+01
-2.830000000000000071e+00
4.169999999999999929e+00
1.353999999999999915e+01
-9.960000000000000853e+00
-2.014999999999999858e+01
-5.954999999999999716e+01
3.835000000000000142e+01
1.116099999999999994e+02
1.182800000000000011e+02
8.423000000000000398e+01
-2.028899999999999864e+02
-5.361999999999999744e+01
-3.057000000000000028e+01
1.300000000000000044e-01
1.942000000000000171e+01
2.299999999999999822e+00
1.626999999999999957e+01
-1.311999999999999922e+01
1.138000000000000078e+01
8.800000000000000044e-01
1.621999999999999886e+01
1.649999999999999911e+00
8.119999999999999218e+00
4.790000000000000036e+00
-1.199999999999999956e+00
4.879999999999999893e+00
5.950000000000000178e+00
-4.820000000000000284e+00
-1.200000000000000000e+01
1.646000000000000085e+01
2.332999999999999829e+01
3.600000000000000089e+00
-3.000000000000000000e+00
-8.550000000000000711e+00
-3.660000000000000142e+00
-1.409999999999999964e+01
2.300000000000000000e+01
6.179999999999999716e+00
-3.830000000000000071e+00
-2.744000000000000128e+01
-7.329999999999999716e+01
8.326000000000000512e+01
5.875000000000000000e+01
2.587000000000000099e+01
9.540999999999999659e+01
1.271500000000000057e+02
-8.323999999999999488e+01
-3.790999999999999659e+01
-1.740300000000000011e+02
-2.978000000000000114e+01
7.650000000000000355e+00
2.303000000000000114e+01
2.560000000000000142e+01
-1.097000000000000064e+01
-1.203999999999999915e+01
4.600000000000000200e-01
-4.370000000000000107e+00
-3.711999999999999744e+01
3.859000000000000341e+01
3.265999999999999659e+01
4.561999999999999744e+01
-7.230000000000000426e+00
5.793999999999999773e+01
8.504999999999999716e+01
-1.302400000000000091e+02
-5.820000000000000284e+01
3.695000000000000284e+01
4.306000000000000227e+01
1.251700000000000017e+02
-1.438199999999999932e+02
-2.429300000000000068e+02
-4.040999999999999659e+01
8.999999999999999667e-02
5.785999999999999943e+01
-7.954999999999999716e+01
-2.675099999999999909e+02
1.639600000000000080e+02
3.600000000000000000e+01
5.697999999999999687e+01
-6.601999999999999602e+01
-1.319999999999999929e+01
4.459999999999999964e+00
4.946000000000000085e+01
1.155000000000000000e+02
-9.014000000000000057e+01
-3.517000000000000171e+01
-2.003000000000000114e+01
4.031000000000000227e+01
1.145499999999999972e+02
1.288700000000000045e+02
-2.672200000000000273e+02
1.686299999999999955e+02
1.618000000000000114e+02
1.133000000000000007e+01
-9.000000000000000000e+00
-2.839999999999999858e+00
-1.088000000000000078e+01
1.497000000000000064e+01
1.208000000000000007e+01
-1.451599999999999966e+02
4.257000000000000028e+01
1.489000000000000057e+01
-6.629999999999999893e+00
4.450000000000000178e+00
2.350000000000000089e+00
-7.330000000000000071e+00
1.027999999999999936e+01
6.919999999999999929e+00
-1.089000000000000057e+01
3.080000000000000071e+00
6.179999999999999716e+00
-3.470000000000000195e+00
3.250000000000000000e+00
6.530000000000000249e+00
5.030000000000000249e+00
3.372999999999999687e+01
5.915999999999999659e+01
-9.667000000000000171e+01
-5.049999999999999822e+00
-1.102699999999999960e+02
4.575999999999999801e+01
2.348999999999999844e+01
2.848999999999999844e+01
-5.650000000000000355e+00
1.168999999999999950e+01
1.043999999999999950e+01
-3.203000000000000114e+01
-4.940000000000000391e+00
2.285000000000000142e+01
-1.174000000000000021e+01
-2.799999999999999822e+00
9.919999999999999929e+00
5.360000000000000320e+00
-1.290000000000000036e+00
-2.260999999999999943e+01
-5.000000000000000000e-01
1.833999999999999986e+01
-5.280000000000000249e+00
-5.480000000000000426e+00
5.929999999999999716e+00
-5.019999999999999574e+00
-9.519999999999999574e+00
7.679999999999999716e+00
8.660000000000000142e+00
7.240000000000000213e+00
-1.887999999999999901e+01
-2.198000000000000043e+01
7.469999999999999751e+00
1.662999999999999901e+01
4.839999999999999858e+00
-1.023000000000000043e+01
3.610999999999999943e+01
1.351899999999999977e+02
1.241500000000000057e+02
-2.349000000000000057e+02
-1.174000000000000057e+02
-7.259999999999999787e+00
-3.970000000000000195e+00
2.032000000000000028e+01
-5.500000000000000000e+00
-8.570000000000000284e+00
1.735999999999999943e+01
8.939999999999999503e+00
-5.169999999999999929e+00
6.080000000000000071e+00
8.089999999999999858e+00
2.999999999999999889e-01
3.178999999999999915e+01
-8.429999999999999716e+00
-3.082000000000000028e+01
-2.798000000000000043e+01
-4.281000000000000227e+01
-1.560800000000000125e+02
1.222500000000000000e+02
2.843500000000000227e+02
7.506000000000000227e+01
1.359099999999999966e+02
-1.705600000000000023e+02
-1.814399999999999977e+02
-7.429000000000000625e+01
-1.817000000000000171e+01
-2.276000000000000156e+01
1.330000000000000071e+01
1.780999999999999872e+01
2.910000000000000142e+00
2.383999999999999986e+01
2.229999999999999982e+00
-1.969000000000000128e+01
1.892999999999999972e+01
6.610000000000000320e+00
-1.416000000000000014e+01
1.955999999999999872e+01
9.539999999999999147e+00
-1.051999999999999957e+01
7.320000000000000284e+00
1.657999999999999829e+01
-3.100000000000000089e+00
2.379999999999999893e+00
-1.501999999999999957e+01
-8.654000000000000625e+01
-1.458999999999999986e+01
-2.278100000000000023e+02
-1.657999999999999829e+01
3.604200000000000159e+02
2.335900000000000034e+02
-1.685600000000000023e+02
9.970000000000000639e+00
-4.007999999999999829e+01
-1.151700000000000017e+02
-1.394799999999999898e+02
-2.182000000000000028e+01
4.599999999999999645e+00
1.066999999999999993e+01
-5.999999999999999778e-01
-1.294999999999999929e+01
2.353000000000000114e+01
2.542999999999999972e+01
-4.600999999999999801e+01
-4.690000000000000391e+00
1.676999999999999957e+01
-1.228999999999999915e+01
1.378999999999999915e+01
5.750000000000000000e+00
-2.035999999999999943e+01
1.366999999999999993e+01
6.700000000000000178e+00
-1.500999999999999979e+01
1.778000000000000114e+01
