1593450967.00
64.000000
-0.00
-0.00
-0.00
-0.00
-0.00
-0.00
-0.00
-0.00
-0.00
-0.00
0.00
0.01
0.01
-0.00
-0.03
-0.05
-0.05
0.00
0.13
0.36
0.66
1.01
1.37
1.72
2.06
2.40
2.79
3.24
3.80
4.42
5.06
5.66
6.20
6.68
7.15
7.68
8.31
9.14
10.09
11.04
11.88
12.56
13.14
13.76
14.65
15.96
17.91
20.32
22.90
25.38
27.58
29.57
31.68
34.32
37.81
42.54
48.15
54.10
59.83
64.97
69.58
74.14
79.34
85.71
93.76
103.00
112.62
121.73
129.77
136.75
143.30
150.75
157.77
166.64
177.95
191.79
206.97
220.57
228.25
225.36
208.53
176.87
132.76
80.05
23.07
-34.94
-92.44
-149.16
-205.23
-260.37
-313.74
-363.87
-409.83
-450.91
-486.50
-515.74
-537.23
-549.22
-549.96
-538.37
-514.21
-478.67
-433.88
-382.45
-327.02
-269.84
-212.63
-156.66
-102.95
-52.37
-5.90
35.58
71.43
101.35
125.50
144.38
158.69
169.15
176.37
180.75
182.57
182.07
179.51
175.23
169.65
163.18
156.15
148.81
141.30
133.69
126.02
118.33
110.69
103.16
95.80
88.68
81.83
75.25
68.95
62.95
57.25
51.86
46.78
42.03
37.58
33.45
29.61
26.07
22.81
19.84
17.13
14.68
12.48
10.50
8.75
7.22
5.89
4.76
3.80
3.00
2.34
1.78
1.31
0.92
0.60
0.35
0.15
-0.01
-0.16
-0.31
-0.48
-0.67
-0.85
-1.02
-1.14
-1.21
-1.25
-1.30
-1.41
-1.60
-1.87
-2.18
-2.48
-2.72
-2.86
-2.94
-3.04
-3.24
-3.59
-4.12
-4.73
-5.34
-5.83
-6.19
-6.48
-6.82
-7.35
-8.14
-9.13
-10.20
-11.15
-11.91
-12.48
-13.00
-13.65
-14.52
-15.61
-16.85
-18.20
-19.73
-21.43
-23.13
-24.34
-24.35
-22.49
-18.43
-12.37
-4.96
2.89
10.31
16.59
21.20
23.79
24.11
22.23
18.62
14.32
10.76
9.48
11.60
17.38
26.08
36.07
45.39
52.39
56.31
57.47
57.02
56.16
55.53
54.97
53.75
51.05
46.46
40.31
32.86
24.51
15.42
5.70
-4.45
-14.42
-23.28
-30.08
-34.20
-35.67
-35.09
-33.44
-31.75
-30.75
-30.70
-31.43
-32.38
-32.93
-32.57
-30.94
-27.94
-23.69
-18.56
-13.14
-8.11
-4.20
-1.85
-1.08
-1.40
-2.00
-2.17
-1.52
-0.09
1.74
3.56
5.18
6.68
8.25
10.03
11.86
13.32
13.90
13.18
11.09
8.01
4.64
1.74
-0.14
-0.93
-0.95
-0.74
-0.69
-0.89
-1.07
-0.94
-0.41
0.28
0.65
0.28
-0.92
-2.61
-4.16
-5.01
-4.85
-3.87
-2.76
-2.45
-3.82
-7.25
-12.39
-18.02
-22.50
-24.33
-22.94
-19.06
-14.50
-11.40
-11.30
-14.49
-19.95
-26.05
-31.30
-34.98
-37.16
-38.26
-38.47
-37.48
-34.54
-29.01
-20.93
-11.20
-1.44
6.56
11.42
12.57
10.47
6.36
1.77
-2.16
-5.09
-7.53
-10.54
-15.16
-21.84
-30.17
-38.93
-46.78
-52.67
-56.27
-57.79
-57.70
-56.58
-55.47
-56.22
-60.99
-71.86
-89.27
-110.80
-131.09
-143.47
-142.65
-126.87
-98.36
-61.11
-18.90
26.41
75.06
127.66
182.71
235.22
277.64
302.82
308.18
295.91
271.83
242.98
214.91
190.38
169.44
151.15
135.26
124.02
119.29
120.66
125.07
128.15
126.53
119.38
108.52
88.87
60.16
25.47
-10.53
-43.99
-72.40
-93.82
-106.97
-112.00
-110.86
-105.33
-97.58
-89.35
-81.52
-74.17
-67.02
-60.14
-54.05
-49.48
-45.96
-43.17
-40.89
-39.09
-38.15
-37.74
-37.53
-37.16
-36.10
-33.10
-27.78
-20.92
-14.43
-10.57
-10.69
-14.61
-20.47
-25.53
-26.89
-23.28
-15.09
-3.96
8.12
19.68
29.85
37.99
43.22
46.26
46.59
43.85
38.03
29.54
19.13
7.65
-4.29
-16.18
-27.37
-37.32
-45.44
-51.65
-56.63
-61.47
-67.13
-74.28
-83.08
-92.90
-102.72
-111.30
-117.66
-121.33
-122.14
-120.15
-116.46
-113.15
-112.47
-115.74
-122.37
-129.75
-133.73
-129.61
-113.29
-83.55
-42.45
5.45
54.78
100.83
140.50
170.45
186.13
187.48
178.44
162.78
142.17
118.56
95.67
78.20
69.30
68.79
72.98
75.53
70.44
54.14
27.10
-6.95
-42.28
-72.39
-91.09
-94.06
-83.41
-62.61
-38.98
-20.51
-12.75
-16.46
-27.91
-40.99
-50.07
-52.44
-48.25
-39.90
-30.00
-20.69
-13.35
-8.92
-8.02
-10.76
-16.74
-24.92
-34.53
-43.12
-49.21
-52.13
-52.09
-49.77
-46.18
-42.38
-39.07
-36.76
-35.60
-35.78
-37.32
-40.08
-43.51
-46.55
-47.73
-45.53
-39.16
-28.80
-15.69
-1.32
13.23
27.81
42.95
59.33
77.15
96.00
115.19
134.11
152.33
169.09
182.73
190.41
188.78
175.42
149.86
114.02
71.46
26.35
-16.94
-53.70
-79.38
-90.59
-86.65
-70.88
-49.92
-32.01
-24.19
-30.09
-48.95
-77.27
-110.67
-144.99
-176.62
-201.60
-216.53
-219.76
-212.39
-197.51
-180.66
-168.11
-164.20
-169.60
-179.29
-185.87
-183.02
-167.83
-139.70
-102.42
-62.45
-25.88
3.04
26.00
46.35
66.44
87.42
113.23
147.32
191.24
243.91
299.46
352.83
396.05
420.03
419.64
400.79
374.54
351.54
338.13
332.90
335.11
341.24
346.84
319.92
247.29
141.60
31.48
-43.12
-90.00
-122.06
-148.60
-179.16
-213.51
-242.83
-258.32
-256.29
-237.17
-206.83
-168.23
-125.27
-84.63
-54.11
-37.74
-36.79
-50.46
-73.12
-108.23
-147.69
-178.00
-192.03
-187.99
-168.78
-134.42
-83.39
-18.86
51.82
117.72
168.40
195.31
193.87
166.76
123.31
57.20
-22.71
-81.61
-115.09
-135.34
-149.76
-162.06
-171.80
-176.19
-173.55
-162.24
-144.68
-128.08
-115.79
-107.17
-99.91
-90.93
-77.46
-58.61
-33.60
-4.59
21.95
42.45
56.41
64.66
69.07
71.77
73.90
76.42
78.28
75.68
67.20
54.21
39.61
26.97
19.29
17.68
21.73
29.20
36.58
42.43
47.48
53.46
62.01
73.80
88.20
103.82
118.77
131.01
139.43
143.82
144.48
142.09
137.61
131.98
125.85
119.46
112.63
105.07
96.65
87.66
78.88
71.29
65.70
62.28
60.29
58.16
53.87
45.69
32.86
15.92
-3.42
-22.87
-40.37
-54.53
-64.85
-71.42
-74.69
-75.24
-73.90
-71.71
-69.87
-69.45
-70.94
-73.92
-77.23
-79.31
-78.81
-74.99
-67.96
-58.51
-47.78
-36.98
-27.03
-18.61
-12.08
-7.54
-4.87
-3.66
-3.32
-3.14
-2.49
-1.09
0.92
3.09
4.92
6.16
6.86
7.38
8.01
8.76
9.24
8.84
7.13
4.16
0.51
-2.87
-5.17
-6.10
-6.06
-5.91
-6.55
-8.47
-11.63
-15.57
-19.75
-23.89
-27.96
-31.96
-35.49
-37.69
-37.41
-33.75
-26.62
-17.03
-6.78
2.21
8.65
12.33
13.98
14.76
15.53
16.41
16.89
16.27
14.28
11.28
8.22
6.08
5.40
5.98
7.05
7.72
7.44
6.28
4.80
3.66
3.28
3.49
3.73
3.31
1.83
-0.63
-3.61
-6.48
-8.80
-10.54
-12.04
-13.76
-16.01
-18.76
-21.67
-24.33
-26.58
-28.72
-31.38
-35.17
-40.16
-45.67
-50.36
-52.69
-51.56
-46.77
-38.99
-29.42
-19.17
-8.85
1.50
12.15
23.22
34.33
44.59
52.90
58.38
60.76
60.42
58.25
55.18
51.86
48.45
44.80
40.79
36.55
32.54
29.35
27.36
26.45
25.97
25.11
23.28
20.42
17.01
13.77
11.15
9.06
6.89
3.79
-0.72
-6.54
-12.97
-19.04
-24.08
-28.01
-31.35
-34.86
-39.08
-44.10
-49.55
-54.86
-59.51
-63.23
-65.83
-67.08
-66.51
-63.52
-57.63
-48.75
-37.33
-24.34
-10.97
1.63
12.80
22.30
30.30
37.10
42.78
47.18
49.94
50.74
49.67
47.23
44.23
41.48
39.45
38.13
37.10
35.83
34.02
31.70
29.23
27.02
25.31
23.96
22.53
20.53
17.69
14.16
10.40
6.98
4.19
1.87
-0.47
-3.37
-7.04
-11.21
-15.26
-18.58
-20.98
-22.79
-24.75
-27.64
-31.79
-36.97
-42.31
-46.65
-48.90
-48.40
-45.08
-39.36
-31.89
-23.33
-14.10
-4.45
5.36
14.91
23.55
30.57
35.54
38.42
39.58
39.64
39.09
38.12
36.68
34.65
32.14
29.50
27.28
25.98
25.75
26.34
27.17
27.61
27.28
26.11
24.39
22.48
20.62
18.73
16.53
13.70
10.15
6.07
1.93
-1.80
-4.91
-7.52
-10.05
-12.88
-16.23
-19.98
-23.82
-27.45
-30.73
-33.73
-36.54
-38.97
-40.46
-40.08
-36.91
-30.37
-20.61
-8.50
4.60
17.32
28.72
38.45
46.61
53.47
59.13
63.33
65.68
65.94
64.24
61.06
57.04
52.62
47.79
42.14
35.19
26.78
17.31
7.68
-1.08
-8.23
-13.64
-17.76
-21.29
-24.75
-28.16
-31.05
-32.76
-32.79
-31.24
-28.75
-26.27
-24.55
-23.88
-23.98
-24.22
-24.05
-23.31
-22.35
-21.76
-22.11
-23.62
-26.21
-29.56
-33.35
-37.39
-41.50
-45.29
-48.06
-48.92
-47.03
-42.07
-34.43
-25.17
-15.70
-7.23
-0.40
4.82
8.89
12.34
15.45
18.11
20.00
20.84
20.66
19.88
19.13
19.03
19.88
21.54
23.53
25.30
26.51
27.24
27.85
28.78
30.25
31.99
33.34
33.61
32.41
29.83
26.42
22.81
19.42
16.23
12.87
8.91
4.16
-1.14
-6.44
-11.13
-14.86
-17.75
-20.37
-23.40
-27.38
-32.43
-38.30
-44.44
-50.33
-55.52
-59.70
-62.50
-63.44
-61.97
-57.69
-50.57
-41.10
-30.22
-19.01
-8.44
0.91
8.81
15.31
20.51
24.50
27.28
28.84
29.25
28.71
27.57
26.19
24.88
23.77
22.75
21.59
20.08
18.25
16.40
14.96
14.27
14.33
14.71
14.69
13.58
11.12
7.52
3.42
-0.48
-3.72
-6.34
-8.75
-11.47
-14.74
-18.43
-22.06
-25.07
-27.20
-28.63
-29.91
-31.67
-34.27
-37.67
-41.52
-45.33
-48.68
-51.22
-52.64
-52.53
-50.42
-45.94
-38.99
-29.91
-19.43
-8.59
1.64
10.45
17.50
22.80
26.67
29.50
31.62
33.11
33.91
33.94
33.29
32.24
31.19
30.41
29.94
29.50
28.65
27.00
24.41
21.02
17.17
13.24
9.46
5.86
2.33
-1.26
-4.92
-8.49
-11.77
-14.57
-16.87
-18.91
-21.02
-23.47
-26.31
-29.27
-31.90
-33.81
-34.90
-35.57
-36.47
-38.19
-40.80
-43.66
-45.54
-45.11
-41.55
-34.92
-26.10
-16.40
-6.91
1.76
9.56
16.65
22.98
28.17
31.59
32.80
31.88
29.46
26.52
23.94
22.15
20.97
19.88
18.32
16.08
13.36
10.70
8.61
7.35
6.71
6.14
5.05
3.12
0.46
-2.41
-4.83
-6.41
-7.29
-8.03
-9.43
-11.96
-15.57
-19.69
-23.57
-26.63
-28.87
-30.72
-32.79
-35.53
-39.02
-42.98
-46.99
-50.68
-53.78
-56.02
-57.02
-56.23
-53.08
-47.23
-38.74
-28.23
-16.75
-5.44
4.71
13.20
20.01
25.48
29.94
33.56
36.17
37.44
37.19
35.54
33.09
30.58
28.67
27.63
27.22
26.95
26.32
25.18
23.71
22.35
21.47
21.12
21.00
20.61
19.59
17.91
15.86
13.84
12.08
10.43
8.45
5.72
2.12
-2.00
-5.97
-9.14
-11.20
-12.35
-13.26
-14.74
-17.41
-21.46
-26.53
-31.88
-36.54
-39.58
-40.33
-38.52
-34.24
-27.84
-19.83
-10.76
-1.20
8.21
16.82
24.00
29.35
32.75
34.49
35.01
34.81
34.14
32.97
31.12
28.50
25.31
22.02
19.26
17.43
16.55
16.14
15.53
14.18
12.01
9.39
6.92
5.08
3.92
3.04
1.81
-0.22
-3.14
-6.59
-9.98
-12.86
-15.07
-16.89
-18.75
-21.05
-23.90
-27.16
-30.57
-33.95
-37.34
-40.76
-44.04
-46.62
-47.54
-45.79
-40.82
-32.78
-22.67
-11.89
-1.75
7.02
14.33
20.56
26.11
31.10
35.23
37.99
38.96
38.11
35.83
32.80
29.77
27.23
25.34
23.89
22.57
21.13
19.56
18.04
16.74
15.73
14.75
13.37
11.24
8.21
4.54
0.74
-2.65
-5.34
-7.43
-9.30
-11.42
-14.03
-17.07
-20.20
-23.06
-25.47
-27.66
-30.15
-33.55
-38.22
-43.91
-49.78
-54.55
-56.97
-56.26
-52.35
-45.79
-37.36
-27.78
-17.45
-6.60
4.52
15.38
25.19
33.09
38.56
41.56
42.59
42.40
41.64
40.66
39.45
37.84
35.72
33.21
30.65
28.49
27.00
26.18
25.70
25.09
23.97
22.20
19.96
17.56
15.27
13.15
11.07
8.75
6.07
3.08
-0.00
-2.87
-5.41
-7.71
-10.08
-12.88
-16.24
-20.00
-23.77
-27.08
-29.75
-32.05
-34.63
-38.18
-42.94
-48.43
-53.48
-56.54
-56.36
-52.43
-45.13
-35.52
-24.83
-14.03
-3.64
6.19
15.36
23.61
30.49
35.49
38.43
39.54
39.44
38.84
38.25
37.72
36.95
35.52
33.28
30.47
27.68
25.54
24.44
24.27
24.47
24.34
23.31
21.23
18.37
15.28
12.47
10.17
8.25
6.26
3.73
0.41
-3.63
-7.96
-12.10
-15.76
-18.96
-21.96
-25.02
-28.24
-31.51
-34.61
-37.51
-40.35
-43.38
-46.66
-49.75
-51.69
-51.27
-47.59
-40.43
-30.50
-19.13
-7.79
2.45
11.24
18.77
25.40
31.34
36.32
39.81
41.38
40.96
39.02
36.34
33.72
31.62
30.02
28.56
26.82
24.68
22.35
20.25
18.78
18.02
17.62
17.02
15.68
13.36
10.27
6.91
3.88
1.45
-0.51
-2.52
-5.15
-8.75
-13.17
-17.92
-22.29
-25.79
-28.35
-30.35
-32.38
-34.97
-38.33
-42.34
-46.63
-50.75
-54.31
-56.90
-58.04
-57.15
-53.64
-47.15
-37.80
-26.26
-13.69
-1.42
9.46
18.39
25.35
30.71
34.94
38.32
40.83
42.33
42.66
41.91
40.39
38.56
36.82
35.36
34.08
32.70
30.98
28.88
26.61
24.51
22.88
21.76
20.85
19.65
17.72
14.93
11.55
8.09
5.02
2.49
0.23
-2.29
-5.51
-9.50
-13.95
-18.27
-21.97
-24.89
-27.33
-29.90
-33.22
-37.53
-42.59
-47.61
-51.53
-53.29
-52.23
-48.21
-41.56
-32.93
-22.93
-12.15
-1.00
9.99
20.17
28.81
35.27
39.30
41.17
41.54
41.16
40.56
39.79
38.55
36.47
33.44
29.80
26.25
23.53
22.01
21.51
21.40
20.93
19.65
17.58
15.16
12.92
11.12
9.60
7.91
5.62
2.55
-1.03
-4.63
-7.78
-10.30
-12.41
-14.55
-17.13
-20.27
-23.77
-27.26
-30.42
-33.17
-35.64
-37.92
-39.77
-40.54
-39.26
-35.12
-27.79
-17.72
-6.04
5.86
16.68
25.61
32.33
36.92
39.54
40.27
39.06
35.87
30.85
24.52
17.73
11.48
6.69
3.89
3.10
3.96
5.88
8.36
11.06
13.82
16.52
18.98
20.86
21.79
21.50
19.97
17.46
14.38
11.07
7.66
3.94
-0.42
-5.70
-11.87
-18.51
-25.06
-30.99
-36.19
-41.00
-45.95
-51.36
-57.01
-61.97
-64.98
-64.88
-61.15
-54.07
-44.62
-33.96
-23.00
-12.12
-1.28
9.75
21.00
32.12
42.41
51.00
57.16
60.63
61.77
61.51
60.93
60.76
61.11
61.46
61.07
59.48
56.76
53.42
49.96
46.33
41.94
35.93
27.80
17.86
7.16
-2.94
-11.52
-18.42
-24.24
-29.92
-36.16
-43.07
-50.15
-56.60
-61.70
-65.21
-67.37
-68.70
-69.66
-70.49
-71.16
-71.59
-71.79
-71.84
-71.72
-71.07
-69.07
-64.68
-57.01
-45.81
-31.68
-15.90
-0.04
14.61
27.33
38.00
46.84
54.11
59.76
63.47
64.82
63.64
60.25
55.42
50.12
45.15
40.77
36.74
32.59
27.94
22.88
17.89
13.62
10.46
8.36
6.79
5.05
2.65
-0.47
-3.91
-7.06
-9.42
-10.87
-11.76
-12.71
-14.24
-16.52
-19.28
-21.97
-24.08
-25.43
-26.30
-27.21
-28.67
-30.91
-33.74
-36.77
-39.48
-41.47
-42.43
-42.08
-40.03
-35.85
-29.23
-20.21
-9.32
2.43
13.78
23.59
31.17
36.39
39.63
41.49
42.47
42.83
42.47
41.23
39.09
36.27
33.23
30.46
28.28
26.67
25.38
24.10
22.72
21.36
20.31
19.81
19.81
19.97
19.67
18.37
15.83
12.29
8.39
4.90
2.38
0.88
-0.05
-1.18
-3.18
-6.31
-10.29
-14.44
-18.09
-20.85
-22.87
-24.67
-26.79
-29.62
-33.08
-36.78
-40.15
-42.65
-43.94
-43.80
-42.03
-38.32
-32.42
-24.24
-14.19
-3.14
7.64
16.97
24.10
28.93
31.92
33.72
34.81
35.27
34.90
33.47
31.04
28.04
25.13
22.89
21.58
21.04
20.72
20.04
18.61
16.49
14.11
12.08
10.88
10.56
10.71
10.61
9.68
7.76
5.14
2.49
0.36
-1.09
-2.20
-3.56
-5.64
-8.46
-11.54
-14.22
-15.99
-16.86
-17.34
-18.20
-20.01
-22.85
-26.31
-29.72
-32.46
-34.20
-34.88
-34.52
-32.98
-29.94
-25.05
-18.19
-9.73
-0.54
8.21
15.52
20.81
24.10
25.83
26.57
26.73
26.41
25.48
23.78
21.39
18.63
16.02
13.98
12.68
11.93
11.30
10.41
9.11
7.60
6.30
5.58
5.52
5.81
5.89
5.23
3.58
1.13
-1.60
-4.00
-5.71
-6.81
-7.70
-8.99
-11.05
-13.87
-17.03
-19.91
-22.04
-23.33
-24.08
-24.85
-26.20
-28.36
-31.24
-34.38
-37.16
-38.91
-39.06
-37.28
-33.37
-27.42
-19.74
-10.88
-1.59
7.26
14.81
20.32
23.43
24.21
23.13
21.01
18.58
16.36
14.50
12.84
11.22
9.61
8.22
7.40
7.42
8.24
9.54
10.79
11.58
11.69
11.20
10.30
9.16
7.78
6.03
3.73
0.89
-2.24
-5.32
-7.96
-10.07
-11.85
-13.71
-16.01
-18.81
-21.79
-24.39
-26.03
-26.50
-26.12
-25.61
-25.84
-27.36
-30.10
-33.33
-35.85
-36.50
-34.59
-30.18
-23.92
-16.71
-9.28
-1.99
5.13
12.08
18.61
24.18
28.13
30.05
30.05
28.68
26.76
24.99
23.66
22.65
21.62
20.25
18.48
16.49
14.62
13.14
12.13
11.41
10.73
9.93
9.02
8.18
7.59
7.28
7.00
6.39
5.10
3.09
0.66
-1.69
-3.49
-4.66
-5.51
-6.64
-8.62
-11.64
-15.43
-19.35
-22.73
-25.16
-26.66
-27.72
-29.00
-31.00
-33.91
-37.45
-41.06
-44.10
-46.03
-46.49
-45.30
-42.33
-37.46
-30.70
-22.23
-12.58
-2.64
6.55
14.11
19.61
23.22
25.49
27.14
28.59
29.85
30.56
30.33
29.03
26.97
24.75
22.98
21.96
21.52
21.18
20.43
19.07
17.27
15.47
14.09
13.27
12.77
12.08
10.72
8.49
5.62
2.66
0.20
-1.44
-2.38
-3.13
-4.35
-6.49
-9.58
-13.20
-16.71
-19.59
-21.65
-23.15
-24.54
-26.26
-28.47
-31.05
-33.76
-36.45
-39.16
-41.92
-44.56
-46.44
-46.58
-43.98
-38.07
-29.15
-18.31
-7.05
3.25
11.83
18.66
24.15
28.80
32.75
35.79
37.48
37.53
36.02
33.43
30.49
27.85
25.91
24.64
23.79
23.00
22.10
21.11
20.26
19.78
19.74
19.88
19.71
18.75
16.77
13.95
10.88
8.24
6.47
5.49
4.77
3.61
1.51
-1.59
-5.23
-8.81
-11.84
-14.24
-16.28
-18.34
-20.67
-23.19
-25.65
-27.79
-29.64
-31.51
-33.82
-36.76
-40.05
-42.85
-44.07
-42.68
-38.19
-30.82
-21.45
-11.26
-1.32
7.70
15.62
22.55
28.52
33.35
36.62
37.95
37.37
35.39
32.89
30.73
29.33
28.49
27.60
26.02
23.57
20.65
18.06
16.60
16.52
17.46
18.48
18.64
17.38
14.81
11.59
8.52
6.14
4.41
2.86
0.88
-1.87
-5.30
-8.98
-12.38
-15.29
-17.80
-20.25
-22.92
-25.87
-28.92
-31.84
-34.50
-36.99
-39.51
-42.07
-44.28
-45.32
-44.20
-40.09
-32.76
-22.78
-11.34
0.12
10.40
18.85
25.44
30.52
34.50
37.53
39.47
40.04
39.15
37.00
34.17
31.32
29.00
27.40
26.33
25.37
24.16
22.62
20.94
19.49
18.57
18.17
17.92
17.24
15.68
13.18
10.08
7.00
4.49
2.64
1.09
-0.82
-3.64
-7.48
-11.96
-16.38
-20.09
-22.85
-24.88
-26.73
-28.97
-31.91
-35.51
-39.45
-43.32
-46.75
-49.41
-50.90
-50.70
-48.23
-43.10
-35.27
-25.20
-13.79
-2.20
8.50
17.58
24.76
30.18
34.21
37.23
39.43
40.79
41.13
40.39
38.71
36.53
34.35
32.58
31.27
30.16
28.83
27.03
24.83
22.61
20.84
19.78
19.28
18.79
17.72
15.68
12.72
9.34
6.16
3.62
1.69
-0.05
-2.22
-5.22
-9.08
-13.35
-17.43
-20.80
-23.36
-25.38
-27.36
-29.76
-32.78
-36.30
-40.02
-43.53
-46.42
-48.32
-48.87
-47.63
-44.22
-38.38
-30.13
-19.93
-8.65
2.60
12.71
20.99
27.20
31.60
34.68
36.86
38.29
38.84
38.27
36.50
33.85
30.88
28.20
26.16
24.79
23.83
22.95
21.88
20.58
19.26
18.24
17.72
17.54
17.28
16.40
14.55
11.67
8.18
4.93
2.71
1.81
1.79
1.72
0.69
-1.73
-5.58
-10.15
-14.20
-16.58
-16.96
-16.07
-15.22
-15.63
-17.73
-21.63
-26.26
-29.29
-27.99
-20.54
-6.64
12.69
35.66
60.21
82.86
100.46
111.30
115.29
113.21
106.34
96.23
84.07
70.05
51.28
24.57
-10.86
-52.27
-94.42
-131.14
-157.16
-169.93
-161.05
-130.18
-87.95
-49.59
-23.88
-10.21
-2.90
3.95
12.17
22.14
30.71
34.54
32.34
25.15
14.85
2.95
-8.96
-20.06
-30.09
-40.92
-54.22
-69.73
-85.09
-97.51
-105.30
-108.59
-109.33
-110.17
-114.21
-122.87
-134.98
-147.52
-157.45
-162.85
-163.06
-158.23
-148.67
-135.23
-119.24
-102.85
-89.33
-82.59
-85.38
-97.19
-113.26
-125.34
-124.71
-105.39
-66.71
-13.83
43.81
95.68
133.67
154.38
159.70
155.52
149.28
147.48
153.77
168.21
187.71
207.25
221.44
225.91
218.33
198.79
169.81
135.82
102.03
73.21
52.34
40.00
34.41
32.42
30.79
27.30
21.21
12.95
3.60
-5.75
-14.16
-20.82
-24.87
-25.50
-22.38
-16.10
-8.29
-1.21
3.10
3.77
1.41
-2.12
-4.68
-4.71
-1.78
3.45
9.75
16.01
21.54
26.17
29.96
32.95
34.97
35.73
34.96
32.64
29.15
25.20
21.65
19.15
18.01
18.01
18.58
19.06
19.00
18.33
17.36
16.58
16.38
16.80
17.53
17.98
17.62
16.22
14.01
11.49
9.25
7.57
6.29
4.92
2.90
-0.05
-3.70
-7.47
-10.67
-12.86
-14.05
-14.71
-15.47
-16.87
-19.19
-22.28
-25.64
-28.56
-30.33
-30.44
-28.67
-25.14
-20.28
-14.63
-8.76
-3.21
1.61
5.36
7.90
9.23
9.61
9.44
9.14
9.00
9.03
9.04
8.74
8.01
6.94
5.88
5.25
5.34
6.14
7.32
8.40
9.05
9.20
9.15
9.27
9.78
10.51
10.95
10.52
8.89
6.19
2.88
-0.43
-3.43
-6.13
-8.83
-11.83
-15.27
-19.01
-22.78
-26.33
-29.57
-32.55
-35.30
-37.67
-39.21
-39.33
-37.52
-33.61
-27.94
-21.32
-14.73
-8.97
-4.42
-0.96
1.82
4.35
6.73
8.78
10.13
10.52
10.05
9.07
8.14
7.72
7.96
8.75
9.74
10.63
11.21
11.46
11.49
11.40
11.16
10.61
9.53
7.78
5.43
2.73
0.06
-2.28
-4.27
-6.17
-8.36
-11.12
-14.43
-17.93
-21.16
-23.84
-26.05
-28.24
-30.92
-34.29
-37.97
-41.02
-42.25
-40.71
-36.11
-28.94
-20.29
-11.40
-3.18
3.95
10.11
15.59
20.54
24.85
28.17
30.21
30.98
30.74
29.91
28.89
27.78
26.47
24.78
22.68
20.38
18.27
16.73
15.89
15.57
15.31
14.61
13.19
11.06
8.50
5.93
3.57
1.42
-0.82
-3.49
-6.79
-10.64
-14.69
-18.48
-21.71
-24.38
-26.81
-29.47
-32.70
-36.46
-40.25
-43.20
-44.40
-43.21
-39.49
-33.61
-26.22
-18.05
-9.64
-1.33
6.68
14.12
20.65
25.83
29.38
31.26
31.70
31.17
30.10
28.81
27.34
25.62
23.57
21.31
19.12
17.39
16.43
16.22
16.43
16.51
15.99
14.69
12.78
10.63
8.56
6.60
4.47
1.79
-1.69
-5.86
-10.28
-14.41
-17.82
-20.46
-22.61
-24.75
-27.27
-30.37
-33.86
-37.29
-40.00
-41.30
-40.69
-37.86
-32.82
-25.79
-17.16
-7.42
2.84
12.94
22.10
29.64
35.09
38.42
40.00
40.42
40.26
39.80
38.97
37.54
35.40
32.75
30.04
27.87
26.58
26.16
26.26
26.37
26.12
25.41
24.31
22.99
21.58
20.00
18.08
15.63
12.57
8.94
4.96
0.79
-3.41
-7.62
-11.87
-16.06
-19.93
-23.11
-25.24
-26.24
-26.50
-26.76
-27.92
-30.62
-34.89
-40.09
-45.05
-48.57
-49.72
-48.14
-44.05
-38.00
-30.59
-22.35
-13.68
-4.91
3.53
11.16
17.53
22.43
25.94
28.40
30.23
31.74
32.98
33.79
33.91
33.20
31.77
29.92
28.06
26.52
25.41
24.55
23.63
22.32
20.47
18.17
15.66
13.21
10.91
8.63
6.09
3.06
-0.46
-4.20
-7.70
-10.56
-12.62
-14.16
-15.72
-17.92
-21.06
-25.03
-29.29
-33.14
-36.10
-38.11
-39.64
-41.31
-43.61
-46.52
-49.51
-51.74
-52.43
-51.23
-48.21
-43.77
-38.36
-32.19
-25.24
-17.42
-8.72
0.55
9.81
18.36
25.62
31.33
35.53
38.39
40.09
40.65
40.03
38.24
35.52
32.31
29.18
26.62
24.78
23.47
22.28
20.77
18.72
16.22
13.61
11.29
9.49
8.21
7.25
6.40
5.53
4.73
4.16
3.88
3.73
3.29
2.08
-0.22
-3.52
-7.40
-11.24
-14.56
-17.21
-19.49
-21.90
-24.90
-28.69
-33.12
-37.74
-41.97
-45.29
-47.27
-47.58
-45.90
-42.02
-35.84
-27.55
-17.65
-6.95
3.65
13.25
21.27
27.43
31.78
34.58
36.21
36.95
36.98
36.35
35.08
33.22
30.98
28.59
26.35
24.41
22.77
21.29
19.85
18.38
16.97
15.77
14.87
14.21
13.52
12.46
10.79
8.54
5.99
3.58
1.66
0.31
-0.69
-1.76
-3.28
-5.46
-8.27
-11.57
-15.21
-19.21
-23.74
-28.96
-34.91
-41.20
-47.01
-51.28
-52.97
-51.56
-47.18
-40.60
-32.87
-24.89
-17.11
-9.51
-1.86
5.90
13.48
20.27
25.66
29.34
31.44
32.41
32.72
32.56
31.74
29.90
26.78
22.59
18.03
14.10
11.65
10.99
11.75
13.07
13.98
13.90
12.71
10.70
8.29
5.75
3.14
0.38
-2.54
-5.52
-8.39
-11.01
-13.38
-15.68
-18.12
-20.79
-23.56
-26.09
-28.03
-29.12
-29.48
-29.57
-30.21
-32.20
-36.05
-41.67
-48.25
-54.43
-58.71
-59.90
-57.45
-51.53
-42.85
-32.31
-20.76
-8.87
2.87
13.97
23.92
32.18
38.32
42.18
43.90
43.93
42.85
41.18
39.27
37.25
35.12
32.92
30.80
28.99
27.70
26.93
26.46
25.92
25.02
23.64
21.94
20.18
18.53
16.98
15.24
12.95
9.91
6.18
2.04
-2.08
-5.89
-9.29
-12.44
-15.57
-18.83
-22.13
-25.22
-27.72
-29.44
-30.47
-31.28
-32.48
-34.56
-37.60
-41.17
-44.36
-46.16
-45.75
-42.81
-37.48
-30.26
-21.72
-12.38
-2.63
7.11
16.32
24.33
30.53
34.57
36.55
37.02
36.65
36.00
35.24
34.18
32.50
30.09
27.17
24.35
22.25
21.26
21.28
21.75
21.99
21.49
20.14
18.18
16.07
14.15
12.52
11.06
9.48
7.54
5.11
2.25
-0.87
-4.05
-7.17
-10.19
-13.11
-15.94
-18.62
-21.12
-23.44
-25.77
-28.42
-31.72
-35.80
-40.37
-44.69
-47.74
-48.45
-46.09
-40.50
-32.13
-21.93
-11.00
-0.30
9.51
18.15
25.53
31.61
36.26
39.38
40.97
41.34
40.94
40.29
39.64
38.85
37.50
35.12
31.58
27.15
22.53
18.53
15.79
14.55
14.60
15.38
16.17
16.34
15.51
13.57
10.67
7.06
3.02
-1.16
-5.15
-8.68
-11.43
-13.29
-14.33
-14.92
-15.58
-16.84
-18.99
-22.04
-25.70
-29.60
-33.41
-36.98
-40.28
-43.28
-45.73
-47.09
-46.57
-43.34
-36.88
-27.27
-15.35
-2.52
9.68
19.98
27.69
32.73
35.40
36.10
35.16
32.82
29.41
25.39
21.44
18.23
16.16
15.22
14.99
14.86
14.33
13.27
11.90
10.69
9.97
9.75
9.63
9.04
7.49
4.89
1.60
-1.81
-4.84
-7.34
-9.58
-12.05
-15.09
-18.73
-22.60
-26.12
-28.87
-30.76
-32.13
-33.53
-35.50
-38.31
-41.94
-46.07
-50.25
-53.94
-56.63
-57.78
-56.81
-53.28
-46.99
-38.18
-27.53
-16.08
-4.94
5.02
13.36
20.06
25.42
29.74
33.17
35.62
36.82
36.56
34.82
31.94
28.44
24.95
21.95
19.65
17.98
16.76
15.87
15.29
15.08
15.25
15.60
15.69
15.04
13.29
10.46
6.94
3.27
-0.08
-2.93
-5.48
-8.06
-10.85
-13.73
-16.22
-17.77
-18.13
-17.57
-16.93
-17.30
-19.52
-23.79
-29.51
-35.47
-40.19
-42.46
-41.61
-37.67
-31.22
-23.09
-14.15
-5.06
3.73
11.93
19.27
25.49
30.33
33.66
35.63
36.56
36.94
37.05
36.93
36.33
34.98
32.80
30.04
27.25
24.97
23.48
22.66
22.06
21.18
19.72
17.70
15.42
13.21
11.24
9.37
7.22
4.39
0.60
-4.13
-9.48
-14.96
-20.09
-24.55
-28.20
-31.14
-33.54
-35.65
-37.75
-40.11
-43.03
-46.61
-50.72
-54.79
-57.85
-58.81
-56.76
-51.34
-42.92
-32.50
-21.36
-10.65
-1.04
7.31
14.59
21.05
26.68
31.16
34.05
35.11
34.53
32.88
30.92
29.26
28.12
27.30
26.42
25.22
23.73
22.21
21.00
20.24
19.76
19.11
17.78
15.49
12.27
8.48
4.60
1.01
-2.18
-5.19
-8.33
-11.81
-15.54
-19.13
-22.12
-24.23
-25.61
-26.78
-28.50
-31.35
-35.52
-40.64
-45.88
-50.13
-52.32
-51.73
-48.05
-41.44
-32.42
-21.66
-9.90
2.17
13.92
24.67
33.81
40.87
45.64
48.29
49.31
49.28
48.65
47.53
45.77
43.15
39.64
35.54
31.44
27.96
25.44
23.84
22.80
21.87
20.75
19.38
17.85
16.24
14.54
12.55
10.09
7.08
3.64
-0.01
-3.60
-6.98
-10.19
-13.41
-16.79
-20.35
-24.00
-27.56
-30.90
-34.09
-37.33
-40.80
-44.40
-47.58
-49.37
-48.67
-44.59
-36.90
-26.09
-13.36
-0.18
12.17
22.83
31.52
38.27
43.25
46.53
48.09
47.99
46.50
44.13
41.52
39.18
37.34
35.84
34.34
32.48
30.21
27.79
25.68
24.34
23.92
24.20
24.61
24.47
23.32
21.10
18.10
14.87
11.83
9.07
6.31
3.03
-1.22
-6.56
-12.76
-19.26
-25.45
-30.86
-35.27
-38.69
-41.28
-43.37
-45.39
-47.83
-51.04
-55.03
-59.32
-62.90
-64.37
-62.40
-56.06
-45.16
-30.42
-13.27
4.38
20.62
33.97
43.69
49.79
52.87
53.74
53.12
51.43
48.80
45.36
41.34
37.12
33.12
29.60
26.61
23.96
21.40
18.84
16.41
14.38
12.99
12.25
11.80
11.14
9.78
7.61
4.89
2.18
-0.00
-1.47
-2.48
-3.66
-5.61
-8.62
-12.50
-16.66
-20.46
-23.53
-25.99
-28.37
-31.36
-35.44
-40.55
-46.12
-51.15
-54.61
-55.69
-54.04
-49.72
-43.12
-34.78
-25.26
-15.13
-4.93
4.81
13.60
21.06
26.97
31.29
34.19
35.89
36.61
36.47
35.47
33.54
30.73
27.31
23.75
20.61
18.31
16.98
16.35
16.00
15.51
14.66
13.45
12.03
10.46
8.64
6.41
3.65
0.46
-2.87
-5.96
-8.56
-10.70
-12.69
-14.91
-17.59
-20.66
-23.75
-26.37
-28.17
-29.14
-29.64
-30.29
-31.64
-33.98
-37.11
-40.31
-42.60
-42.97
-40.82
-36.08
-29.24
-21.07
-12.39
-3.77
4.50
12.28
19.40
25.55
30.32
33.39
34.75
34.73
33.92
32.90
32.02
31.22
30.26
28.86
26.99
24.95
23.20
22.06
21.51
21.14
20.43
19.01
16.87
14.35
11.91
9.80
7.97
6.10
3.82
0.94
-2.47
-6.15
-9.80
-13.29
-16.65
-20.03
-23.57
-27.28
-31.02
-34.63
-38.04
-41.40
-44.96
-48.85
-52.77
-55.95
-57.25
-55.55
-50.30
-41.70
-30.74
-18.76
-7.03
3.55
12.61
20.13
26.17
30.77
33.86
35.42
35.58
34.61
32.81
30.48
27.77
24.71
21.25
17.44
13.44
9.50
5.87
2.61
-0.45
-3.72
-7.74
-12.88
-19.16
-26.05
-32.57
-37.52
-39.98
-39.67
-37.18
-33.78
-30.94
-29.79
-30.72
-33.33
-36.71
-39.98
-42.59
-44.49
-46.01
-47.59
-49.62
-52.29
-55.52
-59.03
-62.19
-64.19
-64.08
-61.05
-54.61
-44.82
-32.21
-17.75
-2.63
11.97
25.14
36.30
45.33
52.42
57.90
62.03
64.83
66.20
66.02
64.41
61.79
58.79
56.01
53.79
52.12
50.76
49.45
48.05
46.57
45.06
43.45
41.55
39.05
35.75
31.65
27.03
22.31
17.83
13.69
9.70
5.50
0.76
-4.51
-10.02
-15.23
-19.66
-23.10
-25.85
-28.54
-31.97
-36.66
-42.60
-49.12
-55.07
-59.13
-60.25
-57.93
-52.24
-43.71
-33.10
-21.17
-8.60
4.03
16.17
27.22
36.67
44.14
49.49
52.80
54.32
54.39
53.29
51.32
48.73
45.86
43.12
40.92
39.58
39.23
39.68
40.52
41.17
41.14
40.19
38.34
35.86
33.12
30.35
27.57
24.59
21.16
17.14
12.58
7.73
2.96
-1.48
-5.53
-9.28
-12.88
-16.35
-19.59
-22.40
-24.71
-26.72
-28.81
-31.30
-34.12
-36.62
-37.75
-36.40
-31.94
-24.54
-15.10
-4.90
4.91
13.65
21.09
27.30
32.30
35.91
37.86
37.99
36.48
33.78
30.52
27.18
23.99
20.86
17.59
14.12
10.62
7.50
5.21
3.98
3.70
3.87
3.76
2.72
0.40
-3.12
-7.45
-11.99
-16.32
-20.26
-23.91
-27.56
-31.40
-35.40
-39.34
-42.88
-45.84
-48.31
-50.66
-53.40
-56.89
-61.20
-66.03
-70.76
-74.59
-76.81
-76.79
-74.12
-68.60
-60.26
-49.37
-36.53
-22.57
-8.50
4.68
16.17
25.53
32.64
37.74
41.21
43.45
44.72
45.15
44.78
43.64
41.83
39.53
36.95
34.28
31.70
29.36
27.40
25.98
25.17
24.98
25.22
25.52
25.37
24.28
21.95
18.47
14.28
10.01
6.25
3.20
0.70
-1.77
-4.62
-7.98
-11.57
-14.94
-17.79
-20.23
-22.82
-26.33
-31.34
-37.87
-45.27
-52.31
-57.48
-59.46
-57.46
-51.38
-41.82
-29.81
-16.52
-3.00
9.92
21.57
31.39
38.87
43.63
45.61
45.15
43.00
40.04
36.99
34.21
31.68
29.20
26.72
24.46
22.87
22.40
23.21
24.96
26.96
28.36
28.52
27.20
24.59
21.17
17.41
13.62
9.82
5.88
1.63
-3.00
-7.89
-12.79
-17.45
-21.77
-25.79
-29.63
-33.39
-37.10
-40.73
-44.30
-47.92
-51.68
-55.42
-58.60
-60.17
-58.92
-53.87
-44.75
-32.16
-17.53
-2.59
11.13
22.79
32.24
39.80
45.90
50.70
54.08
55.76
55.65
53.97
51.25
48.14
45.09
42.26
39.48
36.51
33.26
29.89
26.75
24.24
22.54
21.51
20.72
19.64
17.85
15.28
12.16
8.93
5.96
3.35
0.87
-1.88
-5.24
-9.23
-13.57
-17.82
-21.57
-24.70
-27.40
-30.02
-32.91
-36.27
-40.06
-44.14
-48.24
-52.01
-55.04
-56.73
-56.39
-53.42
-47.48
-38.64
-27.48
-14.95
-2.20
9.68
19.93
28.25
34.68
39.48
42.87
44.89
45.46
44.54
42.35
39.39
36.34
33.75
31.89
30.58
29.37
27.86
25.90
23.73
21.78
20.46
19.85
19.62
19.14
17.75
15.12
11.38
7.10
3.02
-0.33
-2.83
-4.80
-6.77
-9.21
-12.23
-15.60
-18.92
-21.82
-24.19
-26.20
-28.17
-30.38
-32.92
-35.75
-38.73
-41.81
-45.02
-48.31
-51.39
-53.58
-53.91
-51.42
-45.58
-36.53
-25.17
-12.86
-1.01
9.40
17.94
24.70
30.00
34.09
36.96
38.45
38.41
36.96
34.52
31.74
29.18
27.14
25.55
24.06
22.38
20.43
18.39
16.65
15.48
14.93
14.70
14.30
13.30
11.49
8.98
6.07
3.16
0.48
-1.93
-4.22
-6.59
-9.14
-11.79
-14.34
-16.58
-18.41
-19.96
-21.52
-23.39
-25.68
-28.32
-31.05
-33.67
-36.14
-38.57
-41.11
-43.61
-45.51
-45.94
-43.96
-39.01
-31.17
-21.19
-10.23
0.47
10.01
17.97
24.33
29.25
32.86
35.13
35.92
35.18
33.14
30.35
27.50
25.19
23.66
22.76
22.05
21.10
19.76
18.21
16.83
15.92
15.56
15.51
15.37
14.81
13.76
12.36
10.89
9.51
8.06
6.07
2.95
-1.74
-7.97
-15.19
-22.41
-28.54
-32.73
-34.71
-34.82
-33.95
-33.24
-33.71
-36.00
-40.12
-45.47
-50.92
-55.10
-56.65
-54.59
-48.50
-38.70
-26.13
-12.21
1.49
13.53
22.91
29.21
32.63
33.76
33.45
32.51
31.52
30.74
30.14
29.52
28.59
27.21
25.39
23.23
20.93
18.65
16.51
14.64
13.10
11.88
10.86
9.80
8.37
6.33
3.70
0.77
-1.99
-4.15
-5.57
-6.47
-7.37
-8.82
-11.08
-14.04
-17.25
-20.16
-22.41
-24.01
-25.32
-26.96
-29.53
-33.37
-38.40
-44.04
-49.33
-53.11
-54.31
-52.28
-46.88
-38.59
-28.25
-16.87
-5.41
5.37
14.84
22.57
28.32
32.12
34.22
35.08
35.13
34.63
33.59
31.85
29.34
26.22
22.91
19.97
17.84
16.66
16.21
16.09
15.88
15.36
14.54
13.62
12.79
12.15
11.56
10.79
9.57
7.80
5.55
2.98
0.22
-2.75
-6.08
-9.90
-14.12
-18.45
-22.42
-25.70
-28.23
-30.36
-32.73
-35.92
-40.18
-45.21
-50.14
-53.81
-55.15
-53.51
-48.87
-41.77
-33.01
-23.34
-13.30
-3.21
6.62
15.74
23.53
29.41
33.06
34.65
34.70
33.90
32.82
31.70
30.48
28.94
26.92
24.47
21.84
19.45
17.65
16.56
16.00
15.58
14.87
13.63
11.87
9.81
7.71
5.69
3.62
1.27
-1.52
-4.70
-7.97
-10.93
-13.34
-15.25
-16.94
-18.78
-21.00
-23.56
-26.24
-28.84
-31.33
-33.93
-36.91
-40.24
-43.40
-45.42
-45.15
-41.72
-34.96
-25.50
-14.48
-3.23
7.23
16.33
23.96
30.19
35.11
38.62
40.57
40.88
39.72
37.54
34.92
32.38
30.17
28.19
26.14
23.76
21.02
18.19
15.76
14.09
13.29
13.02
12.72
11.80
9.95
7.28
4.21
1.27
-1.17
-3.16
-5.07
-7.39
-10.41
-14.02
-17.75
-21.02
-23.44
-25.09
-26.46
-28.20
-30.80
-34.39
-38.74
-43.33
-47.59
-50.94
-52.86
-52.74
-50.06
-44.50
-36.10
-25.45
-13.57
-1.68
9.11
18.04
24.88
29.80
33.24
35.66
37.37
38.43
38.71
38.05
36.44
34.10
31.43
28.90
26.87
25.43
24.44
23.62
22.73
21.65
20.40
19.08
17.68
16.15
14.33
12.09
9.43
6.49
3.50
0.65
-2.02
-4.71
-7.72
-11.27
-15.35
-19.64
-23.67
-26.97
-29.38
-31.19
-33.04
-35.72
-39.74
-45.07
-51.03
-56.45
-59.99
-60.61
-57.84
-51.81
-43.20
-32.87
-21.66
-10.24
0.87
11.22
20.34
27.80
33.31
36.83
38.61
39.14
38.91
38.28
37.39
36.16
34.52
32.46
30.21
28.13
26.52
25.47
24.82
24.26
23.47
22.34
20.93
19.42
17.90
16.31
14.44
12.09
9.18
5.82
2.27
-1.17
-4.34
-7.23
-10.02
-12.89
-16.00
-19.36
-22.82
-26.20
-29.42
-32.59
-35.97
-39.80
-44.03
-48.15
-51.21
-52.04
-49.73
-43.98
-35.22
-24.47
-12.93
-1.65
8.71
17.86
25.68
32.00
36.58
39.21
39.92
39.12
37.49
35.71
34.17
32.83
31.35
29.34
26.78
24.05
21.80
20.57
20.46
21.03
21.49
21.08
19.44
16.72
13.39
10.05
7.05
4.43
1.93
-0.74
-3.84
-7.39
-11.25
-15.15
-18.86
-22.24
-25.26
-27.99
-30.55
-33.05
-35.61
-38.35
-41.44
-44.99
-48.87
-52.59
-55.23
-55.60
-52.67
-45.96
-35.83
-23.43
-10.33
2.04
12.75
21.55
28.61
34.22
38.57
41.60
43.19
43.33
42.27
40.42
38.28
36.18
34.25
32.41
30.53
28.53
26.53
24.74
23.38
22.49
21.85
21.02
19.60
17.34
14.39
11.14
8.10
5.61
3.65
1.84
-0.31
-3.21
-6.95
-11.29
-15.76
-19.89
-23.41
-26.37
-29.07
-31.90
-35.15
-38.92
-43.06
-47.31
-51.33
-54.71
-56.96
-57.38
-55.24
-49.99
-41.50
-30.30
-17.49
-4.44
7.58
17.74
25.82
31.97
36.56
39.88
42.01
42.89
42.47
40.87
38.45
35.73
33.24
31.27
29.80
28.56
27.21
25.57
23.74
22.07
20.91
20.37
20.22
19.91
18.84
16.70
13.58
9.92
6.32
3.23
0.71
-1.48
-3.79
-6.56
-9.85
-13.45
-16.96
-20.04
-22.60
-24.84
-27.08
-29.65
-32.71
-36.25
-40.12
-44.11
-47.97
-51.33
-53.58
-53.89
-51.41
-45.60
-36.51
-24.97
-12.35
-0.18
10.32
18.62
24.83
29.44
33.00
35.75
37.61
38.32
37.71
35.93
33.40
30.65
28.18
26.22
24.74
23.59
22.61
21.79
21.15
20.72
20.44
20.07
19.29
17.79
15.42
12.29
8.73
5.19
2.04
-0.59
-2.90
-5.30
-8.17
-11.68
-15.61
-19.51
-22.87
-25.44
-27.35
-29.06
-31.13
-33.98
-37.77
-42.32
-47.15
-51.61
-54.92
-56.32
-55.12
-50.91
-43.66
-33.80
-22.12
-9.67
2.49
13.50
22.79
30.15
35.60
39.38
41.77
42.98
43.15
42.34
40.63
38.24
35.53
32.94
30.85
29.39
28.40
27.49
26.32
24.76
22.99
21.35
20.12
19.23
18.28
16.73
14.24
10.91
7.26
3.98
1.52
-0.18
-1.66
-3.64
-6.63
-10.60
-15.06
-19.28
-22.69
-25.18
-27.10
-29.07
-31.67
-35.22
-39.68
-44.70
-49.69
-53.96
-56.73
-57.31
-55.10
-49.81
-41.53
-30.82
-18.59
-5.95
5.99
16.40
24.87
31.38
36.22
39.73
42.16
43.60
43.95
43.16
41.37
38.91
36.27
33.89
32.01
30.61
29.45
28.25
26.87
25.34
23.86
22.59
21.51
20.38
18.83
16.53
13.45
9.87
6.30
3.17
0.62
-1.60
-3.98
-7.00
-10.78
-15.02
-19.12
-22.50
-24.92
-26.60
-28.11
-30.06
-32.82
-36.46
-40.69
-45.09
-49.20
-52.56
-54.69
-55.05
-53.09
-48.43
-41.00
-31.16
-19.71
-7.72
3.70
13.67
21.76
27.95
32.52
35.83
38.11
39.35
39.45
38.38
36.33
33.80
31.34
29.40
28.12
27.30
26.59
25.68
24.51
23.20
21.93
20.82
19.73
18.36
16.40
13.69
10.38
6.81
3.44
0.63
-1.57
-3.42
-5.41
-7.99
-11.33
-15.26
-19.28
-22.81
-25.50
-27.43
-29.10
-31.19
-34.23
-38.34
-43.07
-47.56
-50.75
-51.73
-49.96
-45.28
-37.94
-28.48
-17.57
-5.98
5.53
16.14
25.16
32.10
36.78
39.35
40.25
39.98
38.96
37.39
35.18
32.19
28.30
23.66
18.64
13.83
9.75
6.75
4.81
3.65
2.79
1.76
0.27
-1.77
-4.24
-6.96
-9.67
-12.14
-14.15
-15.55
-16.36
-16.75
-17.10
-17.87
-19.35
-21.47
-23.72
-25.20
-24.85
-21.92
-16.23
-8.56
-0.46
6.17
9.81
9.97
7.52
4.39
2.82
4.47
9.81
18.12
27.97
37.87
46.84
54.36
60.26
64.37
66.46
66.36
64.20
60.46
55.84
50.98
46.13
41.08
35.38
28.67
20.94
12.69
4.79
-1.87
-6.70
-9.56
-10.76
-10.79
-10.08
-8.88
-7.21
-5.12
-2.81
-0.69
0.84
1.55
1.57
1.35
1.37
1.92
2.82
3.46
3.03
0.86
-3.32
-9.22
-16.13
-23.21
-29.83
-35.89
-41.74
-47.98
-55.00
-62.58
-69.70
-74.80
-76.31
-73.18
-65.20
-53.03
-37.85
-21.11
-4.30
11.12
23.71
32.25
36.02
35.13
30.61
24.18
17.68
12.46
8.96
6.79
5.07
3.08
0.55
-2.21
-4.60
-6.08
-6.39
-5.65
-4.13
-1.98
0.85
4.59
9.39
15.08
21.06
26.48
30.49
32.57
32.59
30.74
27.25
22.23
15.62
7.43
-1.96
-11.78
-21.00
-28.74
-34.56
-38.65
-41.57
-43.95
-46.14
-48.08
-49.38
-49.51
-48.07
-44.90
-40.11
-34.03
-27.14
-19.87
-12.50
-5.18
2.02
9.01
15.54
21.31
26.01
29.52
31.87
33.15
33.37
32.36
29.94
26.09
21.17
15.96
11.36
8.19
6.90
7.47
9.55
12.60
16.07
19.48
22.42
24.55
25.62
25.42
23.74
20.41
15.31
8.51
0.30
-8.71
-17.74
-26.01
-32.88
-38.08
-41.66
-43.88
-45.13
-45.76
-46.00
-46.03
-45.94
-45.74
-45.29
-44.20
-41.82
-37.44
-30.49
-20.91
-9.32
3.11
14.95
25.04
32.87
38.60
42.87
46.31
49.16
51.21
51.91
50.82
47.85
43.39
38.11
32.64
27.36
22.32
17.47
12.85
8.68
5.25
2.69
0.84
-0.83
-2.92
-5.85
-9.67
-13.98
-18.13
-21.48
-23.71
-24.94
-25.62
-26.34
-27.62
-29.62
-32.17
-34.85
-37.29
-39.25
-40.79
-42.09
-43.39
-44.92
-46.83
-49.21
-52.07
-55.22
-58.15
-59.99
-59.72
-56.42
-49.67
-39.73
-27.54
-14.44
-1.77
9.50
18.91
26.53
32.68
37.64
41.48
43.98
44.88
44.13
42.02
39.18
36.35
34.07
32.51
31.48
30.61
29.64
28.55
27.49
26.60
25.86
24.97
23.49
21.14
17.92
14.24
10.63
7.56
5.09
2.87
0.33
-3.05
-7.37
-12.23
-16.96
-20.88
-23.70
-25.68
-27.53
-30.09
-33.91
-39.01
-44.79
-50.17
-53.99
-55.29
-53.59
-48.91
-41.61
-32.24
-21.41
-9.72
2.21
13.66
23.86
32.13
38.09
41.79
43.68
44.39
44.47
44.16
43.37
41.85
39.49
36.48
33.34
30.69
28.95
28.13
27.78
27.29
26.17
24.31
21.97
19.56
17.36
15.34
13.22
10.65
7.48
3.86
0.14
-3.34
-6.43
-9.29
-12.27
-15.66
-19.56
-23.72
-27.75
-31.22
-34.01
-36.42
-39.10
-42.70
-47.55
-53.24
-58.66
-62.32
-62.89
-59.68
-52.91
-43.46
-32.50
-20.99
-9.57
1.46
11.77
20.88
28.17
33.12
35.61
36.07
35.39
34.61
34.45
35.18
36.53
37.97
39.04
39.55
39.64
39.58
39.58
39.59
39.30
38.31
36.36
33.45
29.86
26.06
22.41
19.04
15.79
12.35
8.41
3.91
-0.96
-5.83
-10.39
-14.55
-18.46
-22.39
-26.48
-30.64
-34.63
-38.25
-41.59
-45.04
-49.07
-53.82
-58.76
-62.67
-64.00
-61.37
-54.27
-43.29
-29.97
-16.16
-3.42
7.41
16.14
23.03
28.48
32.67
35.50
36.70
36.11
33.83
30.19
25.66
20.66
15.68
11.02
6.66
2.33
-2.30
-7.40
-12.91
-18.64
-24.33
-29.25
-33.11
-36.69
-41.78
-50.26
-63.16
-80.05
-98.98
-116.83
-128.83
-131.11
-122.29
-103.61
-77.84
-48.07
-17.41
10.98
34.02
51.54
64.50
74.00
80.91
86.30
91.36
96.91
103.02
109.74
120.77
140.25
169.97
207.63
247.64
283.15
308.18
318.83
297.62
237.86
149.39
54.90
-25.13
-82.31
-118.54
-139.96
-153.43
-164.45
-173.45
-178.84
-179.19
-173.83
-162.72
-145.58
-122.30
-94.89
-67.26
-41.53
-18.71
1.13
18.83
35.92
51.76
67.78
83.82
97.35
106.41
110.29
109.92
107.32
103.32
98.14
91.67
82.83
71.32
60.16
55.08
61.41
80.53
105.97
127.81
137.45
130.34
107.19
73.36
35.46
-2.78
-42.46
-90.42
-150.93
-220.64
-289.15
-343.40
-372.92
-373.64
-349.16
-292.87
-213.03
-129.37
-60.43
-12.93
16.30
33.02
42.02
45.38
43.87
36.21
23.27
8.34
-4.96
-14.51
-19.80
-20.96
-18.30
-12.52
-6.83
-3.69
-3.34
-4.27
-4.68
-3.54
-0.88
2.05
3.25
-0.36
-10.10
-24.71
-41.33
-57.20
-70.55
-80.62
-87.33
-90.77
-91.40
-89.06
-82.75
-71.24
-53.78
-30.56
-2.55
28.78
61.71
94.21
123.89
147.34
159.51
154.16
126.08
74.18
3.97
-72.41
-139.27
-182.36
-193.26
-171.50
-123.66
-60.56
5.63
63.67
104.77
123.69
119.95
98.16
67.00
36.38
13.94
2.60
0.50
3.35
7.77
13.21
21.69
35.59
55.22
77.52
96.89
107.48
105.65
91.51
68.95
44.01
22.55
8.29
1.76
0.47
0.14
-3.78
-14.59
-33.24
-57.98
-84.51
-106.87
-118.94
-116.42
-98.54
-68.90
-34.67
-4.31
15.48
22.13
17.89
8.40
0.15
-2.22
2.74
13.50
26.76
38.97
47.30
49.91
45.90
35.28
19.15
-0.22
-19.61
-35.62
-45.80
-49.45
-47.92
-44.03
-40.79
-40.19
-42.36
-45.75
-47.97
-47.25
-43.39
-37.84
-32.81
-29.59
-27.22
-22.07
-8.88
17.11
57.69
110.20
167.55
219.88
257.35
272.74
263.34
231.29
182.75
126.20
70.48
23.17
-10.67
-28.95
-32.45
-24.25
-8.77
9.09
24.95
35.64
39.62
37.08
29.66
19.81
10.15
2.81
-0.97
-1.04
1.62
4.91
5.81
0.81
-13.12
-37.26
-69.79
-105.44
-136.43
-154.83
-155.38
-137.74
-106.74
-70.82
-39.04
-18.17
-10.99
-16.34
-30.44
-48.65
-66.81
-81.76
-91.44
-94.71
-91.65
-83.58
-72.94
-62.53
-54.68
-50.63
-50.20
-52.17
-54.69
-56.06
-55.24
-51.93
-46.37
-38.96
-29.93
-19.16
-6.52
8.06
23.58
37.72
47.19
48.99
41.93
27.59
10.65
-2.38
-3.95
10.99
42.91
87.14
135.24
177.78
206.94
219.15
215.28
201.82
186.35
174.61
168.80
168.19
170.68
173.65
175.70
175.72
176.11
178.75
183.89
190.26
196.58
202.90
209.50
217.45
225.92
236.29
248.05
258.69
264.96
265.03
259.96
251.78
243.67
210.84
139.06
31.42
-90.60
-201.22
-284.40
-331.62
-353.71
-360.55
-359.54
-351.16
-334.29
-310.50
-283.19
-256.93
-235.38
-221.13
-213.17
-209.15
-202.92
-189.48
-167.47
-139.70
-111.48
-87.68
-71.47
-62.05
-56.71
-50.16
-38.21
-19.70
3.34
26.95
47.34
61.78
69.98
72.75
72.13
69.74
66.03
60.44
51.98
39.81
23.24
2.23
-22.86
-50.46
-77.74
-100.92
-116.09
-120.46
-113.38
-96.88
-75.10
-53.33
-36.60
-28.35
-29.77
-39.60
-54.64
-70.61
-83.17
-88.96
-86.09
-74.32
-54.71
-29.16
-0.18
29.24
55.87
76.91
90.83
98.04
100.57
101.08
101.42
101.59
99.87
93.79
81.65
63.57
41.50
18.49
-2.41
-18.94
-29.87
-34.89
-34.43
-29.50
-21.64
-12.91
-5.63
-1.89
-2.96
-8.89
-18.37
-29.05
-38.40
-44.24
-45.64
-43.16
-38.53
-33.78
-30.40
-28.89
-28.85
-29.43
-29.19
-27.11
-23.03
-17.53
-11.45
-5.29
0.87
7.19
13.72
21.44
30.73
40.63
48.80
52.52
50.09
41.54
28.84
15.43
7.18
8.81
21.65
42.93
67.55
90.74
109.67
123.73
133.94
144.48
159.18
179.69
204.91
232.37
259.44
283.41
301.02
293.68
249.84
172.35
79.16
-8.38
-77.08
-124.16
-153.30
-170.20
-179.59
-181.87
-176.46
-164.20
-148.46
-133.58
-122.65
-116.57
-114.42
-114.42
-112.84
-106.98
-96.54
-83.75
-71.83
-63.05
-58.07
-56.23
-56.18
-55.37
-51.89
-45.37
-37.10
-29.14
-23.03
-19.36
-17.84
-17.72
-17.57
-16.22
-13.32
-9.44
-5.68
-3.03
-2.07
-2.96
-5.45
-8.76
-11.93
-14.36
-15.28
-14.36
-11.54
-7.07
-1.53
4.21
9.19
12.71
14.49
14.89
14.53
14.11
14.03
14.24
14.33
13.83
12.36
9.90
6.74
3.41
0.45
-1.79
-3.09
-3.45
-3.00
-1.84
-0.00
2.63
6.18
10.62
15.43
19.95
23.45
25.51
26.16
25.89
25.44
25.48
26.51
28.36
30.72
33.08
35.00
36.04
35.85
34.11
30.37
26.18
22.35
19.79
19.27
21.32
26.01
32.93
41.22
49.87
58.00
64.74
69.68
72.69
73.82
73.03
70.32
65.71
59.47
52.12
44.18
36.28
28.89
22.25
16.35
11.08
6.32
2.03
-1.75
-5.14
-8.27
-11.34
-14.62
-18.30
-22.39
-26.77
-31.12
-35.14
-38.61
-41.46
-43.82
-46.00
-48.37
-51.32
-55.08
-59.62
-64.63
-69.38
-72.95
-74.26
-72.42
-66.92
-57.83
-45.74
-31.68
-16.81
-2.21
11.23
22.86
32.20
38.85
42.57
43.26
41.13
36.70
30.69
23.92
17.14
10.76
4.96
-0.38
-5.39
-10.12
-14.39
-17.87
-20.27
-21.51
-21.89
-21.96
-22.37
-23.59
-25.74
-28.60
-31.79
-34.92
-37.78
-40.39
-42.91
-45.64
-48.96
-53.17
-58.38
-64.30
-70.09
-74.54
-76.28
-74.22
-67.87
-57.49
-43.97
-28.57
-12.61
2.74
16.54
28.16
37.22
43.62
47.44
48.95
48.53
46.56
43.43
39.47
34.94
30.03
24.89
19.65
14.49
9.67
5.43
1.95
-0.75
-2.88
-4.88
-7.20
-10.22
-14.04
-18.50
-23.21
-27.76
-31.85
-35.42
-38.66
-41.97
-45.85
-50.77
-57.03
-64.55
-72.73
-80.48
-86.29
-88.63
-86.36
-79.08
-67.25
-52.04
-34.92
-17.30
-0.23
15.64
29.89
42.22
52.33
59.97
65.00
67.46
67.54
65.60
62.04
57.39
52.20
47.00
42.19
37.93
34.13
30.57
27.08
23.64
20.37
17.38
14.65
11.95
8.94
5.35
1.10
-3.69
-8.79
-14.03
-19.38
-24.98
-31.02
-37.65
-45.00
-53.05
-61.69
-70.56
-79.02
-86.00
-90.17
-90.23
-85.26
-75.09
-60.38
-42.49
-23.11
-3.83
14.14
30.07
43.62
54.63
63.02
68.67
71.54
71.77
69.75
66.12
61.65
57.02
52.63
48.58
44.68
40.71
36.58
32.41
28.45
24.92
21.85
19.06
16.21
12.93
8.99
4.31
-0.98
-6.68
-12.52
-18.28
-23.82
-29.16
-34.45
-39.91
-45.87
-52.59
-60.20
-68.55
-77.08
-84.73
-90.12
-91.80
-88.68
-80.35
-67.22
-50.44
-31.48
-11.88
7.06
24.38
39.40
51.64
60.79
66.74
69.64
69.85
67.91
64.41
59.92
54.94
49.85
44.86
40.10
35.59
31.32
27.29
23.52
20.00
16.66
13.34
9.85
6.02
1.76
-2.85
-7.68
-12.56
-17.41
-22.20
-26.95
-31.67
-36.36
-41.08
-46.07
-51.64
-58.13
-65.61
-73.66
-81.25
-86.89
-88.97
-86.28
-78.34
-65.55
-49.07
-30.42
-11.08
7.72
25.13
40.52
53.36
63.23
69.81
73.05
73.23
70.93
66.91
61.98
56.78
51.76
47.12
42.91
39.03
35.39
31.89
28.49
25.19
21.99
18.82
15.51
11.83
7.59
2.66
-2.90
-8.89
-15.00
-20.96
-26.64
-32.08
-37.46
-43.09
-49.31
-56.45
-64.66
-73.82
-83.29
-91.88
-97.92
-99.68
-95.83
-85.89
-70.46
-51.04
-29.54
-7.88
12.54
30.84
46.61
59.67
69.84
76.95
80.93
81.92
80.33
76.79
72.00
66.58
60.99
55.50
50.28
45.41
41.00
37.03
33.40
29.87
26.18
22.11
17.58
12.63
7.37
1.84
-3.95
-10.00
-16.28
-22.70
-29.04
-35.18
-41.08
-46.89
-52.95
-59.65
-67.31
-75.94
-85.12
-93.87
-100.79
-104.28
-102.95
-96.03
-83.60
-66.56
-46.36
-24.70
-3.12
17.14
35.17
50.38
62.42
71.18
76.76
79.50
79.86
78.34
75.40
71.39
66.68
61.60
56.56
51.94
48.02
44.87
42.29
39.87
37.16
33.80
29.73
25.10
20.24
15.43
10.73
6.02
1.03
-4.44
-10.45
-16.83
-23.30
-29.59
-35.62
-41.46
-47.37
-53.61
-60.42
-67.95
-76.17
-84.76
-92.96
-99.50
-102.80
-101.31
-94.02
-80.88
-62.84
-41.65
-19.36
2.23
21.85
38.81
52.84
63.84
71.76
76.56
78.37
77.54
74.65
70.41
65.52
60.50
55.60
50.95
46.56
42.47
38.76
35.47
32.54
29.77
26.92
23.82
20.38
16.62
12.57
8.24
3.62
-1.33
-6.58
-12.08
-17.83
-23.78
-29.89
-36.01
-41.94
-47.58
-53.10
-58.95
-65.70
-73.59
-82.15
-90.10
-95.54
-96.57
-91.91
-81.32
-65.61
-46.36
-25.41
-4.40
15.43
33.31
48.76
61.48
71.21
77.72
81.00
81.33
79.29
75.67
71.21
66.49
61.80
57.24
52.84
48.73
45.03
41.85
39.13
36.64
34.03
30.98
27.31
22.96
18.00
12.50
6.55
0.19
-6.49
-13.31
-20.04
-26.42
-32.31
-37.77
-43.13
-48.85
-55.45
-63.30
-72.48
-82.62
-92.88
-101.96
-108.25
-110.24
-106.76
-97.43
-82.65
-63.59
-41.86
-19.13
3.10
23.69
41.79
56.79
68.33
76.34
81.03
82.89
82.58
80.72
77.90
74.50
70.79
66.93
63.05
59.31
55.82
52.69
49.87
47.16
44.28
40.96
37.04
32.58
27.76
22.76
17.58
12.05
5.94
-0.81
-7.97
-15.09
-21.70
-27.58
-32.85
-37.92
-43.29
-49.37
-56.38
-64.42
-73.40
-83.00
-92.48
-100.55
-105.59
-105.96
-100.49
-88.92
-72.04
-51.41
-29.00
-6.60
14.44
33.30
49.55
62.90
73.11
80.02
83.66
84.38
82.88
79.98
76.46
72.78
69.08
65.32
61.44
57.55
53.90
50.69
47.99
45.54
42.95
39.76
35.69
30.72
25.09
19.16
13.28
7.63
2.16
-3.28
-8.92
-14.86
-21.06
-27.34
-33.49
-39.34
-44.85
-50.17
-55.57
-61.44
-68.12
-75.76
-84.10
-92.33
-99.07
-102.61
-101.41
-94.51
-81.89
-64.43
-43.67
-21.43
0.62
21.06
38.89
53.44
64.37
71.65
75.53
76.51
75.24
72.40
68.58
64.23
59.68
55.13
50.72
46.58
42.83
39.59
36.94
34.84
33.08
31.32
29.16
26.29
22.53
17.96
12.81
7.34
1.75
-3.88
-9.52
-15.22
-20.92
-26.60
-32.21
-37.76
-43.36
-49.20
-55.53
-62.61
-70.60
-79.36
-88.25
-96.05
-101.05
-101.51
-96.25
-85.03
-68.72
-49.02
-27.89
-7.06
12.27
29.47
44.19
56.17
65.16
70.97
73.66
73.65
71.64
68.45
64.75
60.95
57.19
53.44
49.66
45.94
42.51
39.61
37.35
35.62
33.97
31.84
28.76
24.53
19.34
13.65
8.00
2.69
-2.29
-7.24
-12.55
-18.38
-24.64
-31.00
-37.10
-42.77
-48.15
-53.67
-59.81
-67.00
-75.34
-84.42
-93.34
-100.71
-104.96
-104.65
-98.90
-87.56
-71.33
-51.59
-30.03
-8.33
12.11
30.33
45.76
58.17
67.57
74.10
77.97
79.47
78.92
76.66
73.04
68.45
63.31
58.11
53.29
49.20
46.01
43.59
41.68
39.89
37.83
35.25
32.02
28.15
23.75
18.97
13.94
8.74
3.34
-2.35
-8.39
-14.77
-21.35
-27.90
-34.19
-40.13
-45.75
-51.24
-56.93
-63.18
-70.21
-77.91
-85.64
-92.17
-95.91
-95.30
-89.35
-77.99
-62.09
-43.22
-23.20
-3.67
14.24
29.83
42.82
53.06
60.52
65.19
67.17
66.75
64.38
60.68
56.35
52.00
48.08
44.78
42.10
39.91
38.03
36.25
34.42
32.38
30.01
27.21
23.99
20.44
16.70
12.91
9.17
5.42
1.48
-2.91
-7.95
-13.65
-19.78
-25.90
-31.53
-36.46
-40.84
-45.24
-50.39
-56.92
-64.88
-73.60
-81.76
-87.60
-89.50
-86.36
-77.93
-64.86
-48.42
-30.17
-11.53
6.39
22.82
37.20
49.00
57.75
63.12
65.20
64.51
61.95
58.45
54.73
51.11
47.56
43.96
40.32
36.83
33.80
31.39
29.46
27.60
25.34
22.38
18.75
14.73
10.64
6.66
2.70
-1.53
-6.34
-11.82
-17.83
-24.03
-30.08
-35.79
-41.25
-46.73
-52.65
-59.43
-67.30
-76.14
-85.31
-93.60
-99.37
-101.00
-97.29
-87.93
-73.54
-55.49
-35.50
-15.20
4.17
21.78
37.06
49.63
59.24
65.81
69.48
70.69
70.03
68.12
65.45
62.35
58.98
55.43
51.81
48.27
44.95
41.95
39.17
36.43
33.44
30.00
26.04
21.59
16.75
11.52
5.90
-0.21
-6.75
-13.47
-19.99
-25.97
-31.28
-36.09
-40.87
-46.16
-52.44
-59.94
-68.57
-77.87
-86.97
-94.61
-99.33
-99.72
-94.82
-84.42
-69.21
-50.62
-30.41
-10.33
8.32
24.78
38.78
50.37
59.62
66.49
70.85
72.67
72.18
69.88
66.52
62.79
59.16
55.82
52.75
49.93
47.39
45.20
43.32
41.58
39.61
37.05
33.67
29.40
24.39
18.92
13.28
7.72
2.36
-2.77
-7.77
-12.80
-18.00
-23.42
-29.02
-34.77
-40.76
-47.25
-54.54
-62.69
-71.26
-79.13
-84.72
-86.37
-82.92
-74.11
-60.66
-44.03
-25.95
-7.89
9.12
24.55
38.13
49.60
58.64
64.98
68.53
69.57
68.64
66.37
63.27
59.69
55.83
51.93
48.28
45.24
42.99
41.47
40.30
38.95
37.00
34.20
30.59
26.32
21.64
16.75
11.81
6.91
2.04
-2.89
-8.05
-13.55
-19.35
-25.29
-31.11
-36.71
-42.18
-47.85
-54.15
-61.35
-69.24
-77.07
-83.55
-87.20
-86.70
-81.29
-71.04
-56.72
-39.69
-21.50
-3.54
13.11
27.78
40.11
49.88
56.99
61.36
63.07
62.40
59.85
56.11
51.89
47.78
44.13
41.04
38.44
36.18
34.10
32.07
29.93
27.48
24.59
21.19
17.35
13.20
8.84
4.31
-0.45
-5.51
-10.86
-16.41
-22.03
-27.66
-33.30
-39.08
-45.16
-51.71
-58.86
-66.57
-74.59
-82.34
-88.83
-92.78
-92.87
-88.14
-78.29
-63.88
-46.14
-26.74
-7.32
10.77
26.69
40.00
50.53
58.29
63.33
65.78
65.96
64.34
61.52
58.12
54.65
51.39
48.45
45.78
43.27
40.80
38.30
35.67
32.84
29.76
26.40
22.76
18.82
14.52
9.82
4.75
-0.60
-6.06
-11.46
-16.74
-21.91
-27.08
-32.36
-37.88
-43.79
-50.25
-57.45
-65.34
-73.46
-80.79
-85.87
-87.17
-83.60
-74.84
-61.51
-44.92
-26.66
-8.24
9.18
24.82
38.17
48.94
56.93
62.08
64.53
64.65
63.01
60.30
57.14
53.98
50.99
48.14
45.27
42.28
39.22
36.26
33.63
31.47
29.74
28.17
26.32
23.75
20.15
15.45
9.86
3.83
-2.23
-8.02
-13.51
-18.89
-24.45
-30.42
-36.90
-43.91
-51.42
-59.32
-67.33
-74.75
-80.42
-82.94
-81.03
-74.07
-62.33
-46.94
-29.51
-11.63
5.49
21.14
34.91
46.46
55.40
61.32
64.03
63.76
61.22
57.39
53.26
49.50
46.29
43.42
40.54
37.43
34.08
30.71
27.59
24.88
22.56
20.48
18.33
15.78
12.57
8.55
3.78
-1.48
-6.88
-12.06
-16.85
-21.32
-25.75
-30.49
-35.83
-41.92
-48.75
-56.15
-63.70
-70.70
-76.08
-78.60
-77.12
-71.00
-60.33
-46.01
-29.47
-12.30
4.16
19.00
31.76
42.25
50.35
55.89
58.76
59.01
56.99
53.40
49.11
44.97
41.43
38.61
36.26
34.00
31.58
28.87
25.98
23.07
20.28
17.67
15.13
12.46
9.42
5.85
1.75
-2.71
-7.22
-11.52
-15.48
-19.23
-23.11
-27.49
-32.66
-38.70
-45.41
-52.35
-58.78
-63.73
-66.08
-64.80
-59.26
-49.45
-36.11
-20.48
-4.09
11.70
25.88
37.85
47.31
54.10
58.18
59.57
58.55
55.59
51.44
46.87
42.51
38.72
35.51
32.65
29.84
26.90
23.78
20.59
17.48
14.54
11.76
8.95
5.85
2.18
-2.18
-7.19
-12.60
-18.04
-23.18
-27.92
-32.43
-37.13
-42.50
-48.93
-56.54
-65.08
-73.95
-82.29
-88.98
-92.88
-92.88
-88.29
-78.94
-65.38
-48.83
-30.91
-13.26
2.81
16.49
27.45
35.70
41.36
44.61
45.66
44.87
42.77
39.97
37.02
34.25
31.68
29.14
26.44
23.51
20.51
17.65
15.14
12.94
10.84
8.53
5.74
2.29
-1.80
-6.42
-11.38
-16.46
-21.46
-26.16
-30.53
-34.67
-38.94
-43.77
-49.56
-56.49
-64.44
-72.96
-81.27
-88.33
-92.91
-93.81
-90.16
-81.70
-68.88
-52.81
-34.91
-16.51
1.35
17.94
32.78
45.42
55.49
62.71
67.11
69.06
69.15
68.09
66.45
64.61
62.73
60.82
58.81
56.59
54.12
51.40
48.55
45.62
42.62
39.46
35.96
32.03
27.66
23.00
18.21
13.42
8.62
3.71
-1.34
-6.54
-11.79
-17.06
-22.43
-28.17
-34.60
-42.00
-50.30
-58.95
-66.91
-72.76
-75.17
-73.19
-66.57
-55.86
-42.18
-26.86
-11.13
4.06
18.08
30.41
40.61
48.26
53.10
55.13
54.75
52.62
49.51
46.14
43.01
40.30
37.98
35.86
33.71
31.34
28.71
25.88
23.00
20.22
17.60
15.12
12.59
9.77
6.44
2.51
-1.97
-6.81
-11.79
-16.70
-21.48
-26.15
-30.86
-35.84
-41.38
-47.72
-54.89
-62.58
-69.91
-75.62
-78.29
-76.78
-70.61
-60.07
-46.19
-30.34
-13.93
1.94
16.49
29.22
39.80
47.96
53.53
56.48
57.04
55.65
53.00
49.79
46.59
43.76
41.33
39.15
37.03
34.84
32.60
30.40
28.30
26.27
24.18
21.77
18.80
15.06
10.48
5.11
-0.81
-6.91
-12.76
-18.03
-22.61
-26.66
-30.60
-34.95
-40.19
-46.62
-54.28
-62.81
-71.39
-78.80
-83.57
-84.35
-80.32
-71.41
-58.35
-42.44
-25.16
-7.83
8.55
23.34
36.13
46.65
54.70
60.20
63.19
63.88
62.66
60.03
56.56
52.83
49.30
46.27
43.84
41.93
40.35
38.85
37.20
35.21
32.79
29.95
26.70
23.10
19.14
14.78
9.98
4.76
-0.82
-6.64
-12.57
-18.47
-24.23
-29.81
-35.21
-40.53
-46.04
-52.06
-58.84
-66.33
-73.97
-80.69
-85.11
-85.89
-82.13
-73.65
-61.00
-45.24
-27.73
-9.82
7.35
22.84
36.00
46.37
53.74
58.18
59.99
59.68
57.88
55.19
52.08
48.86
45.69
42.68
39.91
37.47
35.40
33.65
32.03
30.33
28.32
25.92
23.13
20.06
16.80
13.37
9.72
5.67
1.13
-3.94
-9.42
-15.11
-20.74
-26.12
-31.17
-35.99
-40.84
-46.10
-52.12
-59.02
-66.56
-73.99
-80.11
-83.51
-82.96
-77.73
-67.86
-54.17
-38.02
-20.97
-4.41
10.63
23.56
34.15
42.34
48.17
51.67
52.93
52.20
49.89
46.63
43.05
39.71
36.93
34.72
32.87
31.07
29.09
26.80
24.28
21.67
19.13
16.72
14.36
11.85
8.94
5.43
1.28
-3.35
-8.19
-12.96
-17.47
-21.73
-25.82
-29.92
-34.23
-38.96
-44.37
-50.69
-57.90
-65.52
-72.47
-77.19
-78.12
-74.21
-65.36
-52.45
-37.07
-20.91
-5.34
8.86
21.36
32.05
40.83
47.50
51.86
53.86
53.68
51.81
48.87
45.54
42.29
39.36
36.78
34.41
32.16
29.95
27.81
25.76
23.79
21.83
19.74
17.35
14.53
11.17
7.23
2.80
-2.01
-7.01
-12.07
-17.12
-22.16
-27.23
-32.38
-37.67
-43.20
-49.17
-55.80
-63.14
-70.80
-77.84
-82.87
-84.39
-81.34
-73.46
-61.43
-46.56
-30.45
-14.40
0.70
14.36
26.34
36.38
44.19
49.48
52.17
52.51
50.98
48.27
44.99
41.58
38.27
35.09
32.07
29.22
26.59
24.19
22.00
19.89
17.70
15.27
12.47
9.25
5.59
1.59
-2.65
-6.96
-11.19
-15.24
-19.11
-22.84
-26.52
-30.29
-34.25
-38.63
-43.64
-49.40
-55.82
-62.38
-68.12
-71.75
-71.99
-67.93
-59.31
-46.66
-31.14
-14.25
2.58
18.24
32.11
43.87
53.41
60.64
65.45
67.88
68.18
66.86
64.50
61.61
58.44
55.04
51.43
47.71
44.14
41.01
38.47
36.40
34.44
32.19
29.38
25.99
22.16
18.14
14.04
9.92
5.69
1.31
-3.27
-7.96
-12.69
-17.44
-22.27
-27.38
-32.99
-39.29
-46.29
-53.69
-60.78
-66.54
-69.76
-69.36
-64.69
-55.79
-43.39
-28.74
-13.23
1.87
15.59
27.30
36.54
43.03
46.70
47.74
46.71
44.38
41.52
38.71
36.21
33.96
31.75
29.40
26.84
24.15
21.52
19.10
16.97
15.07
13.17
10.92
8.00
4.26
-0.22
-5.15
-10.22
-15.19
-20.01
-24.76
-29.58
-34.61
-40.00
-45.94
-52.65
-60.25
-68.54
-76.76
-83.60
-87.47
-86.96
-81.32
-70.77
-56.39
-39.82
-22.72
-6.40
8.35
21.22
32.05
40.78
47.24
51.33
53.14
53.07
51.76
49.92
48.09
46.45
44.89
43.05
40.72
37.89
34.80
31.87
29.38
27.33
25.39
23.07
19.88
15.55
10.19
4.19
-1.91
-7.67
-12.90
-17.72
-22.46
-27.58
-33.45
-40.31
-48.27
-57.22
-66.71
-75.96
-83.74
-88.57
-89.11
-84.54
-74.88
-61.00
-44.40
-26.69
-9.26
7.01
21.65
34.45
45.19
53.62
59.45
62.57
63.15
61.69
58.94
55.66
52.40
49.42
46.60
43.67
40.39
36.75
32.97
29.41
26.37
23.88
21.66
19.22
16.09
12.01
7.07
1.59
-4.01
-9.40
-14.55
-19.57
-24.74
-30.31
-36.50
-43.42
-51.08
-59.29
-67.53
-74.87
-80.04
-81.71
-78.81
-70.97
-58.60
-42.86
-25.33
-7.59
9.07
23.87
36.45
46.79
54.97
61.00
64.88
66.64
66.46
64.75
62.08
59.03
56.03
53.24
50.57
47.83
44.88
41.70
38.41
35.17
32.04
28.97
25.75
22.16
18.04
13.37
8.30
3.06
-2.13
-7.18
-12.14
-17.21
-22.55
-28.30
-34.50
-41.17
-48.37
-56.10
-64.18
-72.02
-78.54
-82.35
-82.09
-76.90
-66.75
-52.54
-35.81
-18.29
-1.51
13.53
26.30
36.67
44.64
50.23
53.46
54.44
53.51
51.28
48.48
45.76
43.44
41.42
39.30
36.68
33.43
29.79
26.29
23.44
21.41
19.93
18.40
16.13
12.65
7.92
2.27
-3.74
-9.59
-14.95
-19.83
-24.43
-29.07
-34.09
-39.77
-46.24
-53.53
-61.45
-69.45
-76.52
-81.27
-82.26
-78.42
-69.48
-56.12
-39.81
-22.37
-5.41
9.96
23.26
34.39
43.38
50.20
54.73
56.95
57.07
55.59
53.18
50.50
47.89
45.40
42.84
39.99
36.84
33.59
30.60
28.14
26.23
24.63
22.90
20.57
17.30
12.98
7.72
1.85
-4.25
-10.15
-15.55
-20.40
-24.86
-29.30
-34.15
-39.75
-46.28
-53.78
-62.09
-70.73
-78.88
-85.31
-88.57
-87.34
-80.89
-69.45
-54.15
-36.72
-18.99
-2.34
12.48
25.20
35.82
44.31
50.49
54.18
55.39
54.45
52.04
48.98
45.96
43.32
41.11
39.09
37.02
34.77
32.37
29.92
27.49
25.05
22.46
19.56
16.24
12.49
8.36
3.94
-0.71
-5.47
-10.24
-14.87
-19.23
-23.31
-27.16
-31.02
-35.14
-39.88
-45.54
-52.25
-59.85
-67.67
-74.50
-78.78
-79.01
-74.25
-64.56
-50.98
-35.19
-18.89
-3.27
11.12
24.25
36.14
46.58
55.04
60.92
63.91
64.24
62.58
59.78
56.59
53.39
50.30
47.29
44.39
41.70
39.32
37.24
35.28
33.18
30.67
27.66
24.20
20.39
16.35
12.07
7.49
2.60
-2.57
-7.82
-12.99
-17.92
-22.63
-27.25
-32.13
-37.61
-44.01
-51.42
-59.58
-67.87
-75.28
-80.57
-82.55
-80.35
-73.74
-63.22
-49.93
-35.24
-20.39
-6.11
7.33
19.84
31.18
40.78
47.90
51.95
52.90
51.39
48.45
45.11
42.02
39.36
36.98
34.66
32.31
30.01
27.82
25.73
23.58
21.17
18.34
15.05
11.35
7.32
3.03
-1.51
-6.32
-11.39
-16.63
-21.96
-27.26
-32.47
-37.69
-43.18
-49.31
-56.43
-64.59
-73.27
-81.33
-87.14
-89.01
-85.78
-77.11
-63.67
-46.84
-28.23
-9.36
8.70
25.16
39.49
51.24
60.01
65.65
68.29
68.41
66.71
63.93
60.68
57.38
54.21
51.26
48.54
46.01
43.61
41.18
38.56
35.57
32.17
28.39
24.28
19.86
15.05
9.74
3.92
-2.27
-8.58
-14.73
-20.62
-26.34
-32.17
-38.53
-45.76
-54.03
-63.30
-73.19
-82.99
-91.57
-97.56
-99.54
-96.42
-87.81
-74.18
-56.81
-37.39
-17.61
1.18
18.18
32.97
45.37
55.24
62.40
66.80
68.57
68.13
66.12
63.21
59.99
56.85
53.96
51.33
48.89
46.56
44.24
41.84
39.25
36.37
33.09
29.36
25.15
20.53
15.55
10.32
4.86
-0.79
-6.66
-12.66
-18.70
-24.68
-30.58
-36.57
-43.00
-50.23
-58.48
-67.54
-76.63
-84.53
-89.69
-90.70
-86.63
-77.29
-63.26
-45.76
-26.32
-6.50
12.41
29.43
43.97
55.68
64.46
70.38
73.70
74.80
74.18
72.35
69.81
67.00
64.21
61.59
59.16
56.85
54.52
51.97
49.01
45.52
41.48
36.99
32.27
27.48
22.73
17.96
12.99
7.62
1.79
-4.42
-10.76
-16.94
-22.79
-28.34
-33.79
-39.50
-45.80
-53.00
-61.15
-70.00
-78.83
-86.45
-91.37
-92.10
-87.58
-77.56
-62.81
-44.87
-25.67
-6.97
10.00
24.64
36.83
46.61
53.97
58.84
61.18
61.16
59.20
55.93
52.01
47.99
44.17
40.68
37.51
34.59
31.82
29.16
26.55
23.92
21.18
18.22
14.92
11.16
6.93
2.30
-2.58
-7.50
-12.36
-17.10
-21.82
-26.65
-31.71
-37.09
-42.88
-49.26
-56.45
-64.54
-73.23
-81.62
-88.25
-91.38
-89.56
-82.12
-69.40
-52.68
-33.71
-14.27
4.25
20.92
35.18
46.70
55.28
60.90
63.76
64.29
63.10
60.85
58.04
55.01
51.87
48.64
45.32
41.98
38.72
35.65
32.79
30.08
27.37
24.50
21.32
17.67
13.42
8.50
2.96
-3.08
-9.33
-15.49
-21.38
-26.99
-32.52
-38.33
-44.73
-51.96
-60.09
-68.92
-77.88
-86.00
-91.96
-94.29
-91.81
-83.99
-71.18
-54.56
-35.81
-16.65
1.56
17.93
32.04
43.69
52.71
58.98
62.44
63.22
61.70
58.57
54.62
50.59
46.96
43.91
41.30
38.87
36.36
33.64
30.76
27.82
24.92
22.00
18.88
15.28
11.02
6.05
0.57
-5.12
-10.69
-15.89
-20.69
-25.23
-29.79
-34.66
-40.13
-46.40
-53.55
-61.47
-69.79
-77.75
-84.26
-87.93
-87.45
-81.92
-71.21
-56.03
-37.83
-18.35
0.76
18.28
33.49
46.05
55.81
62.68
66.70
68.03
67.09
64.53
61.10
57.45
54.00
50.88
47.96
45.06
42.03
38.85
35.62
32.45
29.38
26.34
23.13
19.53
15.36
10.53
5.10
-0.71
-6.63
-12.39
-17.83
-23.04
-28.22
-33.67
-39.65
-46.29
-53.62
-61.59
-69.97
-78.31
-85.73
-90.90
-92.34
-88.82
-79.85
-65.98
-48.64
-29.72
-10.99
6.29
21.50
34.36
44.74
52.44
57.24
59.14
58.52
56.15
52.98
49.86
47.22
45.05
42.98
40.65
37.84
34.63
31.30
28.15
25.31
22.72
20.11
17.10
13.39
8.78
3.30
-2.76
-8.99
-14.99
-20.47
-25.43
-30.17
-35.11
-40.72
-47.33
-55.05
-63.71
-72.79
-81.33
-88.02
-91.37
-90.10
-83.54
-71.91
-56.27
-38.25
-19.53
-1.51
14.92
29.30
41.42
51.12
58.20
62.58
64.37
63.98
62.07
59.36
56.41
53.51
50.64
47.66
44.43
40.97
37.41
33.99
30.86
28.03
25.35
22.53
19.21
15.13
10.20
4.55
-1.49
-7.55
-13.29
-18.61
-23.65
-28.71
-34.19
-40.40
-47.60
-55.85
-64.97
-74.38
-83.06
-89.54
-92.28
-90.06
-82.40
-69.79
-53.53
-35.34
-16.86
0.70
16.62
30.58
42.33
51.68
58.42
62.47
63.98
63.37
61.27
58.32
55.08
51.92
49.02
46.39
43.97
41.63
39.25
36.75
34.08
31.22
28.18
24.94
21.39
17.36
12.69
7.32
1.37
-4.86
-11.00
-16.76
-22.11
-27.25
-32.58
-38.43
-45.09
-52.64
-61.02
-69.89
-78.60
-86.09
-91.05
-92.17
-88.56
-80.04
-67.27
-51.48
-34.19
-16.78
-0.34
14.41
26.98
37.05
44.46
49.27
51.75
52.43
52.01
51.23
50.71
50.83
51.62
52.78
53.83
54.29
53.89
52.57
50.54
48.02
45.22
42.14
38.64
34.48
29.52
23.80
17.52
11.05
4.72
-1.30
-7.01
-12.64
-18.50
-24.85
-31.82
-39.49
-47.76
-56.37
-64.74
-71.94
-76.68
-77.71
-74.13
-65.80
-53.46
-38.53
-22.64
-7.16
7.00
19.41
29.93
38.45
44.80
48.85
50.61
50.36
48.62
46.00
43.07
40.20
37.60
35.31
33.28
31.39
29.51
27.51
25.28
22.84
20.26
17.64
14.98
12.15
8.93
5.13
0.66
-4.36
-9.69
-15.06
-20.30
-25.31
-30.14
-34.93
-39.90
-45.29
-51.31
-58.03
-65.14
-71.88
-76.99
-79.10
-77.12
-70.56
-59.82
-45.95
-30.36
-14.36
1.04
15.26
27.94
38.80
47.53
53.82
57.56
58.87
58.23
56.25
53.61
50.78
48.02
45.41
42.92
40.51
38.20
36.01
33.90
31.78
29.54
27.11
24.47
21.59
18.48
15.10
11.36
7.29
2.98
-1.35
-5.55
-9.55
-13.45
-17.48
-21.88
-26.80
-32.35
-38.55
-45.31
-52.39
-59.17
-64.67
-67.62
-66.79
-61.45
-51.69
-38.51
-23.50
-8.36
5.62
17.76
27.95
36.31
42.89
47.58
50.19
50.67
49.33
46.79
43.79
40.86
38.18
35.59
32.76
29.45
25.68
21.74
18.00
14.76
12.06
9.66
7.18
4.31
0.90
-2.86
-6.65
-10.09
-13.02
-15.46
-17.70
-20.11
-22.95
-26.37
-30.39
-34.99
-40.17
-45.89
-51.92
-57.68
-62.17
-64.21
-62.70
-57.07
-47.48
-34.83
-20.50
-5.89
7.85
20.07
30.47
38.91
45.27
49.34
51.01
50.42
48.06
44.70
41.20
38.17
35.80
33.81
31.77
29.25
26.17
22.76
19.44
16.57
14.22
12.11
9.76
6.69
2.68
-2.19
-7.55
-12.96
-18.14
-22.97
-27.64
-32.38
-37.45
-42.99
-49.06
-55.67
-62.85
-70.46
-78.12
-85.00
-89.89
-91.45
-88.63
-81.04
-69.10
-53.98
-37.22
-20.27
-4.24
10.22
22.81
33.36
41.70
47.64
51.04
51.98
50.86
48.34
45.26
42.29
39.81
37.76
35.82
33.62
30.99
28.02
25.01
22.24
19.84
17.68
15.43
12.73
9.31
5.10
0.24
-5.04
-10.43
-15.62
-20.46
-24.93
-29.20
-33.53
-38.26
-43.67
-49.95
-57.16
-65.01
-72.87
-79.62
-83.87
-84.25
-79.87
-70.65
-57.40
-41.61
-24.88
-8.56
6.53
20.07
31.94
42.02
49.98
55.49
58.36
58.76
57.22
54.58
51.69
49.18
47.29
45.89
44.66
43.25
41.46
39.34
37.04
34.70
32.32
29.79
26.90
23.46
19.46
14.93
10.02
4.85
-0.50
-5.99
-11.61
-17.27
-22.85
-28.28
-33.61
-39.12
-45.21
-52.30
-60.49
-69.29
-77.55
-83.68
-86.04
-83.49
-75.81
-63.67
-48.45
-31.75
-14.97
0.94
15.41
28.13
38.84
47.26
53.15
56.50
57.56
56.86
55.01
52.55
49.81
46.95
44.02
41.04
38.07
35.20
32.44
29.75
27.02
24.19
21.18
17.96
14.48
10.68
6.51
1.95
-2.89
-7.91
-13.01
-18.11
-23.25
-28.46
-33.82
-39.44
-45.52
-52.30
-59.94
-68.25
-76.47
-83.33
-87.23
-86.81
-81.36
-71.12
-57.16
-41.02
-24.20
-7.79
7.52
21.41
33.55
43.60
51.17
56.04
58.33
58.49
57.20
55.14
52.81
50.47
48.19
45.93
43.65
41.32
38.89
36.30
33.49
30.47
27.29
24.02
20.67
17.12
13.20
8.71
3.59
-2.06
-8.03
-14.08
-20.06
-25.96
-31.87
-38.03
-44.67
-52.05
-60.29
-69.28
-78.54
-87.07
-93.51
-96.38
-94.54
-87.51
-75.68
-60.14
-42.40
-23.95
-5.95
10.88
26.10
39.45
50.68
59.52
65.79
69.49
70.90
70.53
68.96
66.78
64.38
62.00
59.70
57.46
55.22
52.90
50.39
47.58
44.39
40.77
36.76
32.38
27.70
22.71
17.45
11.95
6.24
0.40
-5.49
-11.37
-17.15
-22.76
-28.24
-33.76
-39.64
-46.29
-54.00
-62.72
-71.85
-80.28
-86.53
-89.12
-87.02
-79.90
-68.17
-52.89
-35.49
-17.36
0.28
16.60
31.09
43.48
53.67
61.55
67.12
70.44
71.72
71.39
69.96
67.95
65.73
63.44
61.02
58.33
55.29
51.95
48.46
44.93
41.38
37.72
33.81
29.59
25.11
20.43
15.62
10.61
5.26
-0.53
-6.71
-13.04
-19.18
-24.84
-29.96
-34.71
-39.48
-44.81
-51.19
-58.97
-68.10
-78.04
-87.65
-95.33
-99.37
-98.40
-91.93
-80.43
-65.25
-48.12
-30.61
-13.80
1.79
16.01
28.71
39.61
48.32
54.48
58.09
59.47
59.23
57.99
56.16
53.90
51.27
48.36
45.42
42.74
40.52
38.69
36.89
34.72
31.86
28.27
24.10
19.59
14.88
9.94
4.69
-0.89
-6.70
-12.48
-17.99
-23.12
-27.94
-32.68
-37.67
-43.22
-49.59
-56.96
-65.31
-74.26
-83.03
-90.33
-94.67
-94.75
-89.84
-80.05
-66.33
-50.11
-32.89
-15.87
0.24
15.05
28.36
39.93
49.47
56.72
61.59
64.23
65.02
64.45
62.98
60.99
58.70
56.22
53.65
51.07
48.56
46.15
43.74
41.15
38.13
34.51
30.31
25.72
21.06
16.54
12.21
7.89
3.32
-1.69
-7.10
-12.71
-18.24
-23.57
-28.79
-34.17
-40.10
-46.84
-54.50
-62.86
-71.43
-79.34
-85.46
-88.54
-87.53
-81.82
-71.53
-57.46
-40.91
-23.36
-6.08
10.02
24.44
36.93
47.37
55.64
61.60
65.20
66.56
66.03
64.10
61.39
58.38
55.39
52.50
49.68
46.87
44.09
41.37
38.73
36.10
33.32
30.23
26.74
22.89
18.84
14.71
10.53
6.21
1.63
-3.22
-8.25
-13.24
-17.99
-22.48
-26.88
-31.52
-36.76
-42.85
-49.84
-57.46
-65.12
-71.91
-76.74
-78.49
-76.32
-69.92
-59.61
-46.29
-31.17
-15.44
-0.05
14.38
27.44
38.73
47.89
54.57
58.65
60.35
60.16
58.73
56.64
54.25
51.68
48.90
45.88
42.72
39.61
36.78
34.35
32.23
30.19
27.87
25.05
21.67
17.89
13.94
9.94
5.87
1.55
-3.19
-8.40
-13.88
-19.33
-24.47
-29.20
-33.63
-38.05
-42.76
-48.02
-54.00
-60.70
-67.86
-74.79
-80.37
-83.25
-82.21
-76.62
-66.69
-53.44
-38.27
-22.59
-7.45
6.50
18.93
29.55
38.04
44.11
47.71
49.09
48.81
47.55
45.88
44.10
42.21
40.10
37.73
35.17
32.65
30.32
28.18
26.04
23.65
20.85
17.68
14.29
10.84
7.33
3.56
-0.71
-5.60
-11.00
-16.59
-22.05
-27.15
-31.96
-36.71
-41.77
-47.45
-53.96
-61.34
-69.39
-77.59
-85.04
-90.53
-92.76
-90.69
-83.89
-72.73
-58.26
-41.98
-25.32
-9.42
5.04
17.77
28.66
37.64
44.63
49.60
52.68
54.18
54.59
54.44
54.09
53.70
53.19
52.34
50.99
49.06
46.59
43.66
40.27
36.33
31.78
26.52
20.68
14.49
8.25
2.26
-3.35
-8.57
-13.58
-18.72
-24.44
-31.17
-39.24
-48.68
-59.08
-69.69
-79.54
-87.75
-93.64
-96.91
-97.39
-95.00
-89.68
-81.40
-70.32
-56.92
-41.93
-26.19
-10.51
4.47
18.30
30.60
41.03
49.22
54.91
58.02
58.74
57.50
54.87
51.43
47.66
43.92
40.50
37.65
35.61
34.51
34.36
34.94
35.83
36.49
36.34
34.87
31.72
26.74
20.08
12.20
3.81
-4.24
-11.21
-16.68
-20.67
-23.59
-26.12
-28.94
-32.46
-36.76
-41.53
-46.21
-50.09
-52.46
-52.68
-50.20
-44.62
-35.74
-23.66
-8.81
7.97
25.45
42.04
55.92
65.36
69.18
67.14
60.13
50.00
39.00
29.11
21.50
16.42
13.40
11.68
10.65
9.97
9.53
9.31
9.20
8.99
8.44
7.37
5.71
3.47
0.67
-2.69
-6.63
-11.20
-16.33
-21.92
-27.77
-33.71
-39.69
-45.80
-52.22
-59.09
-66.34
-73.45
-79.48
-83.18
-83.30
-78.97
-69.95
-56.78
-40.60
-22.95
-5.36
10.86
24.76
35.73
43.49
47.99
49.41
48.14
44.78
40.14
35.04
30.26
26.32
23.35
21.19
19.49
17.98
16.57
15.39
14.67
14.41
14.31
13.78
12.17
9.09
4.62
-0.73
-6.24
-11.22
-15.37
-18.76
-21.86
-25.33
-29.85
-35.94
-43.78
-53.04
-62.81
-71.57
-77.71
-80.00
-77.89
-71.55
-61.74
-49.58
-36.26
-22.82
-9.90
2.11
12.95
22.45
30.60
37.55
43.36
48.02
51.37
53.71
55.25
56.06
56.13
55.59
54.71
53.69
52.53
50.99
49.85
49.50
49.58
49.38
48.66
47.76
47.09
46.71
46.21
47.04
49.76
53.13
54.93
53.71
49.28
42.10
32.71
21.64
12.94
9.51
11.31
16.44
23.89
34.18
48.00
65.47
85.80
112.13
145.72
183.74
221.07
254.01
281.29
302.47
317.49
298.59
236.09
145.44
54.53
-18.15
-68.72
-100.63
-118.74
-126.30
-125.58
-115.49
-98.96
-83.47
-79.81
-93.72
-122.92
-160.04
-195.94
-223.30
-235.48
-226.57
-201.01
-168.99
-142.15
-122.97
-111.24
-105.59
-104.12
-102.40
-96.44
-83.90
-63.92
-38.59
-12.40
8.87
21.70
25.97
24.97
22.74
21.58
22.34
25.18
30.12
36.20
41.60
44.93
43.52
35.42
19.81
-2.01
-26.49
-48.81
-64.90
-72.70
-72.68
-67.14
-58.15
-46.66
-31.94
-11.34
16.16
49.48
85.74
121.56
154.47
183.69
208.97
229.07
240.90
240.05
223.31
190.57
145.25
92.89
39.10
-12.09
-58.33
-97.89
-128.62
-147.73
-153.04
-144.56
-125.11
-99.38
-72.31
-47.37
-26.05
-8.51
5.54
15.92
21.94
23.07
19.55
12.73
4.66
-2.64
-7.90
-10.95
-12.57
-13.86
-15.65
-18.06
-20.59
-22.47
-23.32
-23.47
-23.89
-25.63
-29.21
-34.27
-39.66
-44.01
-46.39
-46.90
-46.55
-46.82
-48.85
-52.87
-58.05
-62.80
-65.49
-65.10
-61.60
-55.73
-48.52
-40.78
-32.82
-24.44
-15.37
-5.73
3.91
12.66
19.78
24.96
28.42
30.76
32.46
33.66
34.09
33.38
31.42
28.58
25.66
23.49
22.49
22.38
22.30
21.26
18.66
14.60
9.79
5.14
1.23
-1.99
-5.08
-8.66
-12.96
-17.64
-22.05
-25.61
-28.33
-30.89
-34.32
-39.32
-45.79
-52.58
-57.91
-59.95
-57.72
-51.44
-42.45
-32.50
-23.00
-14.48
-6.57
1.52
10.30
19.50
28.10
34.83
38.88
40.27
39.85
38.85
38.16
37.93
37.57
36.29
33.59
29.67
25.42
21.95
20.00
19.51
19.57
18.96
16.71
12.61
7.28
1.84
-2.68
-5.88
-8.08
-10.04
-12.45
-15.60
-19.30
-23.11
-26.84
-30.73
-35.25
-40.60
-46.25
-50.84
-52.61
-50.16
-43.18
-32.72
-20.72
-9.13
0.83
9.08
16.31
23.37
30.54
37.26
42.47
45.16
45.04
42.66
39.24
36.03
33.73
32.20
30.68
28.29
24.64
20.07
15.52
12.06
10.18
9.58
9.20
7.89
4.93
0.46
-4.64
-9.21
-12.52
-14.57
-16.09
-18.00
-20.95
-24.95
-29.53
-34.05
-38.17
-41.98
-45.75
-49.43
-52.31
-53.15
-50.66
-44.15
-34.10
-22.03
-9.91
0.69
9.14
15.84
21.73
27.59
33.42
38.43
41.50
41.85
39.54
35.45
30.92
27.12
24.58
23.00
21.58
19.59
16.77
13.49
10.51
8.51
7.59
7.19
6.27
3.96
0.01
-5.03
-10.03
-13.83
-15.92
-16.66
-17.11
-18.44
-21.29
-25.58
-30.62
-35.57
-39.96
-43.75
-47.08
-49.78
-51.15
-50.07
-45.59
-37.44
-26.34
-13.80
-1.52
9.28
18.25
25.72
32.34
38.51
44.06
48.30
50.38
49.85
46.94
42.55
37.94
34.16
31.59
29.86
28.06
25.41
21.69
17.38
13.41
10.62
9.18
8.44
7.31
4.83
0.71
-4.50
-9.66
-13.66
-16.05
-17.23
-18.26
-20.17
-23.51
-28.02
-32.85
-37.12
-40.40
-42.89
-45.05
-47.06
-48.41
-47.96
-44.41
-37.08
-26.36
-13.67
-0.91
10.40
19.57
26.89
33.12
38.91
44.30
48.62
50.93
50.61
47.78
43.35
38.62
34.77
32.19
30.46
28.62
25.79
21.71
16.93
12.52
9.49
8.15
7.91
7.55
5.90
2.46
-2.40
-7.56
-11.83
-14.57
-16.03
-17.08
-18.69
-21.32
-24.82
-28.57
-32.02
-35.07
-38.14
-41.67
-45.51
-48.73
-49.75
-47.07
-40.03
-29.29
-16.59
-4.08
6.63
15.04
21.66
27.48
33.19
38.66
42.99
45.02
44.02
40.23
34.73
29.04
24.40
21.25
19.15
17.12
14.33
10.57
6.36
2.64
0.22
-0.77
-0.98
-1.50
-3.29
-6.67
-11.16
-15.75
-19.48
-21.92
-23.41
-24.82
-26.96
-30.16
-34.14
-38.26
-41.93
-45.13
-48.31
-52.02
-56.27
-60.19
-62.17
-60.49
-54.17
-43.55
-30.23
-16.43
-3.96
6.33
14.75
22.15
29.21
35.82
41.10
43.94
43.71
40.79
36.41
32.18
29.25
27.84
27.20
26.16
23.81
20.03
15.51
11.38
8.56
7.23
6.78
6.13
4.44
1.40
-2.53
-6.38
-9.33
-11.06
-11.97
-12.89
-14.59
-17.31
-20.76
-24.27
-27.33
-30.00
-32.86
-36.59
-41.31
-46.21
-49.62
-49.67
-45.15
-36.20
-24.28
-11.57
-0.00
9.50
17.18
24.03
30.88
37.75
43.69
47.36
47.83
45.22
40.76
36.20
32.96
31.44
30.92
30.10
27.93
24.19
19.58
15.32
12.40
10.99
10.37
9.33
6.88
2.70
-2.66
-8.09
-12.56
-15.68
-17.83
-19.87
-22.64
-26.42
-30.86
-35.26
-39.05
-42.32
-45.64
-49.60
-54.17
-58.35
-60.47
-58.83
-52.66
-42.58
-30.38
-18.18
-7.49
1.33
8.93
16.37
24.19
31.93
38.30
41.88
41.99
39.20
35.20
32.21
31.95
35.06
40.90
48.05
55.01
60.79
65.01
67.71
68.81
67.76
63.65
55.78
44.13
29.75
14.44
0.28
-11.25
-19.72
-25.75
-30.49
-34.98
-39.72
-44.61
-49.22
-53.33
-57.17
-61.24
-65.80
-70.46
-73.95
-74.49
-70.54
-61.59
-48.54
-33.38
-18.40
-5.20
5.74
15.02
23.64
32.16
40.21
46.71
50.46
50.88
48.48
44.59
40.79
38.11
36.63
35.56
33.85
30.87
26.78
22.44
18.93
16.88
16.06
15.54
14.17
11.18
6.61
1.27
-3.72
-7.55
-10.12
-12.12
-14.52
-18.01
-22.62
-27.75
-32.55
-36.56
-40.04
-43.68
-48.06
-52.97
-57.18
-58.79
-56.11
-48.55
-36.94
-23.26
-9.68
2.29
12.28
20.85
28.83
36.55
43.48
48.55
50.82
50.07
47.10
43.30
40.09
38.10
37.03
35.87
33.68
30.14
25.78
21.72
18.93
17.73
17.49
17.00
15.13
11.42
6.25
0.64
-4.36
-8.18
-10.98
-13.46
-16.40
-20.24
-24.92
-29.95
-34.82
-39.34
-43.84
-48.88
-54.74
-60.98
-66.31
-68.92
-67.25
-60.74
-50.17
-37.33
-24.23
-12.24
-1.72
7.84
17.14
26.32
34.65
40.86
43.86
43.41
40.35
36.26
32.76
30.68
29.83
29.13
27.44
24.15
19.52
14.56
10.38
7.57
5.88
4.39
2.09
-1.53
-6.26
-11.24
-15.50
-18.52
-20.55
-22.47
-25.24
-29.40
-34.72
-40.39
-45.47
-49.50
-52.77
-56.02
-59.82
-63.94
-67.23
-67.96
-64.65
-56.84
-45.32
-31.82
-18.15
-5.44
6.09
16.96
27.76
38.47
48.31
55.99
60.48
61.55
60.00
57.32
54.95
53.60
52.97
52.04
49.85
46.14
41.52
37.18
34.17
32.77
32.31
31.57
29.51
25.79
20.91
15.85
11.53
8.25
5.59
2.76
-0.92
-5.55
-10.64
-15.38
-19.17
-22.11
-24.99
-28.96
-34.82
-42.46
-50.67
-57.48
-60.89
-59.71
-53.99
-44.89
-34.03
-22.75
-11.72
-0.89
9.96
20.76
30.84
39.16
44.82
47.56
47.89
46.83
45.40
44.12
42.85
41.05
38.26
34.47
30.19
26.23
23.22
21.26
19.84
18.18
15.67
12.18
8.17
4.33
1.23
-1.05
-2.92
-5.07
-8.00
-11.79
-16.11
-20.41
-24.22
-27.49
-30.63
-34.31
-39.10
-45.16
-52.08
-58.88
-64.32
-67.41
-67.62
-65.02
-60.09
-53.35
-45.14
-35.53
-24.55
-12.48
-0.01
11.88
22.26
30.65
37.10
42.09
46.10
49.25
51.20
51.38
49.49
45.84
41.35
37.26
34.52
33.37
33.23
33.05
31.93
29.57
26.37
23.16
20.67
18.99
17.56
15.49
12.11
7.44
2.14
-2.74
-6.40
-8.71
-10.26
-12.06
-14.98
-19.34
-24.83
-30.80
-36.63
-42.01
-46.89
-51.22
-54.60
-56.20
-55.04
-50.34
-42.06
-31.00
-18.58
-6.34
4.59
13.83
21.65
28.63
35.15
41.05
45.62
48.05
47.85
45.33
41.49
37.70
35.00
33.58
32.84
31.70
29.35
25.69
21.33
17.28
14.28
12.37
10.87
8.84
5.60
1.16
-3.80
-8.31
-11.67
-13.87
-15.59
-17.77
-21.13
-25.80
-31.28
-36.83
-41.94
-46.59
-51.16
-55.85
-60.32
-63.45
-63.70
-59.75
-51.19
-38.84
-24.45
-10.02
3.03
14.18
23.87
32.89
41.73
50.19
57.36
62.18
64.00
62.92
59.78
55.80
51.97
48.67
45.66
42.48
38.76
34.61
30.52
27.03
24.41
22.34
20.13
17.09
12.92
7.87
2.66
-1.92
-5.56
-8.46
-11.33
-14.82
-19.21
-24.18
-29.01
-32.99
-35.88
-38.08
-40.50
-44.07
-49.22
-55.48
-61.55
-65.68
-66.36
-62.94
-55.83
-46.23
-35.52
-24.67
-13.97
-3.17
7.94
19.09
29.40
37.74
43.29
45.97
46.44
45.81
44.96
44.23
43.36
41.84
39.38
36.20
32.96
30.42
28.87
27.97
26.84
24.56
20.77
15.90
11.05
7.42
5.65
5.43
5.67
5.15
3.12
-0.23
-3.92
-6.73
-7.94
-7.69
-6.95
-7.00
-8.79
-12.58
-17.94
-24.10
-30.41
-36.55
-42.36
-47.47
-51.06
-52.02
-49.25
-42.35
-31.92
-19.47
-6.93
4.13
12.99
19.85
25.51
30.70
35.58
39.62
41.92
41.82
39.41
35.58
31.67
28.84
27.47
27.05
26.53
25.02
22.26
18.74
15.32
12.73
11.10
9.92
8.41
6.03
2.77
-0.88
-4.22
-6.80
-8.65
-10.32
-12.49
-15.61
-19.59
-23.85
-27.61
-30.33
-32.02
-33.38
-35.39
-38.82
-43.73
-49.26
-53.82
-55.71
-53.82
-48.03
-39.24
-28.86
-18.19
-7.96
1.71
11.07
20.14
28.47
35.23
39.59
41.23
40.53
38.48
36.18
34.27
32.74
30.99
28.32
24.43
19.65
14.86
11.06
8.77
7.73
7.08
5.77
3.18
-0.58
-4.74
-8.33
-10.80
-12.38
-13.90
-16.25
-19.89
-24.46
-29.05
-32.64
-34.83
-36.02
-37.24
-39.56
-43.52
-48.94
-54.92
-60.37
-64.38
-66.46
-66.42
-64.19
-59.61
-52.51
-42.87
-31.07
-17.97
-4.82
7.14
17.09
24.80
30.66
35.36
39.43
42.94
45.43
46.24
44.94
41.73
37.42
33.23
30.17
28.59
28.06
27.64
26.48
24.17
20.99
17.67
14.91
12.97
11.52
9.89
7.49
4.19
0.35
-3.32
-6.24
-8.29
-9.89
-11.73
-14.33
-17.78
-21.69
-25.44
-28.61
-31.34
-34.28
-38.24
-43.55
-49.64
-55.01
-57.72
-56.25
-50.20
-40.59
-29.28
-18.20
-8.48
-0.19
7.46
15.29
23.49
31.36
37.65
41.24
41.78
39.93
36.97
34.26
32.48
31.48
30.52
28.86
26.23
23.05
20.17
18.26
17.40
16.99
16.11
14.14
11.06
7.52
4.42
2.31
1.06
-0.09
-2.03
-5.28
-9.63
-14.27
-18.17
-20.72
-22.04
-22.98
-24.69
-28.00
-33.10
-39.32
-45.43
-50.08
-52.26
-51.59
-48.19
-42.51
-35.04
-26.14
-16.05
-5.07
6.22
17.00
26.35
33.53
38.23
40.66
41.42
41.23
40.56
39.51
37.96
35.73
32.89
29.81
27.02
24.96
23.66
22.74
21.60
19.78
17.21
14.29
11.60
9.52
7.94
6.29
3.90
0.42
-3.94
-8.51
-12.45
-15.25
-17.04
-18.48
-20.42
-23.44
-27.65
-32.67
-37.88
-42.86
-47.46
-51.74
-55.54
-58.33
-59.14
-56.91
-50.96
-41.49
-29.60
-16.99
-5.23
4.75
12.93
19.97
26.67
33.35
39.59
44.45
47.05
47.07
45.03
42.06
39.42
37.75
36.96
36.28
34.93
32.63
29.70
26.93
25.01
24.09
23.60
22.65
20.53
17.17
13.19
9.57
7.11
5.87
5.19
3.99
1.43
-2.66
-7.70
-12.69
-16.78
-19.77
-22.26
-25.26
-29.69
-35.82
-43.01
-49.90
-54.83
-56.54
-54.55
-49.30
-41.79
-33.11
-24.01
-14.75
-5.26
4.40
13.83
22.21
28.67
32.74
34.58
34.92
34.71
34.57
34.54
34.16
32.91
30.62
27.70
24.98
23.30
22.94
23.42
23.75
22.98
20.70
17.23
13.44
10.19
7.83
6.06
4.14
1.42
-2.27
-6.49
-10.45
-13.48
-15.45
-16.87
-18.63
-21.58
-26.08
-31.89
-38.22
-44.04
-48.46
-50.96
-51.38
-49.76
-46.12
-40.45
-32.72
-23.10
-12.17
-0.82
9.84
18.92
25.97
31.07
34.68
37.32
39.19
40.12
39.79
38.03
35.15
31.86
29.08
27.40
26.82
26.68
26.04
24.22
21.16
17.47
14.10
11.80
10.70
10.23
9.42
7.47
4.13
-0.17
-4.59
-8.31
-11.03
-13.04
-15.03
-17.63
-21.12
-25.30
-29.74
-34.07
-38.31
-42.74
-47.56
-52.45
-56.41
-58.04
-56.09
-50.06
-40.58
-29.16
-17.56
-7.06
1.95
9.89
17.50
25.19
32.63
38.88
42.89
44.10
42.76
39.89
36.81
34.61
33.59
33.34
33.01
31.86
29.64
26.74
23.91
21.79
20.53
19.68
18.47
16.32
13.13
9.38
5.85
3.14
1.28
-0.27
-2.30
-5.36
-9.44
-14.01
-18.28
-21.69
-24.32
-26.87
-30.25
-35.04
-41.04
-47.18
-51.83
-53.48
-51.37
-45.76
-37.70
-28.48
-19.11
-9.94
-0.80
8.53
17.87
26.48
33.28
37.45
38.84
38.16
36.64
35.46
35.08
35.14
34.78
33.22
30.31
26.65
23.26
20.95
19.85
19.33
18.39
16.30
12.97
9.00
5.34
2.71
1.15
0.01
-1.57
-4.24
-7.96
-12.08
-15.70
-18.24
-19.82
-21.23
-23.49
-27.26
-32.51
-38.46
-43.95
-47.89
-49.70
-49.32
-47.04
-43.19
-37.98
-31.38
-23.34
-13.98
-3.81
6.30
15.39
22.66
27.82
31.11
33.12
34.45
35.35
35.65
35.04
33.35
30.83
28.14
26.05
24.99
24.79
24.70
23.85
21.73
18.48
14.83
11.71
9.66
8.51
7.49
5.68
2.56
-1.73
-6.37
-10.44
-13.33
-15.18
-16.71
-18.85
-22.23
-26.91
-32.46
-38.15
-43.44
-48.05
-51.90
-54.78
-56.18
-55.35
-51.53
-44.48
-34.66
-23.27
-11.81
-1.52
7.03
14.06
20.17
25.99
31.58
36.43
39.71
40.84
39.80
37.29
34.43
32.24
31.19
31.03
31.00
30.37
28.76
26.38
23.79
21.60
20.05
18.86
17.38
15.06
11.75
7.80
3.91
0.73
-1.55
-3.29
-5.21
-7.94
-11.66
-15.99
-20.22
-23.77
-26.55
-29.10
-32.24
-36.47
-41.59
-46.48
-49.55
-49.36
-45.34
-38.06
-28.92
-19.50
-10.85
-3.15
4.16
11.77
19.91
28.04
35.00
39.63
41.42
40.73
38.69
36.59
35.27
34.72
34.28
33.15
30.96
27.97
24.98
22.75
21.55
20.93
20.03
18.13
15.05
11.27
7.63
4.79
2.82
1.18
-0.92
-4.04
-8.11
-12.48
-16.30
-18.99
-20.67
-22.13
-24.42
-28.28
-33.73
-39.97
-45.62
-49.26
-50.02
-47.81
-43.24
-37.22
-30.49
-23.38
-15.77
-7.41
1.68
10.93
19.38
26.00
30.22
32.16
32.58
32.48
32.53
32.78
32.75
31.84
29.81
26.98
24.13
21.98
20.77
20.09
19.09
17.08
13.87
9.95
6.21
3.43
1.80
0.80
-0.47
-2.75
-6.23
-10.38
-14.30
-17.20
-18.93
-20.07
-21.60
-24.35
-28.59
-33.87
-39.30
-43.97
-47.37
-49.46
-50.41
-50.31
-48.90
-45.66
-40.03
-31.89
-21.76
-10.71
-0.07
9.12
16.41
22.01
26.51
30.44
33.85
36.35
37.40
36.77
34.81
32.37
30.41
29.51
29.53
29.73
29.23
27.49
24.65
21.40
18.59
16.79
15.89
15.24
14.02
11.67
8.23
4.25
0.56
-2.31
-4.41
-6.32
-8.82
-12.38
-16.88
-21.67
-25.89
-29.06
-31.37
-33.56
-36.43
-40.17
-44.07
-46.72
-46.58
-42.79
-35.64
-26.40
-16.69
-7.78
-0.08
6.73
13.29
19.92
26.27
31.53
34.85
35.94
35.22
33.67
32.36
31.91
32.20
32.54
32.10
30.46
27.79
24.81
22.38
21.00
20.46
20.01
18.75
16.16
12.43
8.33
4.82
2.42
0.91
-0.52
-2.77
-6.23
-10.51
-14.72
-17.92
-19.78
-20.79
-22.05
-24.62
-28.95
-34.59
-40.31
-44.67
-46.55
-45.63
-42.33
-37.43
-31.66
-25.38
-18.54
-10.94
-2.64
5.85
13.57
19.59
23.34
25.00
25.29
25.18
25.31
25.72
25.87
25.12
23.13
20.15
16.96
14.47
13.21
13.05
13.25
12.94
11.52
8.98
5.89
3.02
0.88
-0.58
-1.89
-3.71
-6.38
-9.73
-13.13
-15.90
-17.77
-19.08
-20.67
-23.43
-27.76
-33.38
-39.35
-44.44
-47.62
-48.44
-47.02
-43.79
-39.16
-33.34
-26.29
-17.98
-8.69
0.88
9.73
17.00
22.30
25.82
28.15
29.98
31.63
32.93
33.41
32.70
30.80
28.22
25.70
23.91
23.05
22.78
22.38
21.19
18.98
16.05
13.12
10.86
9.51
8.70
7.66
5.62
2.27
-2.04
-6.55
-10.42
-13.23
-15.21
-17.02
-19.40
-22.76
-27.08
-31.91
-36.69
-40.99
-44.60
-47.43
-49.31
-49.82
-48.37
-44.42
-37.76
-28.82
-18.60
-8.39
0.75
8.33
14.51
19.89
24.98
29.86
34.01
36.68
37.33
36.02
33.45
30.71
28.75
27.94
27.96
28.04
27.44
25.81
23.35
20.66
18.40
16.84
15.76
14.52
12.53
9.53
5.81
2.02
-1.11
-3.25
-4.64
-5.94
-7.86
-10.79
-14.61
-18.79
-22.74
-26.22
-29.41
-32.76
-36.51
-40.36
-43.43
-44.51
-42.64
-37.58
-29.99
-21.15
-12.35
-4.36
2.78
9.56
16.46
23.47
29.95
34.92
37.67
38.13
37.01
35.44
34.43
34.29
34.62
34.59
33.53
31.29
28.34
25.51
23.51
22.53
22.16
21.60
20.17
17.63
14.29
10.86
8.00
5.93
4.28
2.34
-0.56
-4.55
-9.19
-13.61
-17.05
-19.33
-21.03
-23.13
-26.49
-31.24
-36.63
-41.28
-43.84
-43.58
-40.69
-36.06
-30.66
-25.08
-19.29
-12.83
-5.36
2.95
11.26
18.39
23.36
25.91
26.53
26.22
25.98
26.27
26.93
27.34
26.91
25.42
23.23
21.03
19.48
18.78
18.53
17.99
16.47
13.80
10.39
7.08
4.61
3.18
2.28
1.04
-1.27
-4.78
-8.97
-12.89
-15.79
-17.55
-18.78
-20.50
-23.55
-28.14
-33.71
-39.09
-43.04
-44.76
-44.16
-41.75
-38.25
-34.13
-29.39
-23.64
-16.50
-8.02
1.10
9.70
16.68
21.42
24.10
25.53
26.62
27.91
29.25
30.03
29.64
27.92
25.32
22.76
21.01
20.27
19.98
19.17
17.10
13.71
9.73
6.27
4.17
3.45
3.30
2.54
0.35
-3.33
-7.73
-11.72
-14.48
-15.97
-16.93
-18.42
-21.23
-25.49
-30.59
-35.52
-39.35
-41.63
-42.47
-42.30
-41.49
-40.02
-37.49
-33.31
-27.17
-19.31
-10.55
-1.96
5.54
11.53
16.12
19.76
22.87
25.53
27.51
28.44
28.17
26.92
25.29
23.99
23.51
23.80
24.35
24.41
23.39
21.26
18.52
16.01
14.38
13.67
13.30
12.38
10.26
6.92
3.00
-0.53
-2.99
-4.40
-5.45
-7.13
-10.11
-14.45
-19.54
-24.48
-28.57
-31.61
-33.84
-35.57
-36.87
-37.33
-36.25
-32.99
-27.37
-19.90
-11.60
-3.57
3.41
9.10
13.77
17.88
21.71
25.14
27.73
29.01
28.84
27.54
25.82
24.44
23.79
23.71
23.62
22.85
21.14
18.72
16.28
14.55
13.81
13.73
13.47
12.19
9.53
5.82
1.94
-1.15
-2.93
-3.66
-4.13
-5.31
-7.73
-11.32
-15.49
-19.44
-22.65
-25.06
-26.98
-28.76
-30.44
-31.60
-31.49
-29.42
-25.10
-18.94
-11.83
-4.78
1.48
6.78
11.40
15.75
19.94
23.61
26.10
26.83
25.75
23.43
20.90
19.14
18.62
19.06
19.64
19.45
18.04
15.61
12.90
10.75
9.55
9.01
8.35
6.76
3.92
0.24
-3.39
-6.05
-7.36
-7.73
-8.11
-9.48
-12.30
-16.34
-20.84
-24.92
-28.16
-30.66
-32.91
-35.32
-37.79
-39.60
-39.71
-37.23
-31.96
-24.57
-16.32
-8.46
-1.70
3.98
9.15
14.42
19.88
25.03
28.91
30.80
30.57
28.91
27.00
25.95
26.20
27.36
28.45
28.47
27.00
24.34
21.38
19.03
17.74
17.22
16.66
15.25
12.62
9.08
5.41
2.45
0.58
-0.48
-1.51
-3.29
-6.25
-10.23
-14.63
-18.82
-22.45
-25.72
-29.07
-32.85
-36.88
-40.34
-42.11
-41.18
-37.28
-30.99
-23.51
-16.06
-9.36
-3.43
2.21
8.03
14.02
19.56
23.69
25.72
25.62
24.07
22.19
20.97
20.77
21.21
21.45
20.72
18.77
15.95
13.09
10.99
9.99
9.74
9.43
8.27
5.86
2.43
-1.26
-4.40
-6.58
-7.99
-9.30
-11.23
-14.13
-17.84
-21.76
-25.31
-28.31
-31.04
-34.02
-37.53
-41.24
-44.25
-45.34
-43.66
-39.16
-32.60
-25.17
-17.95
-11.37
-5.25
0.97
7.67
14.68
21.22
26.27
29.12
29.76
28.88
27.63
26.97
27.27
28.16
28.76
28.30
26.51
23.79
20.98
18.88
17.75
17.19
16.40
14.64
11.73
8.11
4.67
2.20
0.91
0.35
-0.37
-2.04
-4.89
-8.52
-12.13
-15.02
-17.11
-18.95
-21.38
-24.94
-29.41
-33.74
-36.43
-36.26
-32.86
-26.85
-19.57
-12.31
-5.84
-0.10
5.48
11.46
17.77
23.72
28.24
30.57
30.69
29.40
27.93
27.25
27.61
28.41
28.67
27.63
25.21
22.06
19.21
17.47
16.94
17.05
16.85
15.62
13.23
10.14
7.17
4.91
3.40
2.15
0.45
-2.11
-5.41
-8.85
-11.70
-13.66
-15.03
-16.58
-19.07
-22.70
-26.93
-30.58
-32.35
-31.39
-27.70
-22.05
-15.62
-9.41
-3.90
1.03
5.84
10.83
15.84
20.19
23.07
23.99
23.10
21.20
19.39
18.46
18.58
19.24
19.64
19.21
17.84
15.96
14.20
13.00
12.33
11.76
10.77
9.05
6.71
4.21
2.09
0.66
-0.23
-1.07
-2.44
-4.64
-7.57
-10.75
-13.59
-15.76
-17.40
-19.04
-21.24
-24.20
-27.49
-30.13
-31.02
-29.42
-25.42
-19.87
-14.02
-8.89
-4.91
-1.81
1.03
4.00
6.97
9.33
10.39
9.87
8.19
6.28
5.17
5.36
6.59
8.00
8.64
8.01
6.26
4.13
2.48
1.81
2.02
2.49
2.48
1.50
-0.40
-2.75
-4.85
-6.27
-7.11
-7.89
-9.29
-11.69
-14.97
-18.51
-21.58
-23.77
-25.19
-26.45
-28.11
-30.30
-32.52
-33.75
-32.96
-29.63
-24.06
-17.17
-10.09
-3.68
1.79
6.49
10.83
14.96
18.61
21.25
22.41
22.07
20.75
19.26
18.39
18.38
18.85
19.03
18.24
16.30
13.61
10.97
9.12
8.28
8.04
7.57
6.13
3.42
-0.18
-3.85
-6.70
-8.32
-9.00
-9.59
-11.04
-13.88
-17.97
-22.62
-26.96
-30.41
-32.95
-34.88
-36.51
-37.73
-38.01
-36.55
-32.78
-26.75
-19.16
-11.17
-3.84
2.26
7.13
11.23
15.04
18.73
21.98
24.21
24.97
24.28
22.68
21.01
20.03
19.93
20.29
20.35
19.50
17.58
14.99
12.49
10.78
10.10
10.07
9.91
8.83
6.47
3.10
-0.51
-3.47
-5.29
-6.20
-7.01
-8.67
-11.75
-16.15
-21.11
-25.68
-29.18
-31.47
-32.82
-33.55
-33.65
-32.70
-30.07
-25.33
-18.67
-10.86
-3.05
3.82
9.32
13.62
17.31
20.91
24.51
27.67
29.68
30.06
28.92
26.93
25.09
24.16
24.27
24.86
25.01
24.01
21.74
18.74
15.93
14.04
13.19
12.85
12.11
10.29
7.27
3.59
0.12
-2.42
-3.90
-4.81
-5.96
-8.03
-11.22
-15.15
-19.13
-22.52
-25.07
-26.91
-28.34
-29.44
-29.93
-29.24
-26.74
-22.18
-15.92
-8.83
-2.01
3.66
7.88
10.91
13.38
15.86
18.48
20.89
22.51
22.85
21.93
20.27
18.66
17.77
17.69
17.94
17.72
16.43
13.98
10.92
8.12
6.31
5.63
5.61
5.36
4.18
1.86
-1.17
-4.09
-6.22
-7.42
-8.17
-9.31
-11.52
-14.97
-19.25
-23.62
-27.40
-30.31
-32.43
-33.97
-34.96
-35.06
-33.75
-30.50
-25.22
-18.43
-11.08
-4.27
1.28
5.35
8.29
10.66
12.87
14.97
16.64
17.50
17.40
16.63
15.78
15.40
15.67
16.26
16.51
15.81
14.00
11.42
8.76
6.70
5.54
5.02
4.50
3.33
1.17
-1.80
-5.04
-7.90
-10.02
-11.54
-13.01
-15.04
-18.03
-21.85
-25.90
-29.37
-31.54
-32.08
-31.11
-28.98
-25.97
-22.18
-17.44
-11.57
-4.66
2.81
9.97
15.93
20.12
22.52
23.62
24.16
24.77
25.62
26.46
26.83
26.36
25.04
23.24
21.50
20.23
19.43
18.70
17.50
15.46
12.61
9.40
6.45
4.13
2.44
0.87
-1.14
-3.96
-7.47
-11.17
-14.41
-16.83
-18.63
-20.41
-22.87
-26.34
-30.54
-34.62
-37.49
-38.37
-37.04
-33.93
-29.78
-25.16
-20.24
-14.75
-8.30
-0.80
7.23
14.78
20.78
24.61
26.32
26.64
26.52
26.62
27.05
27.39
27.16
26.11
24.54
22.98
21.97
21.61
21.45
20.82
19.14
16.36
12.89
9.46
6.68
4.70
3.20
1.56
-0.72
-3.76
-7.25
-10.64
-13.52
-15.88
-18.18
-21.10
-25.09
-30.01
-35.03
-38.91
-40.50
-39.26
-35.45
-30.01
-23.94
-17.94
-12.05
-5.92
0.83
8.12
15.31
21.42
25.67
27.84
28.36
28.15
28.09
28.60
29.51
30.22
30.09
28.88
26.85
24.64
22.89
21.84
21.24
20.46
18.94
16.51
13.50
10.55
8.20
6.53
5.16
3.42
0.83
-2.62
-6.52
-10.25
-13.39
-16.00
-18.58
-21.74
-25.74
-30.28
-34.50
-37.29
-37.75
-35.64
-31.40
-25.88
-19.91
-13.97
-8.07
-1.95
4.57
11.27
17.51
22.44
25.46
26.47
25.92
24.68
23.54
22.91
22.60
22.10
20.89
18.86
16.41
14.25
13.00
12.70
12.83
12.51
11.02
8.24
4.63
1.05
-1.77
-3.63
-4.89
-6.26
-8.31
-11.18
-14.52
-17.76
-20.50
-22.82
-25.22
-28.27
-32.18
-36.47
-40.08
-41.76
-40.61
-36.60
-30.48
-23.46
-16.61
-10.36
-4.54
1.41
7.81
14.42
20.44
24.86
27.02
27.02
25.68
24.18
23.47
23.78
24.57
24.92
24.13
22.06
19.25
16.62
14.88
14.13
13.87
13.24
11.57
8.69
4.98
1.17
-2.14
-4.74
-6.86
-8.96
-11.44
-14.44
-17.81
-21.23
-24.48
-27.61
-30.86
-34.45
-38.33
-42.00
-44.62
-45.29
-43.43
-39.10
-32.97
-25.95
-18.81
-11.84
-4.93
2.20
9.59
16.78
22.89
27.12
29.10
29.11
28.02
26.79
26.08
25.91
25.81
25.20
23.77
21.68
19.44
17.61
16.48
15.84
15.17
13.94
11.90
9.24
6.47
4.11
2.36
1.05
-0.33
-2.22
-4.80
-7.89
-11.05
-13.85
-16.23
-18.48
-21.18
-24.73
-29.12
-33.75
-37.60
-39.63
-39.26
-36.59
-32.32
-27.34
-22.27
-17.20
-11.78
-5.60
1.37
8.59
15.09
19.98
22.88
24.08
24.41
24.72
25.51
26.66
27.62
27.81
26.98
25.38
23.59
22.24
21.57
21.36
21.02
20.00
18.06
15.40
12.59
10.19
8.43
7.11
5.69
3.67
0.89
-2.41
-5.69
-8.44
-10.58
-12.48
-14.79
-18.00
-22.17
-26.79
-30.99
-33.93
-35.14
-34.67
-32.91
-30.31
-27.10
-23.18
-18.29
-12.22
-5.17
2.28
9.28
15.06
19.23
21.90
23.63
25.04
26.51
28.01
29.12
29.39
28.64
27.08
25.28
23.85
23.06
22.72
22.33
21.38
19.70
17.55
15.49
14.04
13.31
12.96
12.34
10.95
8.68
5.91
3.34
1.57
0.75
0.46
-0.09
-1.60
-4.39
-8.21
-12.38
-16.17
-19.14
-21.29
-22.86
-23.99
-24.46
-23.73
-21.19
-16.61
-10.41
-3.60
2.62
7.43
10.69
12.93
14.98
17.44
20.30
22.96
24.60
24.69
23.32
21.17
19.12
17.81
17.24
16.89
16.01
14.18
11.49
8.51
6.00
4.43
3.70
3.18
2.09
-0.06
-3.19
-6.72
-9.79
-11.79
-12.63
-12.86
-13.28
-14.55
-16.84
-19.76
-22.58
-24.67
-25.83
-26.34
-26.66
-27.04
-27.24
-26.60
-24.35
-20.16
-14.39
-8.01
-2.18
2.31
5.34
7.40
9.18
11.15
13.19
14.77
15.28
14.50
12.78
10.90
9.67
9.49
10.06
10.63
10.40
8.98
6.60
3.98
1.92
0.84
0.49
0.16
-0.91
-3.10
-6.15
-9.30
-11.71
-12.90
-13.06
-12.94
-13.43
-15.10
-17.93
-21.31
-24.36
-26.42
-27.34
-27.46
-27.28
-27.09
-26.70
-25.56
-23.01
-18.82
-13.35
-7.50
-2.24
1.85
4.79
7.13
9.52
12.27
15.08
17.27
18.21
17.71
16.23
14.62
13.74
13.90
14.72
15.35
15.01
13.40
10.94
8.48
6.86
6.37
6.60
6.63
5.59
3.17
-0.29
-3.85
-6.62
-8.17
-8.85
-9.50
-11.04
-13.93
-17.93
-22.30
-26.16
-28.96
-30.68
-31.69
-32.33
-32.65
-32.25
-30.56
-27.14
-22.07
-16.00
-9.90
-4.59
-0.46
2.70
5.40
8.19
11.14
13.88
15.72
16.15
15.14
13.25
11.38
10.33
10.33
10.98
11.42
10.95
9.32
6.94
4.60
3.01
2.39
2.27
1.82
0.37
-2.24
-5.50
-8.53
-10.63
-11.66
-12.20
-13.18
-15.35
-18.90
-23.33
-27.67
-31.02
-32.88
-33.34
-32.82
-31.71
-30.09
-27.66
-23.93
-18.60
-11.90
-4.60
2.19
7.58
11.21
13.44
15.09
16.95
19.32
21.83
23.70
24.25
23.32
21.43
19.49
18.31
18.14
18.58
18.85
18.27
16.65
14.31
11.93
10.07
8.90
8.07
6.92
4.92
1.94
-1.60
-4.96
-7.49
-9.05
-10.11
-11.55
-14.07
-17.80
-22.10
-25.81
-27.82
-27.64
-25.57
-22.43
-19.04
-15.71
-12.16
-7.74
-2.01
4.79
11.72
17.46
21.03
22.22
21.77
20.96
20.97
22.25
24.34
26.19
26.81
25.82
23.62
21.10
19.06
17.66
16.42
14.58
11.61
7.58
3.16
-0.77
-3.63
-5.49
-6.97
-8.82
-11.48
-14.82
-18.27
-21.19
-23.30
-24.95
-26.85
-29.59
-33.16
-36.75
-39.12
-39.08
-36.20
-30.94
-24.47
-17.98
-12.18
-7.04
-2.04
3.37
9.29
15.17
20.10
23.26
24.36
23.85
22.68
21.90
22.07
23.02
23.98
24.04
22.69
20.09
17.05
14.51
13.02
12.39
11.85
10.56
8.09
4.66
1.08
-1.80
-3.57
-4.47
-5.26
-6.77
-9.41
-12.99
-16.85
-20.28
-22.88
-24.80
-26.53
-28.49
-30.63
-32.36
-32.68
-30.71
-26.16
-19.53
-11.95
-4.68
1.48
6.40
10.62
14.82
19.33
23.83
27.51
29.55
29.67
28.32
26.49
25.19
24.88
25.24
25.42
24.58
22.42
19.32
16.19
13.89
12.78
12.50
12.22
11.13
8.87
5.76
2.59
0.16
-1.17
-1.73
-2.36
-3.92
-6.81
-10.80
-15.06
-18.72
-21.30
-22.95
-24.26
-25.78
-27.56
-29.00
-29.09
-26.91
-22.24
-15.67
-8.38
-1.61
3.94
8.20
11.71
15.09
18.62
22.02
24.70
26.08
26.05
25.05
23.92
23.36
23.59
24.16
24.22
23.05
20.47
17.02
13.70
11.37
10.34
10.12
9.73
8.32
5.59
1.99
-1.57
-4.20
-5.62
-6.22
-6.92
-8.57
-11.51
-15.42
-19.51
-22.93
-25.23
-26.57
-27.51
-28.56
-29.78
-30.71
-30.49
-28.41
-24.31
-18.75
-12.75
-7.25
-2.68
1.16
4.82
8.74
12.85
16.51
18.94
19.67
18.88
17.39
16.20
15.99
16.77
17.88
18.39
17.72
15.85
13.45
11.41
10.39
10.39
10.78
10.66
9.41
6.96
3.88
1.02
-0.95
-1.92
-2.34
-3.01
-4.56
-7.18
-10.55
-14.05
-17.13
-19.60
-21.69
-23.82
-26.26
-28.80
-30.80
-31.36
-29.80
-26.09
-20.81
-14.99
-9.55
-4.91
-0.92
2.96
7.11
11.42
15.24
17.74
18.46
17.59
15.99
14.77
14.60
15.43
16.47
16.73
15.65
13.41
10.83
8.92
8.18
8.37
8.60
7.90
5.78
2.48
-1.16
-4.17
-6.03
-6.90
-7.48
-8.62
-10.83
-14.01
-17.57
-20.76
-23.13
-24.73
-26.03
-27.55
-29.40
-31.18
-32.01
-31.02
-27.77
-22.55
-16.20
-9.77
-3.95
1.10
5.72
10.35
15.15
19.78
23.54
25.84
26.54
26.08
25.27
24.88
25.21
25.96
26.44
25.99
24.42
22.08
19.74
18.08
17.38
17.28
17.02
15.83
13.40
10.03
6.49
3.57
1.68
0.60
-0.33
-1.80
-4.08
-6.95
-9.83
-12.15
-13.79
-15.13
-16.77
-19.09
-21.91
-24.51
-25.86
-25.17
-22.28
-17.71
-12.41
-7.25
-2.66
1.44
5.47
9.77
14.28
18.45
21.49
22.81
22.40
20.83
19.07
18.00
17.96
18.61
19.17
18.90
17.52
15.37
13.24
11.82
11.33
11.30
10.89
9.40
6.64
3.09
-0.37
-2.96
-4.41
-5.15
-5.96
-7.52
-10.07
-13.23
-16.29
-18.64
-20.17
-21.32
-22.80
-25.06
-27.97
-30.81
-32.53
-32.26
-29.76
-25.44
-20.24
-15.06
-10.47
-6.54
-2.98
0.53
4.00
7.05
9.11
9.77
9.11
7.71
6.51
6.25
7.12
8.59
9.74
9.79
8.57
6.59
4.79
3.95
4.24
5.10
5.56
4.84
2.76
-0.20
-3.10
-5.17
-6.15
-6.46
-6.83
-7.94
-10.06
-12.93
-15.97
-18.67
-20.85
-22.72
-24.64
-26.78
-28.94
-30.48
-30.64
-28.94
-25.46
-20.81
-15.87
-11.31
-7.32
-3.62
0.25
4.53
8.95
12.81
15.41
16.39
16.05
15.22
14.83
15.41
16.83
18.34
19.10
18.60
16.98
14.96
13.39
12.80
13.09
13.60
13.56
12.45
10.36
7.81
5.53
3.95
2.99
2.10
0.61
-1.89
-5.29
-9.03
-12.39
-14.92
-16.71
-18.31
-20.34
-23.12
-26.36
-29.26
-30.81
-30.35
-27.87
-23.98
-19.52
-15.09
-10.84
-6.45
-1.50
4.10
9.91
15.13
19.00
21.19
22.01
22.15
22.40
23.11
24.06
24.67
24.37
23.01
20.98
19.02
17.80
17.51
17.72
17.56
16.31
13.73
10.27
6.83
4.23
2.78
2.08
1.33
-0.17
-2.60
-5.57
-8.33
-10.23
-11.17
-11.60
-12.30
-13.90
-16.57
-19.84
-22.81
-24.55
-24.45
-22.51
-19.23
-15.35
-11.47
-7.84
-4.34
-0.69
3.24
7.22
10.67
13.02
14.03
13.96
13.52
13.46
14.22
15.59
16.94
17.52
16.99
15.52
13.75
12.36
11.65
11.39
11.01
10.04
8.40
6.51
5.03
4.46
4.78
5.46
5.75
5.12
3.52
1.46
-0.37
-1.43
-1.74
-1.87
-2.67
-4.78
-8.25
-12.45
-16.29
-18.68
-19.07
-17.59
-14.89
-11.71
-8.43
-4.94
-0.73
4.64
11.10
17.97
24.23
28.99
31.88
33.13
33.40
33.31
33.13
32.67
31.55
29.51
26.65
23.44
20.53
18.39
17.11
16.34
15.52
14.21
12.32
10.16
8.26
7.04
6.50
6.19
5.38
3.54
0.59
-2.97
-6.32
-8.73
-10.02
-10.60
-11.27
-12.76
-15.29
-18.51
-21.56
-23.58
-24.08
-23.11
-21.12
-18.62
-15.88
-12.76
-8.89
-3.96
1.95
8.33
14.39
19.43
23.13
25.59
27.25
28.45
29.26
29.36
28.35
26.05
22.71
19.04
15.88
13.83
12.94
12.70
12.40
11.45
9.70
7.46
5.25
3.42
1.91
0.24
-2.15
-5.57
-9.79
-14.13
-17.76
-20.18
-21.56
-22.62
-24.35
-27.36
-31.56
-36.08
-39.62
-41.12
-40.19
-37.25
-33.16
-28.75
-24.35
-19.78
-14.60
-8.63
-2.24
3.74
8.40
11.25
12.44
12.70
12.91
13.59
14.70
15.72
16.04
15.42
14.09
12.69
11.88
11.93
12.52
12.93
12.40
10.55
7.54
3.98
0.66
-1.92
-3.77
-5.30
-7.09
-9.52
-12.59
-15.93
-19.02
-21.58
-23.71
-25.85
-28.44
-31.55
-34.73
-37.04
-37.54
-35.71
-31.72
-26.35
-20.55
-14.98
-9.80
-4.70
0.72
6.50
12.21
17.03
20.22
21.47
21.12
19.98
18.95
18.59
18.86
19.27
19.19
18.33
16.85
15.29
14.23
13.89
13.97
13.82
12.82
10.73
7.84
4.85
2.44
0.88
-0.12
-1.22
-3.11
-6.07
-9.82
-13.66
-16.86
-19.04
-20.41
-21.62
-23.32
-25.80
-28.80
-31.60
-33.31
-33.40
-31.78
-28.84
-25.09
-20.89
-16.31
-11.15
-5.24
1.32
7.97
13.86
18.22
20.69
21.51
21.40
21.16
21.29
21.76
22.18
22.10
21.40
20.34
19.38
18.87
18.75
18.54
17.66
15.80
13.12
10.22
7.83
6.41
5.88
5.67
5.01
3.36
0.67
-2.57
-5.54
-7.62
-8.69
-9.25
-10.17
-12.18
-15.50
-19.64
-23.59
-26.31
-27.23
-26.41
-24.41
-21.81
-18.89
-15.43
-10.97
-5.21
1.56
8.50
14.50
18.71
20.94
21.70
21.91
22.33
23.18
24.13
24.58
24.13
22.83
21.15
19.71
18.81
18.29
17.62
16.27
14.08
11.39
8.84
7.04
6.15
5.83
5.36
4.10
1.77
-1.33
-4.57
-7.22
-8.90
-9.76
-10.38
-11.46
-13.47
-16.46
-19.97
-23.30
-25.84
-27.30
-27.76
-27.46
-26.58
-25.00
-22.39
-18.40
-12.97
-6.56
-0.01
5.76
10.11
12.94
14.66
15.90
17.11
18.37
19.34
19.64
19.11
17.94
16.61
15.68
15.39
15.58
15.74
15.37
14.21
12.40
10.40
8.77
7.77
7.27
6.75
5.64
3.64
0.87
-2.10
-4.64
-6.37
-7.45
-8.50
-10.15
-12.75
-16.09
-19.53
-22.41
-24.44
-25.84
-27.13
-28.73
-30.55
-31.99
-32.19
-30.46
-26.75
-21.67
-16.22
-11.29
-7.31
-4.12
-1.25
1.72
4.81
7.55
9.35
9.89
9.37
8.54
8.26
9.07
10.84
12.82
14.04
13.85
12.28
10.04
8.10
7.22
7.44
8.14
8.28
7.06
4.27
0.42
-3.49
-6.55
-8.41
-9.42
-10.38
-11.99
-14.51
-17.57
-20.45
-22.58
-23.92
-25.01
-26.55
-28.91
-31.79
-34.21
-34.94
-33.18
-28.91
-23.00
-16.69
-11.04
-6.47
-2.68
1.03
5.22
9.89
14.44
17.98
19.87
20.09
19.27
18.40
18.27
19.11
20.46
21.55
21.74
20.82
19.15
17.38
16.08
15.37
14.94
14.23
12.82
10.68
8.17
5.88
4.21
3.12
2.13
0.60
-1.85
-5.11
-8.56
-11.47
-13.39
-14.50
-15.52
-17.28
-20.18
-23.85
-27.28
-29.23
-28.84
-26.08
-21.71
-16.78
-12.13
-7.96
-3.91
0.61
5.85
11.43
16.44
19.93
21.47
21.40
20.63
20.18
20.58
21.63
22.57
22.61
21.42
19.30
17.00
15.29
14.53
14.49
14.53
14.04
12.71
10.72
8.59
6.91
5.96
5.53
5.06
3.90
1.74
-1.24
-4.43
-7.10
-8.82
-9.72
-10.41
-11.59
-13.72
-16.68
-19.84
-22.35
-23.52
-23.15
-21.50
-19.05
-16.21
-13.09
-9.48
-5.04
0.30
6.14
11.66
15.99
18.61
19.60
19.66
19.71
20.38
21.70
23.12
23.95
23.73
22.55
20.98
19.70
19.07
18.91
18.65
17.73
15.92
13.52
11.16
9.47
8.65
8.39
7.97
6.77
4.57
1.68
-1.17
-3.27
-4.31
-4.59
-4.79
-5.61
-7.32
-9.69
-12.14
-14.10
-15.39
-16.29
-17.29
-18.63
-20.09
-20.98
-20.47
-18.06
-13.90
-8.82
-3.96
-0.25
1.99
3.06
3.69
4.59
6.03
7.74
9.11
9.61
9.14
8.09
7.21
7.13
8.03
9.47
10.67
10.93
10.03
8.34
6.62
5.56
5.39
5.72
5.76
4.82
2.72
-0.10
-2.78
-4.57
-5.25
-5.23
-5.36
-6.32
-8.31
-10.88
-13.22
-14.66
-15.08
-14.98
-15.16
-16.17
-17.97
-19.82
-20.67
-19.62
-16.52
-11.99
-7.11
-2.90
0.17
2.29
4.11
6.21
8.69
11.10
12.78
13.29
12.79
11.92
11.48
11.96
13.16
14.34
14.63
13.54
11.27
8.57
6.39
5.34
5.30
5.57
5.25
3.71
1.00
-2.25
-5.07
-6.77
-7.24
-7.04
-7.03
-7.88
-9.69
-11.95
-13.87
-14.88
-15.07
-15.11
-15.87
-17.83
-20.67
-23.39
-24.74
-23.93
-21.01
-16.80
-12.40
-8.60
-5.52
-2.72
0.38
3.99
7.73
10.81
12.54
12.73
11.84
10.78
10.42
11.10
12.49
13.74
14.04
12.99
10.87
8.45
6.63
5.90
6.10
6.52
6.36
5.18
3.11
0.82
-0.91
-1.67
-1.62
-1.46
-1.93
-3.45
-5.82
-8.37
-10.29
-11.16
-11.16
-11.03
-11.58
-13.31
-16.07
-19.11
-21.48
-22.46
-21.91
-20.26
-18.11
-15.86
-13.47
-10.56
-6.71
-1.97
3.08
7.46
10.34
11.46
11.25
10.70
10.77
11.92
13.84
15.69
16.58
16.05
14.35
12.27
10.70
10.10
10.29
10.61
10.36
9.22
7.45
5.70
4.58
4.25
4.31
4.04
2.85
0.64
-2.14
-4.69
-6.37
-7.01
-7.06
-7.27
-8.22
-10.12
-12.63
-15.15
-17.15
-18.48
-19.34
-20.13
-21.06
-21.93
-22.23
-21.34
-18.91
-15.14
-10.75
-6.69
-3.69
-2.00
-1.26
-0.77
0.14
1.68
3.53
5.06
5.74
5.46
4.63
3.94
3.93
4.64
5.58
6.03
5.46
3.82
1.60
-0.41
-1.63
-1.93
-1.71
-1.64
-2.24
-3.61
-5.40
-7.01
-8.02
-8.44
-8.77
-9.65
-11.53
-14.36
-17.61
-20.63
-23.02
-24.88
-26.72
-29.02
-31.75
-34.28
-35.55
-34.62
-31.15
-25.67
-19.28
-13.17
-8.08
-4.08
-0.75
2.50
5.95
9.41
12.35
14.25
14.93
14.68
14.14
13.96
14.43
15.37
16.19
16.36
15.65
14.30
12.89
11.96
11.68
11.74
11.49
10.40
8.30
5.58
2.91
0.91
-0.22
-0.80
-1.52
-2.97
-5.33
-8.28
-11.14
-13.29
-14.52
-15.19
-16.00
-17.55
-19.95
-22.72
-24.93
-25.66
-24.47
-21.57
-17.66
-13.53
-9.66
-6.10
-2.53
1.40
5.74
10.17
14.11
17.08
18.91
19.85
20.38
21.00
21.90
22.88
23.53
23.48
22.65
21.30
19.97
19.15
18.98
19.13
18.99
18.01
16.04
13.42
10.84
8.96
7.97
7.51
6.82
5.25
2.63
-0.64
-3.76
-6.02
-7.27
-7.96
-8.91
-10.81
-13.81
-17.39
-20.61
-22.57
-22.79
-21.41
-19.01
-16.19
-13.25
-10.12
-6.43
-1.91
3.36
8.85
13.76
17.47
19.77
20.96
21.70
22.60
23.86
25.21
26.11
26.15
25.31
24.01
22.90
22.44
22.61
22.95
22.81
21.75
19.80
17.46
15.39
14.06
13.49
13.18
12.45
10.83
8.27
5.22
2.35
0.18
-1.22
-2.32
-3.80
-6.22
-9.62
-13.52
-17.10
-19.63
-20.85
-21.02
-20.72
-20.41
-20.16
-19.58
-18.08
-15.25
-11.19
-6.54
-2.14
1.37
3.87
5.74
7.63
10.00
12.77
15.41
17.23
17.84
17.39
16.51
15.98
16.27
17.27
18.32
18.67
17.88
16.09
13.91
12.10
11.11
10.80
10.57
9.76
8.03
5.58
3.04
1.10
0.09
-0.25
-0.60
-1.68
-3.86
-6.96
-10.40
-13.49
-15.83
-17.45
-18.71
-19.95
-21.25
-22.31
-22.58
-21.56
-19.10
-15.48
-11.37
-7.43
-4.05
-1.22
1.41
4.25
7.40
10.58
13.22
14.81
15.23
14.85
14.37
14.49
15.44
16.91
18.16
18.47
17.49
15.52
13.30
11.60
10.87
10.93
11.12
10.70
9.26
6.98
4.48
2.47
1.31
0.78
0.22
-1.01
-3.18
-6.02
-8.84
-10.99
-12.29
-13.10
-14.08
-15.77
-18.19
-20.78
-22.66
-23.07
-21.80
-19.28
-16.26
-13.40
-10.90
-8.44
-5.45
-1.60
2.91
7.33
10.73
12.52
12.80
12.32
12.09
12.82
14.54
16.60
18.11
18.44
17.56
16.03
14.64
13.96
13.99
14.26
14.07
12.94
10.89
8.40
6.16
4.71
4.07
3.77
3.15
1.70
-0.55
-3.10
-5.22
-6.40
-6.66
-6.54
-6.84
-8.07
-10.24
-12.83
-15.03
-16.23
-16.33
-15.69
-14.87
-14.22
-13.67
-12.75
-10.87
-7.81
-3.87
0.14
3.36
5.30
6.12
6.49
7.21
8.73
10.87
12.98
14.36
14.64
14.02
13.14
12.65
12.85
13.47
13.85
13.36
11.72
9.24
6.61
4.63
3.68
3.61
3.76
3.34
1.92
-0.39
-2.99
-5.13
-6.42
-7.01
-7.52
-8.60
-10.57
-13.18
-15.77
-17.63
-18.45
-18.48
-18.33
-18.54
-19.21
-19.89
-19.76
-18.13
-14.84
-10.40
-5.79
-1.95
0.65
2.21
3.42
4.98
7.20
9.76
11.94
13.04
12.79
11.50
9.88
8.65
8.14
8.15
8.14
7.60
6.38
4.81
3.49
2.96
3.30
4.05
4.45
3.84
1.97
-0.80
-3.75
-6.17
-7.76
-8.77
-9.78
-11.34
-13.59
-16.23
-18.63
-20.32
-21.24
-21.79
-22.57
-23.95
-25.76
-27.30
-27.66
-26.19
-22.88
-18.39
-13.73
-9.76
-6.80
-4.59
-2.53
-0.13
2.60
5.18
6.91
7.33
6.57
5.30
4.39
4.46
5.48
6.83
7.68
7.40
5.91
3.66
1.37
-0.40
-1.56
-2.43
-3.54
-5.22
-7.44
-9.79
-11.74
-12.97
-13.61
-14.14
-15.08
-16.70
-18.77
-20.73
-21.99
-22.29
-21.96
-21.68
-22.14
-23.53
-25.47
-27.06
-27.34
-25.76
-22.39
-17.88
-13.04
-8.51
-4.47
-0.72
3.10
7.17
11.27
14.86
17.41
18.70
18.98
18.89
19.19
20.25
21.91
23.53
24.40
24.10
22.72
20.85
19.19
18.14
17.62
17.12
16.06
14.15
11.54
8.78
6.50
5.03
4.20
3.49
2.31
0.39
-2.12
-4.67
-6.68
-7.97
-8.83
-9.99
-12.11
-15.44
-19.52
-23.39
-25.96
-26.59
-25.28
-22.67
-19.52
-16.38
-13.32
-9.98
-5.98
-1.28
3.62
7.94
10.96
12.48
12.87
12.91
13.38
14.57
16.21
17.60
18.07
17.38
15.81
14.10
12.93
12.54
12.60
12.41
11.34
9.23
6.47
3.81
1.90
0.89
0.41
-0.24
-1.63
-3.95
-6.85
-9.73
-12.05
-13.67
-14.94
-16.46
-18.77
-22.00
-25.76
-29.31
-31.79
-32.68
-31.93
-29.90
-27.08
-23.80
-20.07
-15.64
-10.30
-4.21
2.02
7.52
11.63
14.15
15.50
16.51
17.85
19.75
21.78
23.23
23.51
22.52
20.74
18.92
17.66
17.08
16.76
16.07
14.59
12.32
9.71
7.40
5.80
4.88
4.15
2.98
0.98
-1.83
-4.97
-7.83
-9.98
-11.50
-12.91
-14.93
-18.05
-22.24
-26.92
-31.18
-34.20
-35.55
-35.28
-33.67
-30.97
-27.23
-22.33
-16.18
-9.03
-1.48
5.61
11.55
16.01
19.16
21.51
23.65
25.86
28.04
29.78
30.66
30.50
29.51
28.23
27.19
26.64
26.41
25.94
24.70
22.52
19.68
16.88
14.79
13.70
13.29
12.80
11.45
8.86
5.22
1.20
-2.40
-5.13
-7.09
-8.87
-11.17
-14.43
-18.57
-23.04
-27.07
-30.09
-31.90
-32.61
-32.40
-31.27
-28.98
-25.13
-19.51
-12.36
-4.39
3.45
10.32
15.85
20.16
23.70
26.90
29.87
32.31
33.75
33.85
32.70
30.83
28.98
27.79
27.44
27.63
27.72
27.15
25.72
23.65
21.52
19.85
18.81
18.15
17.34
15.96
13.90
11.48
9.19
7.48
6.37
5.48
4.25
2.21
-0.65
-3.96
-7.16
-9.82
-11.97
-14.02
-16.54
-19.75
-23.31
-26.31
-27.68
-26.64
-23.14
-17.85
-11.91
-6.35
-1.72
2.07
5.55
9.22
13.15
16.86
19.62
20.83
20.47
19.16
17.87
17.42
17.99
19.06
19.74
19.27
17.52
15.01
12.65
11.16
10.64
10.57
10.10
8.53
5.77
2.32
-0.96
-3.33
-4.57
-5.03
-5.42
-6.35
-7.95
-9.85
-11.42
-12.18
-12.22
-12.12
-12.64
-14.23
-16.68
-19.16
-20.54
-20.02
-17.52
-13.66
-9.41
-5.55
-2.30
0.67
3.93
7.82
12.12
16.16
19.16
20.69
20.88
20.37
20.01
20.30
21.21
22.20
22.54
21.79
20.03
17.82
15.91
14.80
14.48
14.47
14.15
13.11
11.40
9.40
7.67
6.45
5.57
4.59
3.07
0.95
-1.42
-3.42
-4.54
-4.77
-4.61
-4.83
-5.99
-8.06
-10.40
-11.98
-11.90
-9.84
-6.21
-1.94
2.07
5.39
8.31
11.60
16.12
22.20
29.42
36.68
42.62
46.20
46.98
45.21
41.61
36.92
31.70
26.20
20.55
14.91
9.56
4.85
1.03
-1.97
-4.52
-7.12
-10.17
-13.71
-17.40
-20.68
-23.07
-24.46
-25.21
-25.97
-27.30
-29.39
-31.95
-34.33
-35.89
-36.40
-36.17
-35.86
-36.17
-37.41
-39.37
-41.31
-42.41
-42.08
-40.26
-37.30
-33.67
-29.73
-25.54
-20.90
-15.69
-10.08
-4.64
-0.09
3.08
4.85
5.76
6.58
7.99
10.10
12.49
14.40
15.21
14.77
13.48
12.12
11.37
11.46
12.06
12.47
12.08
10.70
8.62
6.48
4.79
3.63
2.55
0.91
-1.70
-5.14
-8.76
-11.68
-13.31
-13.68
-13.45
-13.60
-14.88
-17.52
-21.12
-24.90
-28.14
-30.46
-31.87
-32.58
-32.73
-32.23
-30.78
-28.10
-24.14
-19.29
-14.22
-9.61
-5.88
-3.05
-0.81
1.27
3.39
5.39
6.83
7.28
6.64
5.24
3.77
2.99
3.28
4.47
5.91
6.85
6.80
5.77
4.26
2.87
2.00
1.53
0.96
-0.31
-2.56
-5.56
-8.63
-10.99
-12.23
-12.55
-12.63
-13.26
-14.86
-17.35
-20.18
-22.79
-24.92
-26.70
-28.48
-30.36
-31.99
-32.56
-31.19
-27.31
-21.13
-13.52
-5.75
1.05
6.30
10.06
12.91
15.49
18.13
20.66
22.59
23.48
23.23
22.24
21.20
20.69
20.81
21.14
20.95
19.67
17.28
14.32
11.68
10.16
9.97
10.63
11.19
10.76
8.91
5.91
2.54
-0.33
-2.21
-3.23
-4.01
-5.25
-7.27
-9.94
-12.76
-15.29
-17.39
-19.38
-21.74
-24.69
-27.91
-30.54
-31.50
-29.97
-25.85
-19.78
-12.90
-6.33
-0.71
3.90
7.92
11.83
15.74
19.35
22.07
23.52
23.76
23.35
23.01
23.26
24.03
24.74
24.62
23.24
20.69
17.61
14.84
12.96
12.02
11.56
10.88
9.48
7.30
4.75
2.44
0.85
-0.01
-0.58
-1.54
-3.37
-6.06
-9.14
-11.87
-13.72
-14.71
-15.43
-16.69
-19.01
-22.29
-25.72
-28.17
-28.65
-26.85
-23.20
-18.60
-13.95
-9.70
-5.79
-1.76
2.76
7.71
12.56
16.51
19.01
20.02
20.10
20.07
20.61
21.86
23.33
24.25
23.99
22.47
20.16
17.86
16.24
15.43
15.01
14.29
12.78
10.46
7.81
5.49
3.92
2.99
2.13
0.67
-1.74
-4.87
-8.10
-10.68
-12.27
-13.15
-14.09
-15.91
-18.97
-22.91
-26.79
-29.44
-30.06
-28.55
-25.50
-21.79
-18.08
-14.53
-10.82
-6.43
-1.14
4.70
10.27
14.64
17.24
18.17
18.10
17.93
18.27
19.19
20.20
20.65
20.16
18.81
17.16
15.87
15.32
15.38
15.47
14.98
13.61
11.54
9.35
7.64
6.68
6.21
5.61
4.25
1.91
-1.09
-4.03
-6.17
-7.20
-7.47
-7.84
-9.23
-12.13
-16.31
-20.94
-24.87
-27.23
-27.74
-26.72
-24.77
-22.40
-19.73
-16.48
-12.27
-6.95
-0.88
5.16
10.33
14.09
16.46
17.97
19.26
20.69
22.15
23.11
23.04
21.77
19.63
17.38
15.81
15.30
15.62
16.10
15.97
14.80
12.76
10.47
8.70
7.89
7.85
7.90
7.27
5.56
3.01
0.34
-1.62
-2.53
-2.73
-3.06
-4.36
-6.96
-10.50
-14.12
-16.99
-18.82
-19.95
-21.04
-22.53
-24.27
-25.52
-25.32
-23.00
-18.62
-12.92
-7.00
-1.78
2.35
5.54
8.26
10.91
13.53
15.80
17.24
17.59
17.02
16.07
15.45
15.64
16.58
17.69
18.18
17.52
15.73
13.33
11.15
9.76
9.25
9.14
8.71
7.44
5.24
2.54
-0.05
-1.96
-3.10
-3.78
-4.57
-5.93
-7.97
-10.38
-12.59
-14.15
-15.06
-15.78
-17.04
-19.31
-22.45
-25.69
-27.87
-28.03
-25.87
-21.93
-17.25
-12.86
-9.28
-6.38
-3.60
-0.42
3.21
6.80
9.57
10.91
10.79
9.80
8.88
8.83
9.83
11.43
12.79
13.21
12.52
11.13
9.82
9.19
9.36
9.84
9.91
8.96
6.90
4.13
1.40
-0.70
-1.98
-2.76
-3.64
-5.13
-7.32
-9.84
-12.07
-13.51
-14.17
-14.57
-15.44
-17.33
-20.21
-23.44
-26.09
-27.39
-27.06
-25.42
-23.05
-20.41
-17.54
-14.12
-9.77
-4.47
1.21
6.26
9.70
11.03
10.55
9.18
8.09
8.09
9.28
11.06
12.51
12.90
12.07
10.49
8.95
8.10
8.09
8.46
8.52
7.75
6.12
4.11
2.45
1.60
1.51
1.60
1.16
-0.25
-2.53
-5.12
-7.37
-8.96
-10.03
-11.11
-12.72
-15.04
-17.83
-20.57
-22.73
-24.06
-24.68
-24.91
-24.99
-24.80
-23.95
-21.87
-18.15
-12.86
-6.61
-0.35
4.97
8.79
11.16
12.56
13.68
14.96
16.42
17.68
18.34
18.21
17.51
16.77
16.49
16.85
17.58
18.08
17.81
16.57
14.61
12.52
10.90
9.98
9.53
9.00
7.85
5.91
3.46
1.09
-0.67
-1.70
-2.33
-3.23
-4.92
-7.53
-10.71
-13.82
-16.31
-18.05
-19.41
-21.00
-23.24
-26.03
-28.75
-30.43
-30.24
-27.87
-23.69
-18.55
-13.37
-8.74
-4.82
-1.31
2.20
5.83
9.33
12.19
13.94
14.53
14.36
14.10
14.31
15.06
15.93
16.26
15.56
13.87
11.73
9.95
9.15
9.37
10.06
10.37
9.65
7.72
5.02
2.31
0.25
-1.02
-1.90
-3.12
-5.21
-8.22
-11.59
-14.48
-16.24
-16.90
-17.13
-17.89
-19.92
-23.22
-27.03
-30.11
-31.31
-30.12
-26.82
-22.30
-17.52
-13.06
-8.93
-4.69
0.06
5.30
10.44
14.68
17.38
18.52
18.69
18.77
19.45
20.84
22.42
23.38
23.17
21.76
19.68
17.72
16.51
16.11
16.05
15.63
14.29
11.97
9.04
6.18
3.88
2.22
0.77
-1.06
-3.65
-6.96
-10.46
-13.45
-15.44
-16.53
-17.36
-18.87
-21.77
-26.18
-31.47
-36.49
-40.09
-41.51
-40.69
-38.11
-34.41
-30.04
-25.08
-19.35
-12.72
-5.45
1.78
8.11
12.91
16.09
18.10
19.65
21.33
23.21
24.88
25.79
25.60
24.44
22.91
21.76
21.44
21.86
22.42
22.38
21.29
19.23
16.80
14.75
13.58
13.17
12.93
12.10
10.18
7.28
4.00
1.11
-0.91
-2.10
-3.05
-4.40
-6.60
-9.62
-13.11
-16.56
-19.66
-22.32
-24.56
-26.27
-27.10
-26.51
-23.98
-19.30
-12.77
-5.22
2.31
8.91
14.09
17.94
20.94
23.69
26.46
29.09
31.06
31.86
31.32
29.79
28.01
26.73
26.31
26.54
26.79
26.39
25.00
22.80
20.33
18.25
16.88
16.10
15.38
14.16
12.12
9.38
6.45
3.90
2.02
0.62
-0.82
-2.85
-5.65
-8.92
-12.06
-14.55
-16.32
-17.86
-19.88
-22.80
-26.39
-29.72
-31.59
-31.07
-27.96
-22.85
-16.85
-10.98
-5.83
-1.40
2.68
6.81
11.07
15.12
18.36
20.25
20.65
19.87
18.62
17.65
17.39
17.74
18.14
17.93
16.74
14.72
12.47
10.67
9.64
9.10
8.35
6.63
3.63
-0.38
-4.66
-8.41
-11.18
-13.08
-14.63
-16.35
-18.52
-21.07
-23.66
-26.05
-28.24
-30.50
-33.13
-36.18
-39.18
-41.33
-41.70
-39.72
-35.40
-29.38
-22.64
-15.99
-9.77
-3.83
2.31
8.95
15.89
22.35
27.29
29.89
30.00
28.26
25.84
23.93
23.20
23.61
24.53
25.25
25.34
24.92
24.48
24.56
25.33
26.45
27.21
26.93
25.34
22.66
19.49
16.43
13.70
11.02
7.81
3.61
-1.58
-7.25
-12.56
-16.83
-19.95
-22.37
-24.79
-27.64
-30.71
-33.24
-34.21
-32.84
-29.02
-23.37
-16.88
-10.55
-4.96
-0.24
3.82
7.52
10.95
13.93
16.17
17.46
17.88
17.83
17.90
18.61
20.06
21.90
23.42
23.99
23.38
21.85
20.10
18.76
18.08
17.72
17.05
15.50
13.01
10.08
7.55
6.11
5.82
6.09
5.94
4.58
1.83
-1.78
-5.31
-7.97
-9.59
-10.69
-12.13
-14.55
-17.93
-21.58
-24.39
-25.43
-24.38
-21.66
-18.12
-14.57
-11.39
-8.42
-5.16
-1.21
3.40
8.11
12.09
14.66
15.67
15.55
15.13
15.16
15.91
17.02
17.75
17.47
16.04
13.89
11.80
10.39
9.76
9.43
8.68
7.01
4.50
1.71
-0.55
-1.75
-2.01
-1.97
-2.54
-4.36
-7.44
-11.19
-14.71
-17.31
-18.84
-19.85
-21.17
-23.49
-26.88
-30.69
-33.81
-35.17
-34.29
-31.43
-27.39
-23.00
-18.72
-14.44
-9.73
-4.26
1.74
7.46
11.87
14.27
14.72
14.04
13.44
13.84
15.39
17.40
18.79
18.70
17.03
14.45
12.01
10.54
10.19
10.40
10.26
9.12
6.92
4.19
1.75
0.09
-0.86
-1.75
-3.37
-6.20
-10.11
-14.44
-18.32
-21.17
-23.06
-24.62
-26.72
-29.97
-34.40
-39.35
-43.73
-46.47
-47.01
-45.43
-42.32
-38.37
-33.94
-28.94
-22.95
-15.66
-7.29
1.33
9.04
14.88
18.52
20.38
21.36
22.36
23.72
25.20
26.18
26.13
24.91
22.94
20.94
19.55
18.98
18.94
18.80
17.98
16.24
13.82
11.35
9.43
8.30
7.68
6.93
5.42
2.89
-0.42
-3.90
-6.97
-9.43
-11.57
-13.95
-17.03
-20.89
-25.16
-29.26
-32.72
-35.42
-37.58
-39.45
-40.97
-41.69
-40.82
-37.65
-31.96
-24.25
-15.64
-7.42
-0.54
4.66
8.53
11.76
14.89
18.03
20.80
22.64
23.23
22.71
21.68
20.87
20.76
21.25
21.77
21.61
20.39
18.30
16.02
14.33
13.67
13.82
14.04
13.48
11.61
8.58
5.03
1.81
-0.57
-2.17
-3.59
-5.59
-8.61
-12.53
-16.76
-20.59
-23.61
-26.01
-28.41
-31.37
-34.96
-38.51
-40.87
-40.91
-38.08
-32.67
-25.65
-18.11
-10.80
-3.91
2.81
9.60
16.37
22.56
27.40
30.32
31.29
30.90
30.07
29.65
30.01
30.90
31.65
31.57
30.39
28.34
26.07
24.23
23.14
22.54
21.81
20.33
17.86
14.70
11.50
8.92
7.19
6.00
4.64
2.44
-0.86
-4.94
-9.09
-12.57
-15.03
-16.66
-18.09
-20.01
-22.86
-26.60
-30.77
-34.71
-37.90
-40.19
-41.68
-42.54
-42.72
-41.80
-39.14
-34.18
-26.86
-17.77
-8.04
1.12
8.90
15.14
20.24
24.79
29.17
33.26
36.54
38.48
38.85
37.91
36.31
34.78
33.78
33.35
33.10
32.54
31.37
29.63
27.67
26.00
24.86
24.10
23.22
21.67
19.21
16.05
12.79
10.10
8.34
7.30
6.30
4.58
1.73
-2.09
-6.15
-9.56
-11.72
-12.71
-13.21
-14.15
-16.22
-19.55
-23.65
-27.68
-30.91
-33.04
-34.18
-34.59
-34.32
-33.05
-30.19
-25.26
-18.26
-9.88
-1.27
6.42
12.44
16.73
19.81
22.39
24.90
27.26
29.03
29.71
29.18
27.83
26.38
25.49
25.35
25.56
25.39
24.21
21.88
18.89
16.06
14.14
13.34
13.22
12.91
11.65
9.16
5.80
2.36
-0.37
-2.06
-2.98
-3.81
-5.20
-7.38
-10.06
-12.64
-14.59
-15.85
-16.89
-18.44
-21.01
-24.57
-28.50
-31.82
-33.65
-33.57
-31.76
-28.82
-25.33
-21.64
-17.70
-13.23
-8.04
-2.24
3.62
8.78
12.62
14.94
16.04
16.60
17.27
18.39
19.76
20.85
21.13
20.41
18.92
17.24
15.92
15.22
14.93
14.57
13.71
12.18
10.21
8.24
6.71
5.74
5.10
4.30
2.91
0.74
-2.03
-4.98
-7.59
-9.61
-11.12
-12.48
-14.11
-16.30
-18.98
-21.83
-24.42
-26.47
-27.98
-29.20
-30.38
-31.53
-32.27
-31.97
-29.99
-26.08
-20.56
-14.29
-8.21
-3.06
0.94
4.08
6.86
9.61
12.30
14.55
15.94
16.33
15.96
15.43
15.35
15.99
17.14
18.20
18.55
17.84
16.22
14.27
12.66
11.81
11.65
11.65
11.19
9.89
7.81
5.40
3.22
1.53
0.21
-1.20
-3.10
-5.57
-8.25
-10.58
-12.12
-12.86
-13.34
-14.31
-16.37
-19.55
-23.32
-26.71
-28.73
-28.84
-27.12
-24.17
-20.74
-17.35
-14.05
-10.51
-6.32
-1.36
3.98
8.97
12.89
15.38
16.60
17.12
17.61
18.46
19.60
20.63
21.08
20.71
19.64
18.35
17.39
17.08
17.34
17.66
17.45
16.28
14.18
11.67
9.43
7.93
7.14
6.51
5.38
3.35
0.55
-2.41
-4.80
-6.29
-7.11
-8.00
-9.71
-12.61
-16.48
-20.64
-24.24
-26.77
-28.19
-28.86
-29.27
-29.63
-29.80
-29.29
-27.62
-24.61
-20.60
-16.28
-12.40
-9.39
-7.19
-5.33
-3.19
-0.41
2.87
6.10
8.62
10.03
10.37
10.12
9.92
10.19
10.91
11.66
11.91
11.35
10.10
8.62
7.50
7.06
7.13
7.18
6.61
5.11
2.83
0.38
-1.57
-2.66
-3.08
-3.49
-4.57
-6.71
-9.69
-12.85
-15.43
-17.09
-18.10
-19.16
-20.94
-23.56
-26.49
-28.72
-29.30
-27.82
-24.63
-20.57
-16.49
-12.83
-9.51
-6.09
-2.17
2.27
6.75
10.56
13.12
14.30
14.50
14.44
14.83
15.96
17.53
18.88
19.35
18.69
17.21
15.60
14.50
14.16
14.18
13.87
12.63
10.33
7.43
4.69
2.75
1.69
0.98
-0.16
-2.34
-5.60
-9.45
-13.05
-15.70
-17.24
-18.11
-19.13
-21.00
-23.95
-27.53
-30.88
-33.05
-33.53
-32.40
-30.22
-27.70
-25.23
-22.73
-19.73
-15.69
-10.46
-4.41
1.62
6.77
10.50
12.83
14.29
15.56
17.07
18.78
20.24
20.99
20.85
20.05
19.16
18.70
18.81
19.12
18.96
17.82
15.57
12.66
9.85
7.85
6.93
6.77
6.64
5.81
3.89
0.98
-2.38
-5.46
-7.79
-9.30
-10.44
-11.83
-14.01
-17.11
-20.78
-24.31
-27.04
-28.61
-29.04
-28.62
-27.60
-25.97
-23.45
-19.68
-14.58
-8.49
-2.17
3.54
8.07
11.34
13.73
15.80
17.96
20.18
22.09
23.22
23.32
22.57
21.47
20.66
20.40
20.52
20.46
19.64
17.83
15.30
12.67
10.59
9.35
8.71
8.06
6.76
4.48
1.37
-2.02
-5.04
-7.26
-8.76
-10.04
-11.77
-14.42
-17.96
-21.89
-25.47
-28.12
-29.69
-30.43
-30.70
-30.64
-30.03
-28.30
-24.94
-19.86
-13.49
-6.71
-0.39
4.88
8.96
12.13
14.84
17.35
19.66
21.48
22.51
22.63
22.04
21.20
20.63
20.58
20.90
21.09
20.57
19.03
16.62
13.86
11.39
9.61
8.43
7.35
5.73
3.17
-0.29
-4.15
-7.77
-10.70
-12.92
-14.90
-17.26
-20.47
-24.58
-29.20
-33.65
-37.31
-39.84
-41.23
-41.59
-40.96
-39.16
-35.84
-30.68
-23.73
-15.49
-6.83
1.35
8.43
14.27
19.18
23.62
27.89
31.85
35.04
36.93
37.26
36.26
34.60
33.03
32.05
31.61
31.23
30.34
28.63
26.23
23.68
21.54
20.05
18.97
17.72
15.70
12.69
8.89
4.92
1.50
-0.93
-2.45
-3.58
-5.08
-7.53
-11.08
-15.40
-19.83
-23.74
-26.81
-29.08
-30.71
-31.71
-31.78
-30.30
-26.67
-20.69
-12.78
-3.86
4.96
12.81
19.27
24.36
28.35
31.44
33.67
34.86
34.92
33.93
32.30
30.61
29.39
28.89
28.88
28.86
28.26
26.78
24.52
21.96
19.66
17.96
16.78
15.63
13.94
11.37
8.00
4.38
1.19
-1.14
-2.65
-3.88
-5.50
-7.99
-11.39
-15.28
-19.03
-22.19
-24.75
-27.02
-29.32
-31.64
-33.48
-34.00
-32.40
-28.38
-22.33
-15.21
-8.07
-1.63
3.95
8.98
13.96
19.07
24.05
28.22
30.92
31.83
31.23
29.90
28.79
28.53
29.17
30.16
30.66
29.99
27.95
24.92
21.61
18.70
16.45
14.65
12.80
10.49
7.67
4.65
1.96
-0.07
-1.55
-3.00
-5.05
-8.01
-11.73
-15.61
-19.00
-21.59
-23.58
-25.56
-28.07
-31.18
-34.35
-36.61
-37.00
-35.03
-30.91
-25.40
-19.41
-13.59
-8.11
-2.77
2.77
8.57
14.27
19.17
22.51
23.85
23.27
21.40
19.15
17.34
16.40
16.24
16.50
16.76
16.80
16.68
16.55
16.48
16.27
15.54
13.95
11.51
8.67
6.12
4.50
3.94
4.00
3.85
2.71
0.23
-3.26
-7.00
-10.14
-12.20
-13.37
-14.32
-15.85
-18.45
-21.97
-25.66
-28.42
-29.27
-27.76
-24.09
-18.98
-13.28
-7.69
-2.55
2.13
6.37
9.99
12.59
13.70
13.12
11.12
8.44
6.01
4.58
4.33
4.92
5.69
6.09
5.92
5.40
4.94
4.82
4.96
4.93
4.19
2.43
-0.25
-3.31
-6.03
-7.86
-8.73
-9.08
-9.63
-10.96
-13.22
-16.10
-19.02
-21.56
-23.73
-25.99
-28.89
-32.72
-37.12
-41.17
-43.73
-43.93
-41.57
-37.15
-31.53
-25.47
-19.34
-12.99
-6.02
1.79
10.26
18.76
26.47
32.74
37.36
40.51
42.59
43.88
44.34
43.66
41.52
37.88
33.17
28.19
23.87
20.87
19.35
18.89
18.73
18.16
16.79
14.65
12.19
9.86
7.88
6.13
4.27
2.07
-0.40
-2.72
-4.37
-5.03
-4.96
-4.89
-5.77
-8.17
-12.01
-16.41
-20.02
-21.62
-20.64
-17.37
-12.77
-7.95
-3.68
-0.12
3.13
6.56
10.36
14.18
17.29
19.02
19.11
17.92
16.24
14.92
14.43
14.71
15.32
15.76
15.77
15.38
14.78
14.06
13.01
11.18
8.20
4.07
-0.68
-5.18
-8.56
-10.34
-10.76
-10.64
-11.04
-12.82
-16.30
-21.19
-26.76
-32.23
-37.11
-41.30
-45.07
-48.66
-52.12
-55.06
-56.80
-56.68
-54.41
-50.21
-44.79
-38.94
-33.18
-27.58
-21.78
-15.36
-8.24
-0.93
5.66
10.57
13.29
14.02
13.57
13.03
13.14
14.04
15.23
15.98
15.75
14.54
12.86
11.40
10.57
10.29
10.02
9.17
7.41
4.91
2.19
-0.23
-2.16
-3.87
-5.90
-8.60
-11.94
-15.43
-18.39
-20.40
-21.59
-22.66
-24.50
-27.67
-32.04
-36.69
-40.28
-41.55
-39.89
-35.53
-29.31
-22.26
-15.13
-8.19
-1.23
5.99
13.44
20.63
26.77
31.15
33.52
34.25
34.20
34.26
34.88
35.91
36.67
36.49
35.12
32.91
30.64
29.03
28.29
27.97
27.17
25.15
21.68
17.19
12.59
8.76
6.13
4.54
3.40
2.06
0.16
-2.24
-4.83
-7.32
-9.81
-12.77
-16.84
-22.32
-28.80
-35.13
-39.80
-41.50
-39.69
-34.84
-28.08
-20.71
-13.63
-7.13
-1.06
4.92
10.84
16.36
20.94
24.16
25.97
26.73
27.03
27.36
27.83
28.15
27.81
26.48
24.27
21.69
19.46
18.10
17.63
17.51
16.92
15.19
12.09
7.94
3.41
-0.82
-4.38
-7.36
-10.11
-12.97
-16.08
-19.26
-22.14
-24.46
-26.33
-28.26
-30.97
-34.96
-40.13
-45.69
-50.33
-52.71
-51.99
-48.13
-41.84
-34.20
-26.16
-18.26
-10.56
-2.90
4.66
11.75
17.70
21.92
24.23
24.98
24.89
24.76
24.99
25.51
25.89
25.70
24.86
23.67
22.62
22.11
22.07
22.03
21.32
19.50
16.60
13.13
9.84
7.30
5.60
4.27
2.56
-0.12
-3.83
-8.06
-11.95
-14.77
-16.34
-17.13
-18.03
-19.90
-23.12
-27.45
-32.13
-36.26
-39.12
-40.35
-39.93
-37.92
-34.35
-29.13
-22.25
-13.85
-4.48
4.99
13.54
20.40
25.23
28.20
29.91
31.00
31.91
32.70
33.12
32.86
31.79
30.12
28.34
26.95
26.21
25.97
25.72
24.92
23.28
20.90
18.27
16.03
14.53
13.65
12.87
11.51
9.13
5.78
1.94
-1.68
-4.61
-6.82
-8.69
-10.72
-13.16
-15.88
-18.45
-20.46
-21.91
-23.26
-25.17
-28.05
-31.66
-35.11
-37.17
-36.79
-33.62
-28.14
-21.39
-14.48
-8.19
-2.72
2.05
6.39
10.33
13.60
15.83
16.78
16.61
15.85
15.23
15.29
16.18
17.54
18.73
19.17
18.65
17.39
15.96
14.92
14.55
14.67
14.75
14.27
12.97
10.97
8.73
6.70
5.08
3.66
1.97
-0.43
-3.66
-7.38
-10.93
-13.66
-15.36
-16.39
-17.56
-19.67
-23.06
-27.38
-31.60
-34.47
-35.07
-33.21
-29.43
-24.66
-19.71
-14.89
-9.97
-4.53
1.57
7.95
13.75
18.07
20.45
21.10
20.75
20.26
20.14
20.36
20.51
20.17
19.21
17.91
16.72
16.04
15.87
15.79
15.21
13.65
11.09
7.93
4.85
2.49
1.07
0.32
-0.40
-1.66
-3.70
-6.29
-8.85
-10.79
-11.79
-12.04
-12.09
-12.61
-14.05
-16.56
-19.85
-23.39
-26.58
-28.97
-30.27
-30.38
-29.31
-27.03
-23.58
-18.98
-13.46
-7.47
-1.61
3.56
7.74
10.95
13.53
15.88
18.23
20.46
22.20
23.03
22.76
21.52
19.77
18.06
16.79
16.03
15.55
14.98
14.06
12.77
11.35
10.17
9.45
9.13
8.86
8.18
6.79
4.72
2.31
0.10
-1.54
-2.56
-3.27
-4.11
-5.38
-7.13
-9.20
-11.37
-13.64
-16.32
-19.78
-24.11
-28.89
-33.16
-35.73
-35.67
-32.73
-27.46
-21.00
-14.54
-8.89
-4.30
-0.50
2.98
6.47
9.96
13.17
15.72
17.39
18.20
18.39
18.26
17.98
17.51
16.70
15.44
13.85
12.26
11.10
10.70
11.07
11.83
12.36
12.13
10.88
8.81
6.39
4.16
2.41
1.06
-0.29
-2.05
-4.38
-7.10
-9.71
-11.64
-12.64
-12.93
-13.24
-14.43
-17.12
-21.32
-26.34
-31.04
-34.27
-35.36
-34.28
-31.55
-27.83
-23.66
-19.21
-14.42
-9.27
-3.99
0.87
4.71
7.16
8.28
8.57
8.72
9.28
10.38
11.72
12.72
12.92
12.25
11.07
9.99
9.52
9.72
10.21
10.37
9.73
8.24
6.37
4.80
4.02
3.99
4.14
3.72
2.22
-0.27
-3.13
-5.51
-6.79
-6.97
-6.70
-6.90
-8.41
-11.49
-15.73
-20.13
-23.54
-25.12
-24.60
-22.25
-18.57
-13.97
-8.62
-2.51
4.16
10.74
16.15
19.20
19.26
16.55
12.22
7.84
4.71
3.33
3.31
3.77
3.93
3.51
2.84
2.49
2.82
3.68
4.46
4.47
3.37
1.42
-0.67
-2.14
-2.65
-2.46
-2.26
-2.76
-4.28
-6.56
-9.01
-10.99
-12.25
-13.02
-13.93
-15.64
-18.55
-22.62
-27.37
-32.06
-35.92
-38.42
-39.36
-38.85
-37.10
-34.27
-30.36
-25.22
-18.82
-11.43
-3.72
3.42
9.21
13.35
16.06
18.02
19.95
22.19
24.57
26.52
27.50
27.25
26.05
24.48
23.17
22.33
21.73
20.87
19.30
17.02
14.45
12.25
10.89
10.32
9.99
9.06
6.98
3.72
-0.20
-3.96
-6.83
-8.61
-9.62
-10.54
-12.01
-14.40
-17.63
-21.33
-25.05
-28.49
-31.56
-34.25
-36.38
-37.52
-37.07
-34.47
-29.52
-22.61
-14.64
-6.71
0.25
5.76
9.83
12.87
15.37
17.63
19.68
21.27
22.18
22.34
21.97
21.48
21.21
21.24
21.32
20.99
19.88
17.97
15.63
13.42
11.82
10.91
10.35
9.56
8.09
5.86
3.20
0.64
-1.41
-2.93
-4.30
-6.07
-8.66
-12.12
-16.11
-20.10
-23.70
-26.80
-29.56
-32.12
-34.34
-35.72
-35.53
-33.16
-28.43
-21.78
-14.12
-6.50
0.31
6.05
10.86
15.16
19.22
22.99
26.06
27.95
28.42
27.69
26.41
25.37
25.15
25.75
26.64
27.03
26.32
24.39
21.64
18.78
16.41
14.66
13.19
11.42
8.89
5.57
1.83
-1.71
-4.51
-6.42
-7.75
-9.10
-11.03
-13.83
-17.40
-21.36
-25.27
-28.90
-32.23
-35.26
-37.82
-39.40
-39.29
-36.86
-31.87
-24.73
-16.31
-7.65
0.42
7.53
13.67
19.09
23.98
28.30
31.75
33.97
34.79
34.36
33.20
31.99
31.29
31.21
31.43
31.33
30.40
28.54
26.10
23.75
22.02
20.97
20.15
18.87
16.64
13.43
9.76
6.36
3.85
2.32
1.35
0.27
-1.46
-3.99
-7.09
-10.36
-13.50
-16.55
-19.76
-23.37
-27.25
-30.77
-32.98
-32.95
-30.11
-24.64
-17.32
-9.27
-1.49
5.42
11.37
16.59
21.36
25.69
29.31
31.79
32.87
32.67
31.69
30.65
30.13
30.24
30.58
30.48
29.41
27.28
24.51
21.81
19.77
18.49
17.54
16.23
14.03
10.90
7.27
3.83
1.15
-0.66
-1.96
-3.37
-5.39
-8.17
-11.43
-14.61
-17.27
-19.35
-21.24
-23.55
-26.75
-30.76
-34.87
-37.90
-38.75
-36.83
-32.36
-26.20
-19.41
-12.78
-6.65
-0.92
4.60
9.87
14.52
18.00
19.95
20.43
19.97
19.34
19.23
19.86
20.93
21.81
21.94
21.10
19.51
17.70
16.21
15.24
14.59
13.79
12.43
10.35
7.76
5.11
2.86
1.22
0.04
-1.11
-2.68
-4.89
-7.66
-10.56
-13.15
-15.18
-16.80
-18.51
-20.80
-23.90
-27.50
-30.81
-32.85
-32.92
-30.84
-27.00
-22.09
-16.75
-11.30
-5.73
0.06
5.94
11.41
15.75
18.40
19.27
18.88
18.10
17.80
18.34
19.46
20.46
20.70
19.92
18.42
16.89
15.94
15.76
16.03
16.09
15.38
13.76
11.54
9.32
7.63
6.60
5.92
5.00
3.41
1.11
-1.47
-3.66
-4.96
-5.36
-5.54
-6.55
-9.35
-14.31
-20.98
-28.21
-34.58
-38.97
-40.93
-40.70
-38.96
-36.44
-33.59
-30.57
-27.29
-23.72
-20.04
-16.64
-13.86
-11.72
-9.85
-7.58
-4.22
0.43
5.97
11.45
15.87
18.57
19.53
19.30
18.65
18.13
17.81
17.37
16.42
14.79
12.69
10.61
9.00
8.03
7.44
6.68
5.24
2.92
-0.04
-3.04
-5.48
-7.12
-8.26
-9.64
-12.02
-15.85
-20.88
-26.28
-30.94
-33.91
-34.81
-33.76
-31.22
-27.68
-23.41
-18.52
-13.05
-7.18
-1.32
3.98
8.27
11.40
13.55
15.19
16.74
18.36
19.82
20.62
20.38
19.09
17.24
15.65
15.01
15.49
16.57
17.32
16.97
15.28
12.70
10.06
8.08
7.01
6.50
5.85
4.51
2.32
-0.40
-3.08
-5.25
-6.79
-8.06
-9.68
-12.23
-15.91
-20.42
-25.00
-28.73
-30.89
-31.26
-30.05
-27.75
-24.76
-21.23
-17.00
-11.88
-5.93
0.35
6.18
10.81
13.88
15.59
16.56
17.49
18.82
20.49
22.05
23.00
23.09
22.42
21.41
20.54
20.04
19.80
19.41
18.46
16.74
14.39
11.86
9.68
8.16
7.23
6.43
5.21
3.17
0.31
-2.98
-6.11
-8.67
-10.66
-12.49
-14.77
-17.85
-21.64
-25.57
-28.79
-30.59
-30.71
-29.38
-27.10
-24.29
-21.09
-17.38
-12.99
-7.94
-2.65
2.23
6.10
8.75
10.44
11.74
13.29
15.31
17.57
19.42
20.22
19.70
18.08
16.05
14.41
13.63
13.65
13.94
13.81
12.84
11.11
9.12
7.53
6.71
6.49
6.26
5.40
3.58
1.01
-1.73
-4.00
-5.57
-6.78
-8.31
-10.82
-14.45
-18.72
-22.61
-25.10
-25.61
-24.25
-21.71
-18.81
-16.03
-13.36
-10.40
-6.69
-2.15
2.77
7.28
10.68
12.67
13.52
13.84
14.31
15.23
16.43
17.40
17.63
16.90
15.44
13.82
12.64
12.20
12.33
12.48
12.05
10.73
8.68
6.41
4.51
3.28
2.58
1.88
0.62
-1.50
-4.32
-7.38
-10.13
-12.37
-14.32
-16.45
-19.16
-22.35
-25.36
-27.22
-27.06
-24.58
-20.27
-15.13
-10.23
-6.20
-3.07
-0.35
2.57
5.98
9.70
13.16
15.73
17.08
17.34
17.03
16.78
17.01
17.69
18.40
18.60
17.97
16.58
14.90
13.54
12.89
12.91
13.12
12.88
11.76
9.76
7.31
5.02
3.33
2.19
1.12
-0.42
-2.75
-5.70
-8.75
-11.37
-13.37
-15.10
-17.12
-19.84
-23.08
-26.07
-27.75
-27.30
-24.60
-20.23
-15.24
-10.57
-6.73
-3.63
-0.83
2.15
5.53
9.10
12.37
14.85
16.31
16.91
17.12
17.50
18.33
19.47
20.39
20.50
19.44
17.37
14.84
12.58
11.08
10.33
9.90
9.21
7.90
6.04
4.03
2.35
1.25
0.58
-0.15
-1.45
-3.57
-6.38
-9.40
-12.09
-14.18
-15.86
-17.65
-20.02
-23.08
-26.34
-28.90
-29.81
-28.57
-25.45
-21.26
-17.01
-13.36
-10.40
-7.73
-4.76
-1.19
2.85
6.85
10.26
12.76
14.40
15.51
16.51
17.63
18.78
19.61
19.72
18.92
17.31
15.32
13.51
12.29
11.73
11.49
11.04
9.91
8.01
5.58
3.18
1.26
-0.08
-1.11
-2.33
-4.16
-6.60
-9.33
-11.80
-13.69
-15.10
-16.54
-18.56
-21.37
-24.56
-27.30
-28.61
-27.95
-25.47
-21.91
-18.25
-15.17
-12.76
-10.56
-7.89
-4.28
0.17
4.83
8.86
11.62
12.94
13.20
13.06
13.11
13.58
14.25
14.70
14.57
13.84
12.77
11.81
11.28
11.17
11.19
10.92
10.08
8.66
6.93
5.31
4.08
3.22
2.38
1.09
-1.05
-4.02
-7.48
-10.80
-13.49
-15.52
-17.30
-19.51
-22.58
-26.42
-30.29
-33.12
-34.09
-33.05
-30.56
-27.52
-24.60
-21.92
-19.05
-15.37
-10.57
-4.92
0.81
5.74
9.35
11.67
13.21
14.64
16.39
18.43
20.31
21.42
21.37
20.20
18.44
16.84
16.04
16.20
16.95
17.56
17.41
16.25
14.31
12.15
10.30
8.92
7.74
6.29
4.16
1.29
-2.03
-5.29
-8.06
-10.28
-12.30
-14.67
-17.85
-21.91
-26.40
-30.50
-33.32
-34.28
-33.35
-30.95
-27.69
-24.08
-20.29
-16.19
-11.57
-6.38
-0.92
4.22
8.51
11.67
13.83
15.49
17.21
19.25
21.45
23.31
24.33
24.26
23.33
22.11
21.14
20.64
20.40
19.91
18.80
17.06
15.11
13.54
12.74
12.56
12.42
11.57
9.54
6.42
2.83
-0.38
-2.58
-3.75
-4.45
-5.54
-7.75
-11.27
-15.71
-20.21
-23.88
-26.19
-27.09
-26.91
-26.09
-24.88
-23.24
-20.88
-17.56
-13.29
-8.39
-3.41
1.16
5.06
8.28
11.09
13.69
16.07
18.00
19.10
19.15
18.30
17.00
15.88
15.34
15.35
15.47
15.13
13.98
12.14
10.09
8.46
7.57
7.29
7.12
6.44
4.91
2.60
-0.05
-2.45
-4.20
-5.27
-6.03
-7.08
-8.90
-11.67
-15.16
-18.83
-22.06
-24.45
-25.90
-26.57
-26.67
-26.23
-25.08
-22.93
-19.56
-15.04
-9.79
-4.42
0.52
4.71
8.17
11.15
13.90
16.49
18.75
20.38
21.13
21.05
20.43
19.71
19.26
19.13
19.08
18.73
17.82
16.40
14.78
13.37
12.44
11.89
11.32
10.26
8.42
5.90
3.09
0.52
-1.46
-2.88
-4.13
-5.74
-8.07
-11.17
-14.76
-18.40
-21.73
-24.69
-27.37
-29.86
-32.02
-33.40
-33.42
-31.61
-27.91
-22.74
-16.88
-11.14
-6.07
-1.79
1.93
5.48
9.10
12.74
16.01
18.45
19.75
19.98
19.58
19.18
19.24
19.89
20.80
21.43
21.29
20.22
18.43
16.44
14.76
13.65
13.02
12.46
11.54
10.03
8.03
5.92
4.11
2.76
1.66
0.35
-1.58
-4.19
-7.20
-10.04
-12.32
-14.05
-15.70
-17.85
-20.78
-24.16
-27.14
-28.67
-28.06
-25.32
-21.16
-16.59
-12.41
-8.87
-5.61
-2.02
2.34
7.36
12.38
16.50
19.07
20.03
19.91
19.61
19.88
20.92
22.31
23.30
23.25
21.99
19.94
17.77
16.11
15.14
14.57
13.89
12.71
10.95
8.90
6.96
5.44
4.27
3.09
1.45
-0.87
-3.76
-6.72
-9.18
-10.74
-11.45
-11.83
-12.65
-14.49
-17.51
-21.28
-24.97
-27.69
-28.86
-28.44
-26.83
-24.61
-22.15
-19.46
-16.24
-12.13
-7.10
-1.59
3.58
7.60
10.04
11.03
11.19
11.32
11.90
12.95
14.06
14.70
14.56
13.71
12.57
11.61
11.03
10.68
10.11
8.91
6.99
4.70
2.60
1.22
0.65
0.49
0.02
-1.34
-3.74
-6.79
-9.73
-11.90
-13.10
-13.73
-14.58
-16.41
-19.56
-23.79
-28.35
-32.32
-35.01
-36.15
-35.91
-34.64
-32.61
-29.91
-26.39
-21.91
-16.56
-10.78
-5.29
-0.74
2.56
4.80
6.57
8.54
11.07
13.97
16.66
18.49
19.09
18.61
17.55
16.56
16.02
15.92
15.95
15.75
15.18
14.37
13.66
13.26
13.10
12.73
11.58
9.30
5.99
2.24
