1.593450967000000000e+09
-2.999999999999999889e-02
5.059999999999999609e+00
1.791000000000000014e+01
7.934000000000000341e+01
2.282500000000000000e+02
-4.865000000000000000e+02
-5.900000000000000355e+00
1.561500000000000057e+02
4.678000000000000114e+01
3.799999999999999822e+00
-1.139999999999999902e+00
-4.730000000000000426e+00
-1.560999999999999943e+01
2.378999999999999915e+01
5.615999999999999659e+01
-3.567000000000000171e+01
-4.200000000000000178e+00
1.390000000000000036e+01
6.500000000000000222e-01
-2.294000000000000128e+01
-2.092999999999999972e+01
-3.892999999999999972e+01
-1.268700000000000045e+02
1.903799999999999955e+02
-4.399000000000000199e+01
-4.317000000000000171e+01
-2.553000000000000114e+01
7.650000000000000355e+00
-1.213299999999999983e+02
1.008299999999999983e+02
5.414000000000000057e+01
-5.243999999999999773e+01
-4.977000000000000313e+01
-1.320000000000000062e+00
1.140199999999999960e+02
-1.449900000000000091e+02
-1.024200000000000017e+02
4.196399999999999864e+02
-1.485999999999999943e+02
-1.082300000000000040e+02
5.720000000000000284e+01
-9.093000000000000682e+01
5.421000000000000085e+01
1.310099999999999909e+02
6.228000000000000114e+01
-7.170999999999999375e+01
-7.540000000000000036e+00
8.839999999999999858e+00
-3.196000000000000085e+01
1.626999999999999957e+01
3.310000000000000053e+00
-3.517000000000000171e+01
5.289999999999999858e+01
2.510999999999999943e+01
-3.485999999999999943e+01
1.629999999999999893e+00
3.582999999999999829e+01
-3.370000000000000107e+00
-3.935999999999999943e+01
3.464999999999999858e+01
1.369999999999999929e+01
-3.896999999999999886e+01
6.593999999999999773e+01
-2.475000000000000000e+01
-2.210999999999999943e+01
-4.000000000000000222e-01
2.651000000000000156e+01
4.160000000000000142e+00
-6.343999999999999773e+01
2.871000000000000085e+01
1.111999999999999922e+01
-3.427000000000000313e+01
1.750000000000000000e+01
2.441000000000000014e+01
-2.630999999999999872e+01
-6.910000000000000142e+00
1.607999999999999829e+01
-1.196000000000000085e+01
-5.622999999999999687e+01
3.553999999999999915e+01
1.791000000000000014e+01
-2.146000000000000085e+01
3.275000000000000000e+01
1.200999999999999979e+01
-2.389999999999999858e+01
1.433000000000000007e+01
1.955999999999999872e+01
-1.707000000000000028e+01
-2.778000000000000114e+01
3.321000000000000085e+01
3.080000000000000071e+00
-4.842999999999999972e+01
3.953999999999999915e+01
2.123000000000000043e+01
-2.823999999999999844e+01
1.124000000000000021e+01
2.235000000000000142e+01
-1.316999999999999993e+01
-5.364000000000000057e+01
4.039000000000000057e+01
1.155000000000000071e+01
-4.259000000000000341e+01
4.117000000000000171e+01
1.757999999999999829e+01
-2.376999999999999957e+01
3.232999999999999829e+01
1.106000000000000050e+01
-1.851000000000000156e+01
-1.211999999999999922e+01
5.947999999999999687e+01
-4.307000000000000028e+01
-6.468000000000000682e+01
5.542000000000000171e+01
-3.910000000000000142e+00
-3.374000000000000199e+01
3.963000000000000256e+01
2.030999999999999872e+01
-1.028999999999999915e+01
-3.242000000000000171e+01
2.512999999999999901e+01
5.139999999999999680e+00
-2.630999999999999872e+01
2.582999999999999829e+01
6.299999999999999822e+00
-1.703000000000000114e+01
-1.973999999999999844e+01
8.220000000000000639e+00
-5.320000000000000284e+00
-3.332999999999999829e+01
2.867999999999999972e+01
8.179999999999999716e+00
-1.935000000000000142e+01
-3.069999999999999929e+01
2.475000000000000000e+01
2.660000000000000142e+00
-3.105000000000000071e+01
2.414999999999999858e+01
2.026000000000000156e+01
-5.230000000000000426e+00
-4.407000000000000028e+01
3.289000000000000057e+01
1.158999999999999986e+01
-3.183999999999999986e+01
3.051999999999999957e+01
1.948999999999999844e+01
-1.637999999999999901e+01
-3.527000000000000313e+01
3.435000000000000142e+01
6.160000000000000142e+00
-4.002000000000000313e+01
3.467999999999999972e+01
1.823999999999999844e+01
-1.015000000000000036e+01
6.021000000000000085e+01
-1.571599999999999966e+02
1.484999999999999964e+01
-1.349799999999999898e+02
-1.247099999999999937e+02
2.214399999999999977e+02
3.600000000000000089e+00
-1.780000000000000027e+00
1.801000000000000156e+01
9.250000000000000000e+00
-2.564000000000000057e+01
9.140000000000000568e+00
9.269999999999999574e+00
-2.632999999999999829e+01
4.349999999999999645e+00
1.140000000000000036e+01
-2.383999999999999986e+01
1.558999999999999986e+01
1.589000000000000057e+01
-2.171000000000000085e+01
6.679999999999999716e+00
1.642999999999999972e+01
-1.782000000000000028e+01
2.839999999999999858e+00
2.657999999999999829e+01
-3.410000000000000142e+00
-4.971999999999999886e+01
3.297999999999999687e+01
1.091000000000000014e+01
-3.610000000000000142e+01
-8.720000000000000639e+00
2.478000000000000114e+01
3.729999999999999982e+00
-4.528999999999999915e+01
3.695000000000000284e+01
1.421000000000000085e+01
-1.921000000000000085e+01
5.900000000000000355e+00
1.099000000000000021e+01
-1.567999999999999972e+01
-5.989999999999999858e+01
4.117999999999999972e+01
1.698000000000000043e+01
-3.046999999999999886e+01
1.632000000000000028e+01
2.128000000000000114e+01
-7.169999999999999929e+00
-4.050000000000000000e+01
3.885000000000000142e+01
7.059999999999999609e+00
-3.697999999999999687e+01
3.610000000000000142e+01
9.750000000000000000e+00
-3.076000000000000156e+01
-1.607999999999999829e+01
1.964999999999999858e+01
-5.480000000000000426e+00
-4.160999999999999943e+01
3.692999999999999972e+01
9.369999999999999218e+00
-4.660999999999999943e+01
3.116000000000000014e+01
1.910999999999999943e+01
-2.678000000000000114e+01
2.467000000000000171e+01
2.383999999999999986e+01
-1.341000000000000014e+01
-1.335999999999999943e+01
3.434000000000000341e+01
6.309999999999999609e+00
-5.932000000000000028e+01
5.142999999999999972e+01
1.114000000000000057e+01
-2.837000000000000099e+01
1.359999999999999964e+01
1.635000000000000142e+01
-1.491000000000000014e+01
-3.607999999999999829e+01
3.121999999999999886e+01
6.099999999999999645e+00
-4.885000000000000142e+01
3.542000000000000171e+01
-1.288000000000000078e+01
-4.449000000000000199e+01
1.197000000000000064e+01
5.075999999999999801e+01
7.600000000000000089e-01
-5.224000000000000199e+01
4.872999999999999687e+01
2.458999999999999986e+01
-3.130000000000000071e+01
3.799000000000000199e+01
2.720000000000000195e+00
-5.339999999999999858e+01
1.617000000000000171e+01
2.739999999999999858e+01
-4.620000000000000107e+00
-4.182000000000000028e+01
2.919999999999999929e+01
5.879999999999999893e+00
-5.860000000000000142e+01
5.564999999999999858e+01
1.785000000000000142e+01
-3.290999999999999659e+01
1.992999999999999972e+01
2.589999999999999858e+01
-9.210000000000000853e+00
-5.357999999999999829e+01
3.696000000000000085e+01
1.149000000000000021e+01
-2.567999999999999972e+01
1.000999999999999979e+01
1.976000000000000156e+01
-7.969999999999999751e+00
-5.459000000000000341e+01
2.951999999999999957e+01
7.700000000000000178e-01
-3.336999999999999744e+01
3.211999999999999744e+01
1.535999999999999943e+01
-1.844999999999999929e+01
-2.333999999999999986e+01
2.446999999999999886e+01
-4.700000000000000178e+00
-4.542000000000000171e+01
3.753999999999999915e+01
7.280000000000000249e+00
-3.439000000000000057e+01
2.980000000000000071e+01
2.164999999999999858e+01
-1.964000000000000057e+01
-3.286999999999999744e+01
3.246000000000000085e+01
5.820000000000000284e+00
-4.814999999999999858e+01
3.911999999999999744e+01
1.671999999999999886e+01
-3.304999999999999716e+01
2.155000000000000071e+01
2.473999999999999844e+01
-1.128999999999999915e+01
-4.999000000000000199e+01
3.572999999999999687e+01
9.919999999999999929e+00
-3.625000000000000000e+01
2.944000000000000128e+01
2.071999999999999886e+01
-1.951000000000000156e+01
-3.379999999999999716e+01
3.293999999999999773e+01
3.979999999999999982e+00
-4.470000000000000284e+01
3.972999999999999687e+01
2.258999999999999986e+01
-2.250000000000000000e+01
-3.116000000000000014e+01
2.939999999999999858e+01
6.300000000000000044e-01
-4.756000000000000227e+01
3.997999999999999687e+01
-1.770000000000000018e+00
-2.192000000000000171e+01
5.435999999999999943e+01
-1.870000000000000107e+00
1.919999999999999929e+00
-7.479999999999999716e+01
1.246000000000000085e+01
1.508000000000000007e+01
-3.864999999999999858e+01
9.009999999999999787e+00
7.469999999999999751e+00
-2.601000000000000156e+01
-2.091000000000000014e+01
3.264000000000000057e+01
-2.371000000000000085e+01
-5.207000000000000028e+01
4.147999999999999687e+01
2.496999999999999886e+01
-2.567999999999999972e+01
1.366000000000000014e+01
2.812999999999999901e+01
-9.289999999999999147e+00
-5.967999999999999972e+01
3.517999999999999972e+01
1.903999999999999915e+01
-4.503999999999999915e+01
3.267000000000000171e+01
-2.432999999999999829e+01
-1.741000000000000014e+01
2.476399999999999864e+02
-1.791899999999999977e+02
1.064099999999999966e+02
1.303400000000000034e+02
-1.293700000000000045e+02
-1.251999999999999957e+01
-8.062000000000000455e+01
1.541599999999999966e+02
9.815999999999999659e+01
9.151000000000000512e+01
-9.854000000000000625e+01
4.589999999999999858e+01
-4.339000000000000057e+01
1.827500000000000000e+02
1.015000000000000036e+01
-1.067399999999999949e+02
-5.467999999999999972e+01
4.718999999999999773e+01
1.863499999999999943e+02
2.259199999999999875e+02
-3.537099999999999795e+02
-1.114800000000000040e+02
6.603000000000000114e+01
-3.660000000000000142e+01
9.082999999999999829e+01
-3.442999999999999972e+01
-3.039999999999999858e+01
4.879999999999999716e+01
1.591800000000000068e+02
-1.795900000000000034e+02
-5.807000000000000028e+01
-5.679999999999999716e+00
1.449000000000000021e+01
-3.000000000000000000e+00
3.071999999999999886e+01
5.800000000000000000e+01
6.320000000000000284e+00
-4.836999999999999744e+01
2.285999999999999943e+01
-1.787000000000000099e+01
-5.317000000000000171e+01
4.361999999999999744e+01
-2.879999999999999893e+00
-7.273000000000000398e+01
6.500000000000000000e+01
1.465000000000000036e+01
-7.901999999999999602e+01
7.154000000000000625e+01
1.621000000000000085e+01
-7.707999999999999829e+01
6.964000000000000057e+01
9.849999999999999645e+00
-7.365999999999999659e+01
7.304999999999999716e+01
1.550999999999999979e+01
-8.329000000000000625e+01
8.093000000000000682e+01
1.757999999999999829e+01
-8.512000000000000455e+01
7.676000000000000512e+01
2.973000000000000043e+01
-6.042000000000000171e+01
5.284000000000000341e+01
3.253999999999999915e+01
-4.193999999999999773e+01
1.542999999999999972e+01
4.503000000000000114e+01
-3.231000000000000227e+01
-4.185999999999999943e+01
6.304999999999999716e+01
-7.969999999999999751e+00
-1.004899999999999949e+02
7.645999999999999375e+01
1.327999999999999936e+01
-8.409999999999999432e+01
7.553000000000000114e+01
2.916000000000000014e+01
-5.553000000000000114e+01
4.418999999999999773e+01
3.735000000000000142e+01
-3.710000000000000142e+01
-3.003000000000000114e+01
5.328999999999999915e+01
-8.390000000000000568e+00
-8.934999999999999432e+01
5.635000000000000142e+01
9.169999999999999929e+00
-8.176000000000000512e+01
6.451000000000000512e+01
1.473000000000000043e+01
-7.614000000000000057e+01
6.581000000000000227e+01
3.000000000000000000e+01
-5.993999999999999773e+01
5.036999999999999744e+01
4.157999999999999829e+01
-3.477000000000000313e+01
2.455000000000000071e+01
4.146999999999999886e+01
-2.528999999999999915e+01
-2.150000000000000000e+01
3.843999999999999773e+01
-2.203000000000000114e+01
-4.614000000000000057e+01
4.845000000000000284e+01
-1.146000000000000085e+01
-6.150999999999999801e+01
5.099000000000000199e+01
-2.229999999999999982e+00
-6.232999999999999829e+01
4.628999999999999915e+01
-6.879999999999999893e+00
-6.032999999999999829e+01
4.142999999999999972e+01
-7.219999999999999751e+00
-3.610999999999999943e+01
3.550999999999999801e+01
-2.317999999999999972e+01
-4.882999999999999829e+01
2.914000000000000057e+01
-2.616000000000000014e+01
-5.281000000000000227e+01
6.082000000000000028e+01
3.709999999999999964e+00
-5.585999999999999943e+01
4.029999999999999716e+01
-6.809999999999999609e+00
-6.007000000000000028e+01
4.375999999999999801e+01
-6.910000000000000142e+00
-7.140999999999999659e+01
5.282999999999999829e+01
4.759999999999999787e+00
-8.589000000000000057e+01
5.518999999999999773e+01
1.336999999999999922e+01
-7.398999999999999488e+01
5.292999999999999972e+01
1.435999999999999943e+01
-5.789999999999999858e+01
5.185999999999999943e+01
1.973999999999999844e+01
-5.579999999999999716e+01
4.418999999999999773e+01
1.769999999999999929e+01
-4.364000000000000057e+01
5.340999999999999659e+01
3.443999999999999773e+01
-3.299000000000000199e+01
3.653999999999999915e+01
1.696999999999999886e+01
-5.264999999999999858e+01
4.078000000000000114e+01
2.732999999999999829e+01
-5.721999999999999886e+01
5.361999999999999744e+01
2.387999999999999901e+01
-5.928999999999999915e+01
6.100000000000000000e+01
2.896999999999999886e+01
-5.610000000000000142e+01
5.022999999999999687e+01
1.992999999999999972e+01
-6.145000000000000284e+01
5.472999999999999687e+01
2.289999999999999858e+01
-6.209000000000000341e+01
5.049000000000000199e+01
2.246000000000000085e+01
-4.553999999999999915e+01
4.657999999999999829e+01
3.317999999999999972e+01
-3.760999999999999943e+01
1.983999999999999986e+01
2.573000000000000043e+01
-4.317999999999999972e+01
3.949000000000000199e+01
3.856000000000000227e+01
-4.575999999999999801e+01
3.296999999999999886e+01
4.184000000000000341e+01
-3.657000000000000028e+01
2.942999999999999972e+01
5.196999999999999886e+01
-2.833999999999999986e+01
-6.969999999999999751e+00
3.459000000000000341e+01
-2.664999999999999858e+01
-1.426999999999999957e+01
4.197999999999999687e+01
-2.698999999999999844e+01
-1.664999999999999858e+01
3.886999999999999744e+01
-2.523000000000000043e+01
-1.835000000000000142e+01
4.506000000000000227e+01
-2.303999999999999915e+01
-2.971999999999999886e+01
4.064999999999999858e+01
-2.542999999999999972e+01
-1.953000000000000114e+01
4.442999999999999972e+01
-2.364999999999999858e+01
-1.685999999999999943e+01
4.396999999999999886e+01
-2.210999999999999943e+01
-3.418999999999999773e+01
5.382999999999999829e+01
-7.009999999999999787e+00
-2.264000000000000057e+01
3.328000000000000114e+01
-2.030000000000000071e+01
-3.035999999999999943e+01
4.292000000000000171e+01
-5.549999999999999822e+00
-3.850999999999999801e+01
3.559000000000000341e+01
-1.546000000000000085e+01
-3.482999999999999829e+01
3.381000000000000227e+01
-2.296999999999999886e+01
-5.397999999999999687e+01
3.775999999999999801e+01
-1.561999999999999922e+01
-5.739999999999999858e+01
4.728999999999999915e+01
-5.000000000000000000e-01
-7.581000000000000227e+01
4.981000000000000227e+01
-2.890000000000000124e+00
-8.135999999999999943e+01
5.281000000000000227e+01
3.589999999999999858e+00
-9.454000000000000625e+01
6.895999999999999375e+01
1.744999999999999929e+01
-8.653000000000000114e+01
7.171999999999999886e+01
2.510999999999999943e+01
-6.809999999999999432e+01
4.832000000000000028e+01
3.185999999999999943e+01
-4.959000000000000341e+01
2.835999999999999943e+01
4.374000000000000199e+01
-2.878999999999999915e+01
-6.080000000000000071e+00
4.686999999999999744e+01
-1.324000000000000021e+01
-4.628999999999999915e+01
4.889999999999999858e+01
-3.189999999999999947e+00
-8.220999999999999375e+01
4.588000000000000256e+01
3.560000000000000053e+00
-9.053000000000000114e+01
5.417999999999999972e+01
1.449000000000000021e+01
-9.690999999999999659e+01
5.802000000000000313e+01
3.486999999999999744e+01
-4.621000000000000085e+01
6.013000000000000256e+01
5.709999999999999964e+00
-7.948000000000000398e+01
4.478000000000000114e+01
9.089999999999999858e+00
-8.000000000000000000e+01
5.371000000000000085e+01
4.671000000000000085e+01
3.417999999999999972e+01
-1.814999999999999858e+01
-2.265699999999999932e+02
2.596999999999999886e+01
-6.490000000000000568e+01
2.409000000000000057e+02
-7.231000000000000227e+01
-1.565000000000000036e+01
-4.885000000000000142e+01
1.978000000000000114e+01
1.866000000000000014e+01
-4.578999999999999915e+01
3.888000000000000256e+01
1.671000000000000085e+01
-4.625000000000000000e+01
4.503999999999999915e+01
4.929999999999999716e+00
-5.231000000000000227e+01
3.953999999999999915e+01
1.000000000000000021e-02
-5.114999999999999858e+01
4.693999999999999773e+01
7.099999999999999645e-01
-4.840999999999999659e+01
4.778000000000000114e+01
2.459999999999999964e+00
-4.872999999999999687e+01
4.022999999999999687e+01
-6.669999999999999929e+00
-6.018999999999999773e+01
4.078999999999999915e+01
1.399999999999999911e+00
-4.621000000000000085e+01
4.521999999999999886e+01
2.700000000000000178e+00
-5.835000000000000142e+01
3.920000000000000284e+01
2.975000000000000000e+01
-7.395000000000000284e+01
4.847999999999999687e+01
6.610000000000000320e+00
-5.717999999999999972e+01
4.710000000000000142e+01
6.250000000000000000e+00
-6.631000000000000227e+01
4.035000000000000142e+01
-6.259999999999999787e+00
-6.723000000000000398e+01
6.000000000000000000e+01
2.091000000000000014e+01
-5.067000000000000171e+01
4.789000000000000057e+01
8.169999999999999929e+00
-5.207999999999999829e+01
3.710000000000000142e+01
2.637000000000000099e+01
-2.482999999999999829e+01
2.164999999999999858e+01
2.132999999999999829e+01
-3.128000000000000114e+01
2.387000000000000099e+01
3.051999999999999957e+01
-2.901000000000000156e+01
-1.397000000000000064e+01
3.296000000000000085e+01
-3.919999999999999929e+00
-4.925000000000000000e+01
3.167000000000000171e+01
-4.219999999999999751e+00
-5.382000000000000028e+01
3.847999999999999687e+01
-4.740000000000000213e+00
-5.492000000000000171e+01
3.535999999999999943e+01
1.767000000000000171e+01
-2.544000000000000128e+01
7.459999999999999964e+00
2.017000000000000171e+01
-1.817000000000000171e+01
-1.605000000000000071e+01
2.701999999999999957e+01
-1.244999999999999929e+01
-5.096000000000000085e+01
3.942000000000000171e+01
7.110000000000000320e+00
-5.482999999999999829e+01
3.471000000000000085e+01
1.018999999999999950e+01
-4.403999999999999915e+01
3.732000000000000028e+01
1.180000000000000071e+01
-3.407000000000000028e+01
2.519000000000000128e+01
2.178999999999999915e+01
-2.169000000000000128e+01
8.529999999999999361e+00
2.094999999999999929e+01
-1.823999999999999844e+01
-1.398000000000000043e+01
2.498999999999999844e+01
-1.333000000000000007e+01
-3.465999999999999659e+01
3.119000000000000128e+01
-1.550000000000000044e+00
-4.534000000000000341e+01
3.527000000000000313e+01
2.819999999999999840e+00
-5.002000000000000313e+01
3.253000000000000114e+01
1.800000000000000044e+00
-4.736999999999999744e+01
3.385000000000000142e+01
1.589000000000000057e+01
-3.137000000000000099e+01
2.626999999999999957e+01
2.046000000000000085e+01
-2.078999999999999915e+01
5.849999999999999645e+00
1.305000000000000071e+01
-1.907999999999999829e+01
8.800000000000000044e-01
2.278000000000000114e+01
-1.521000000000000085e+01
-1.860000000000000142e+01
2.796000000000000085e+01
-4.639999999999999680e+00
-2.998999999999999844e+01
3.461999999999999744e+01
4.280000000000000249e+00
-4.068999999999999773e+01
2.692999999999999972e+01
2.279999999999999805e+00
-4.415999999999999659e+01
2.925000000000000000e+01
3.299999999999999822e+00
-4.246999999999999886e+01
2.751000000000000156e+01
1.330000000000000071e+01
-3.384000000000000341e+01
2.773000000000000043e+01
1.347000000000000064e+01
-2.698000000000000043e+01
2.610000000000000142e+01
8.349999999999999645e+00
-3.290999999999999659e+01
2.891000000000000014e+01
1.666000000000000014e+01
-2.907000000000000028e+01
2.369000000000000128e+01
9.429999999999999716e+00
-3.402000000000000313e+01
2.626999999999999957e+01
1.639999999999999858e+01
-2.137999999999999901e+01
2.823999999999999844e+01
1.685000000000000142e+01
-1.907000000000000028e+01
2.307000000000000028e+01
1.076999999999999957e+01
-2.123999999999999844e+01
1.039000000000000057e+01
2.479999999999999982e+00
-2.810999999999999943e+01
2.241000000000000014e+01
6.129999999999999893e+00
-3.650999999999999801e+01
2.496999999999999886e+01
8.830000000000000071e+00
-3.354999999999999716e+01
3.005999999999999872e+01
1.028999999999999915e+01
-2.944000000000000128e+01
2.285000000000000142e+01
4.179999999999999716e+00
-3.496000000000000085e+01
1.739999999999999858e+01
1.169999999999999929e+00
-2.596999999999999886e+01
2.635999999999999943e+01
-3.959999999999999964e+00
-2.516000000000000014e+01
2.610999999999999943e+01
-3.759999999999999787e+00
-1.794000000000000128e+01
2.887999999999999901e+01
-2.620000000000000107e+00
-1.397000000000000064e+01
1.885999999999999943e+01
-1.117999999999999972e+01
-1.035999999999999943e+01
2.205999999999999872e+01
-1.443999999999999950e+01
-1.183999999999999986e+01
2.167999999999999972e+01
-7.889999999999999680e+00
-1.719999999999999929e+01
2.537999999999999901e+01
-2.410000000000000142e+00
-2.317999999999999972e+01
2.707999999999999829e+01
5.910000000000000142e+00
-2.373000000000000043e+01
2.117000000000000171e+01
-6.719999999999999751e+00
-2.660000000000000142e+01
1.090000000000000036e+01
-9.300000000000000711e+00
-2.555999999999999872e+01
1.461999999999999922e+01
-3.850000000000000089e+00
-3.055999999999999872e+01
1.138000000000000078e+01
-8.529999999999999361e+00
-2.392999999999999972e+01
1.948999999999999844e+01
-4.959999999999999964e+00
-7.740000000000000213e+00
2.110000000000000142e+01
-2.119000000000000128e+01
3.370000000000000107e+00
1.450999999999999979e+01
-2.028000000000000114e+01
1.482000000000000028e+01
1.389000000000000057e+01
-1.871999999999999886e+01
1.508999999999999986e+01
1.136999999999999922e+01
-2.292999999999999972e+01
8.740000000000000213e+00
1.039000000000000057e+01
-1.712999999999999901e+01
7.110000000000000320e+00
8.179999999999999716e+00
-2.312999999999999901e+01
1.515000000000000036e+01
1.737999999999999901e+01
-1.378999999999999915e+01
1.427999999999999936e+01
1.133000000000000007e+01
-2.017000000000000171e+01
4.000000000000000000e+00
4.240000000000000213e+00
-2.085000000000000142e+01
8.949999999999999289e+00
1.308999999999999986e+01
-1.671000000000000085e+01
9.910000000000000142e+00
1.771999999999999886e+01
-1.159999999999999964e+01
7.219999999999999751e+00
1.139000000000000057e+01
-1.870000000000000107e+00
1.796999999999999886e+01
1.633999999999999986e+01
-1.059999999999999964e+01
8.330000000000000071e+00
1.269999999999999929e+01
-2.262000000000000099e+01
3.740000000000000213e+00
1.292999999999999972e+01
-2.585000000000000142e+01
1.703000000000000114e+01
1.382000000000000028e+01
-2.162000000000000099e+01
1.385999999999999943e+01
1.766000000000000014e+01
-1.016999999999999993e+01
1.450000000000000000e+01
1.626999999999999957e+01
-1.146000000000000085e+01
5.759999999999999787e+00
1.536999999999999922e+01
-1.015000000000000036e+01
-1.128999999999999915e+01
1.384999999999999964e+01
-1.199000000000000021e+01
-1.103999999999999915e+01
2.173999999999999844e+01
-1.850000000000000089e+00
-1.213000000000000078e+01
2.142000000000000171e+01
1.739999999999999991e+00
-1.621000000000000085e+01
2.373000000000000043e+01
4.570000000000000284e+00
-2.008999999999999986e+01
9.140000000000000568e+00
2.720000000000000195e+00
-1.796999999999999886e+01
1.278999999999999915e+01
1.000000000000000000e+00
-2.067000000000000171e+01
1.183999999999999986e+01
3.109999999999999876e+00
-1.607000000000000028e+01
1.125000000000000000e+01
7.450000000000000178e+00
-1.263000000000000078e+01
-1.260000000000000009e+00
1.600000000000000089e+00
-1.760999999999999943e+01
-7.500000000000000000e-01
1.289000000000000057e+01
-1.114000000000000057e+01
-2.529999999999999805e+00
1.996999999999999886e+01
-3.759999999999999787e+00
-6.429999999999999716e+00
2.289999999999999858e+01
2.350000000000000089e+00
-1.807999999999999829e+01
1.598000000000000043e+01
1.100000000000000089e+00
-2.155999999999999872e+01
1.449000000000000021e+01
2.470000000000000195e+00
-2.307000000000000028e+01
1.282000000000000028e+01
4.709999999999999964e+00
-1.623000000000000043e+01
8.730000000000000426e+00
3.680000000000000160e+00
-1.844999999999999929e+01
7.200000000000000178e+00
3.299999999999999822e+00
-2.123999999999999844e+01
2.600000000000000089e+00
-1.560000000000000053e+00
-2.196000000000000085e+01
1.126999999999999957e+01
1.762000000000000099e+01
-8.830000000000000071e+00
3.620000000000000107e+00
1.259999999999999964e+01
-1.493999999999999950e+01
2.020000000000000018e+00
1.676000000000000156e+01
-1.291000000000000014e+01
5.610000000000000320e+00
2.594000000000000128e+01
-8.869999999999999218e+00
3.450000000000000178e+00
2.771999999999999886e+01
4.250000000000000000e+00
-1.191000000000000014e+01
1.973999999999999844e+01
-5.419999999999999929e+00
-9.410000000000000142e+00
2.253999999999999915e+01
3.069999999999999840e+00
2.069999999999999840e+00
2.055000000000000071e+01
-2.730000000000000071e+01
-3.367000000000000171e+01
1.521000000000000085e+01
-1.699999999999999956e+00
-3.272999999999999687e+01
6.639999999999999680e+00
-2.560000000000000053e+00
-3.198999999999999844e+01
2.323000000000000043e+01
8.910000000000000142e+00
-2.791000000000000014e+01
2.376000000000000156e+01
7.299999999999999822e+00
-2.228999999999999915e+01
2.001999999999999957e+01
1.046000000000000085e+01
-2.291000000000000014e+01
1.817000000000000171e+01
1.153999999999999915e+01
-1.630999999999999872e+01
1.646000000000000085e+01
1.275999999999999979e+01
-1.050000000000000000e+01
5.540000000000000036e+00
1.333000000000000007e+01
-1.038000000000000078e+01
-6.379999999999999893e+00
1.113000000000000078e+01
-9.839999999999999858e+00
-1.411999999999999922e+01
1.049000000000000021e+01
-5.120000000000000107e+00
-2.187000000000000099e+01
1.676999999999999957e+01
1.090000000000000080e+00
-3.042999999999999972e+01
1.409999999999999964e+01
2.310000000000000053e+00
-3.010999999999999943e+01
1.876999999999999957e+01
6.179999999999999716e+00
-3.649000000000000199e+01
1.964999999999999858e+01
1.475000000000000000e+01
-1.655999999999999872e+01
2.369000000000000128e+01
1.825000000000000000e+01
-1.455000000000000071e+01
6.809999999999999609e+00
1.066999999999999993e+01
-2.605000000000000071e+01
8.949999999999999289e+00
2.455999999999999872e+01
-1.682999999999999829e+01
7.519999999999999574e+00
1.876000000000000156e+01
-7.969999999999999751e+00
-1.209999999999999964e+00
1.039000000000000057e+01
-1.730999999999999872e+01
-4.259999999999999787e+00
1.053999999999999915e+01
-2.117000000000000171e+01
-1.566000000000000014e+01
1.955000000000000071e+01
-6.969999999999999751e+00
-3.196000000000000085e+01
2.076000000000000156e+01
-5.699999999999999512e-01
-3.807999999999999829e+01
3.001000000000000156e+01
7.190000000000000391e+00
-3.789999999999999858e+01
2.917000000000000171e+01
2.485999999999999943e+01
-1.172000000000000064e+01
-1.826000000000000156e+01
2.535000000000000142e+01
-2.060000000000000053e+00
-3.357000000000000028e+01
1.839000000000000057e+01
5.740000000000000213e+00
-2.646999999999999886e+01
9.609999999999999432e+00
1.181000000000000050e+01
-1.285999999999999943e+01
-1.360000000000000098e+00
1.707999999999999829e+01
-6.290000000000000036e+00
-2.460999999999999943e+01
1.018999999999999950e+01
-2.660000000000000142e+00
-2.782000000000000028e+01
1.596000000000000085e+01
1.689999999999999947e+00
-3.353000000000000114e+01
1.707000000000000028e+01
6.929999999999999716e+00
-2.703999999999999915e+01
1.796000000000000085e+01
9.349999999999999645e+00
-2.812000000000000099e+01
1.735000000000000142e+01
9.609999999999999432e+00
-3.731000000000000227e+01
2.789000000000000057e+01
2.005000000000000071e+01
-2.373999999999999844e+01
3.144000000000000128e+01
1.796000000000000085e+01
-2.219000000000000128e+01
1.907000000000000028e+01
1.869999999999999929e+01
-2.158999999999999986e+01
8.570000000000000284e+00
1.648000000000000043e+01
-1.219999999999999929e+01
6.370000000000000107e+00
4.820000000000000284e+00
-2.155999999999999872e+01
1.790000000000000036e+00
2.087000000000000099e+01
-5.030000000000000249e+00
6.559999999999999609e+00
1.406000000000000050e+01
-3.222999999999999687e+01
-1.535999999999999943e+01
1.140000000000000036e+01
-2.039999999999999858e+01
5.990000000000000213e+00
2.903000000000000114e+01
-7.320000000000000284e+00
4.919999999999999929e+00
1.810000000000000142e+01
-2.446000000000000085e+01
-2.899999999999999911e+00
2.210999999999999943e+01
-1.476999999999999957e+01
-1.384999999999999964e+01
2.694999999999999929e+01
-1.679999999999999938e+00
-3.678999999999999915e+01
1.528999999999999915e+01
6.700000000000000178e+00
-3.446999999999999886e+01
2.026000000000000156e+01
2.490000000000000213e+00
-2.339000000000000057e+01
1.588000000000000078e+01
1.016999999999999993e+01
-1.136999999999999922e+01
2.979999999999999982e+00
1.069999999999999929e+01
-1.164000000000000057e+01
-1.441999999999999993e+01
9.990000000000000213e+00
-5.509999999999999787e+00
-2.509999999999999787e+00
2.490000000000000213e+00
-1.099000000000000021e+01
-2.521999999999999886e+01
2.448000000000000043e+01
-3.959999999999999964e+00
-3.446999999999999886e+01
2.148000000000000043e+01
6.400000000000000133e-01
-3.315999999999999659e+01
2.537000000000000099e+01
-1.709999999999999964e+00
-3.685999999999999943e+01
3.198999999999999844e+01
6.360000000000000320e+00
-3.295000000000000284e+01
3.064999999999999858e+01
3.830000000000000071e+00
-3.789999999999999858e+01
1.933999999999999986e+01
5.110000000000000320e+00
-3.080999999999999872e+01
1.810000000000000142e+01
9.320000000000000284e+00
-2.821000000000000085e+01
-7.580000000000000071e+00
1.060999999999999943e+01
-2.628000000000000114e+01
1.518999999999999950e+01
1.006000000000000050e+01
-2.500000000000000000e+01
1.655999999999999872e+01
1.185999999999999943e+01
-2.557000000000000028e+01
1.174000000000000021e+01
9.119999999999999218e+00
-2.260999999999999943e+01
1.383999999999999986e+01
6.410000000000000142e+00
-2.721999999999999886e+01
1.703000000000000114e+01
7.309999999999999609e+00
-2.775000000000000000e+01
1.712000000000000099e+01
4.030000000000000249e+00
-2.889999999999999858e+01
1.550999999999999979e+01
5.580000000000000071e+00
-2.730000000000000071e+01
1.319999999999999929e+01
6.929999999999999716e+00
-3.028999999999999915e+01
1.321000000000000085e+01
1.431000000000000050e+01
-2.639999999999999858e+01
1.383000000000000007e+01
1.510999999999999943e+01
-1.571000000000000085e+01
8.279999999999999361e+00
1.008999999999999986e+01
-1.516000000000000014e+01
8.169999999999999929e+00
1.477999999999999936e+01
-1.475999999999999979e+01
1.929999999999999938e+00
1.842999999999999972e+01
-7.200000000000000178e+00
-5.610000000000000320e+00
1.994000000000000128e+01
-6.719999999999999751e+00
-1.946000000000000085e+01
1.371000000000000085e+01
-6.790000000000000036e+00
-2.991000000000000014e+01
1.860999999999999943e+01
2.240000000000000213e+00
-3.867000000000000171e+01
1.955999999999999872e+01
5.719999999999999751e+00
-3.871000000000000085e+01
2.576999999999999957e+01
1.564000000000000057e+01
-3.105000000000000071e+01
2.778999999999999915e+01
2.016000000000000014e+01
-1.917000000000000171e+01
1.585999999999999943e+01
1.538000000000000078e+01
-1.286999999999999922e+01
3.790000000000000036e+00
1.882999999999999829e+01
-1.213000000000000078e+01
-1.127999999999999936e+01
1.564000000000000057e+01
-5.360000000000000320e+00
-1.194999999999999929e+01
3.599000000000000199e+01
7.070000000000000284e+00
-5.099000000000000199e+01
9.899999999999999911e-01
4.620000000000000107e+00
-1.444999999999999929e+01
1.214000000000000057e+01
-1.398000000000000043e+01
-2.992999999999999972e+01
1.166999999999999993e+01
-1.268999999999999950e+01
-4.290999999999999659e+01
3.289000000000000057e+01
4.000000000000000000e+00
-4.828999999999999915e+01
4.306000000000000227e+01
2.189999999999999858e+01
-4.036999999999999744e+01
2.996999999999999886e+01
1.094999999999999929e+01
-3.967000000000000171e+01
3.800999999999999801e+01
1.696999999999999886e+01
-3.588000000000000256e+01
3.410999999999999943e+01
1.714999999999999858e+01
-3.028999999999999915e+01
1.832000000000000028e+01
9.960000000000000853e+00
-2.533999999999999986e+01
1.410999999999999943e+01
1.139000000000000057e+01
-2.142999999999999972e+01
1.458000000000000007e+01
1.581000000000000050e+01
-1.533000000000000007e+01
5.990000000000000213e+00
1.687999999999999901e+01
-1.350000000000000000e+01
-6.040000000000000036e+00
2.185000000000000142e+01
-8.800000000000000044e-01
-2.746999999999999886e+01
1.833999999999999986e+01
1.719999999999999973e+00
-2.626999999999999957e+01
2.107000000000000028e+01
4.000000000000000000e+00
-2.925000000000000000e+01
2.435000000000000142e+01
5.610000000000000320e+00
-3.789000000000000057e+01
2.646000000000000085e+01
1.231000000000000050e+01
-2.762999999999999901e+01
1.783999999999999986e+01
1.040000000000000036e+01
-2.637000000000000099e+01
1.830999999999999872e+01
1.753000000000000114e+01
-1.685999999999999943e+01
9.679999999999999716e+00
2.010000000000000142e+01
-8.820000000000000284e+00
-4.299999999999999933e-01
1.882999999999999829e+01
-7.549999999999999822e+00
-1.259999999999999964e+01
1.885999999999999943e+01
-8.000000000000000000e+00
-2.646999999999999886e+01
2.687999999999999901e+01
3.529999999999999805e+00
-2.953999999999999915e+01
3.030000000000000071e+01
4.150000000000000355e+00
-3.990999999999999659e+01
1.817000000000000171e+01
2.049999999999999822e+00
-4.514999999999999858e+01
2.739000000000000057e+01
1.199999999999999956e+00
-1.559600000000000080e+02
2.212400000000000091e+02
3.317500000000000000e+02
-1.233400000000000034e+02
-6.426999999999999602e+01
-2.935000000000000142e+01
-4.397999999999999687e+01
6.100999999999999801e+01
5.427000000000000313e+01
-4.095000000000000284e+01
5.885999999999999943e+01
5.278999999999999915e+01
-1.157699999999999960e+02
4.450000000000000178e+00
8.943000000000000682e+01
-1.171899999999999977e+02
3.386999999999999744e+01
5.920000000000000284e+01
-4.018999999999999773e+01
9.671999999999999886e+01
-7.085999999999999943e+01
-4.368999999999999773e+01
6.225000000000000000e+01
-5.500000000000000444e-01
2.042999999999999972e+01
-2.017999999999999972e+01
6.188000000000000256e+01
2.025099999999999909e+02
-2.082199999999999989e+02
-1.940099999999999909e+02
1.883499999999999943e+02
-1.453499999999999943e+02
-5.280000000000000249e+00
7.904999999999999716e+01
-3.353999999999999915e+01
8.830000000000000071e+00
-1.101700000000000017e+02
3.989999999999999858e+01
5.650000000000000000e+01
6.334000000000000341e+01
-2.842000000000000171e+01
3.972999999999999687e+01
7.809999999999999432e+01
-6.222999999999999687e+01
6.250000000000000000e+01
-1.489999999999999991e+00
5.317999999999999972e+01
-5.656000000000000227e+01
-2.667999999999999972e+01
-3.169000000000000128e+01
5.074000000000000199e+01
4.703000000000000114e+01
-1.733400000000000034e+02
1.097699999999999960e+02
-2.944000000000000128e+01
-2.419000000000000128e+01
6.959999999999999432e+01
1.241999999999999993e+01
1.458000000000000007e+01
-2.206699999999999875e+02
-1.092399999999999949e+02
3.935799999999999841e+02
-1.682000000000000028e+01
-1.971000000000000085e+01
-1.401999999999999957e+01
-1.982000000000000028e+01
1.400999999999999979e+01
3.400000000000000244e-01
-3.657000000000000028e+01
5.019999999999999574e+00
-4.986999999999999744e+01
2.019999999999999929e+01
-1.289000000000000057e+01
4.696999999999999886e+01
-2.316000000000000014e+01
-3.879999999999999893e+00
3.622999999999999687e+01
-3.162000000000000099e+01
3.979999999999999716e+01
1.530000000000000071e+01
-5.014000000000000057e+01
5.557000000000000028e+01
-1.000000000000000056e-01
-4.415999999999999659e+01
3.539000000000000057e+01
-1.202999999999999936e+01
-7.019999999999999574e+00
2.419999999999999929e+01
-2.619000000000000128e+01
1.916000000000000014e+01
1.397000000000000064e+01
-3.599000000000000199e+01
3.028000000000000114e+01
1.514000000000000057e+01
-3.938000000000000256e+01
3.162999999999999901e+01
-1.810000000000000053e+00
-4.957999999999999829e+01
3.847999999999999687e+01
2.176999999999999957e+01
2.894999999999999929e+01
-1.161400000000000006e+02
3.071000000000000085e+01
-1.431000000000000050e+01
3.454999999999999716e+01
-3.175000000000000000e+01
-1.039000000000000057e+01
3.349000000000000199e+01
-1.415000000000000036e+01
1.526999999999999957e+01
1.792000000000000171e+01
-2.214000000000000057e+01
2.326999999999999957e+01
1.330000000000000071e+01
-2.367000000000000171e+01
2.982999999999999829e+01
7.750000000000000000e+00
-2.717999999999999972e+01
3.450999999999999801e+01
2.680000000000000160e+00
-3.461999999999999744e+01
3.625999999999999801e+01
1.317999999999999972e+01
-2.710999999999999943e+01
2.344000000000000128e+01
1.041999999999999993e+01
-3.340999999999999659e+01
3.681000000000000227e+01
2.089000000000000057e+01
-3.281000000000000227e+01
2.785000000000000142e+01
1.439000000000000057e+01
-2.216000000000000014e+01
1.216000000000000014e+01
1.260999999999999943e+01
-2.367000000000000171e+01
1.311999999999999922e+01
4.257000000000000028e+01
4.664000000000000057e+01
-8.376999999999999602e+01
2.248999999999999844e+01
-1.850699999999999932e+02
4.511999999999999744e+01
4.739999999999999858e+01
-4.509999999999999787e+00
-3.425999999999999801e+01
1.935000000000000142e+01
-4.089999999999999858e+00
-2.480000000000000071e+01
4.447999999999999687e+01
-2.490000000000000213e+00
-3.578000000000000114e+01
4.110999999999999943e+01
8.429999999999999716e+00
-4.592999999999999972e+01
2.448999999999999844e+01
-6.969999999999999751e+00
-3.385999999999999943e+01
2.307000000000000028e+01
-9.779999999999999361e+00
-3.853999999999999915e+01
3.089999999999999858e+01
1.659999999999999920e+00
-3.085999999999999943e+01
2.951000000000000156e+01
-1.550000000000000044e+00
-3.340999999999999659e+01
3.846000000000000085e+01
1.476999999999999957e+01
-4.675999999999999801e+01
2.244000000000000128e+01
2.791000000000000014e+01
-3.770000000000000284e+01
6.999999999999999556e-01
-3.191000000000000014e+01
-3.813000000000000256e+01
-2.750000000000000000e+00
1.551999999999999957e+01
-3.098999999999999844e+01
3.575000000000000000e+01
1.100999999999999979e+01
-1.516999999999999993e+01
3.242999999999999972e+01
-1.687999999999999901e+01
-7.360000000000000320e+00
2.339000000000000057e+01
-1.451999999999999957e+01
-3.388000000000000256e+01
3.332000000000000028e+01
-1.370000000000000107e+00
-3.343999999999999773e+01
3.685999999999999943e+01
-9.240000000000000213e+00
-3.196999999999999886e+01
3.559000000000000341e+01
5.379999999999999893e+00
-1.782000000000000028e+01
1.950000000000000000e+01
1.493999999999999950e+01
-9.189999999999999503e+00
-1.614000000000000057e+01
4.629999999999999893e+00
-2.014999999999999858e+01
-4.892999999999999972e+01
2.185999999999999943e+01
1.751999999999999957e+01
-2.555999999999999872e+01
3.041000000000000014e+01
9.919999999999999929e+00
-1.878000000000000114e+01
3.439000000000000057e+01
1.402999999999999936e+01
-1.964999999999999858e+01
2.371999999999999886e+01
1.110999999999999943e+01
-1.451999999999999957e+01
2.037000000000000099e+01
1.100000000000000000e+01
-1.846999999999999886e+01
9.919999999999999929e+00
9.810000000000000497e+00
-1.789000000000000057e+01
8.710000000000000853e+00
9.060000000000000497e+00
-1.475999999999999979e+01
1.069999999999999929e+01
1.086999999999999922e+01
-2.039999999999999858e+01
1.099000000000000021e+01
6.469999999999999751e+00
-2.239000000000000057e+01
2.255000000000000071e+01
6.679999999999999716e+00
-2.276999999999999957e+01
2.621000000000000085e+01
1.226999999999999957e+01
-3.050000000000000000e+01
4.496000000000000085e+01
2.007999999999999829e+01
-2.583999999999999986e+01
2.223000000000000043e+01
2.194000000000000128e+01
-1.586999999999999922e+01
2.140000000000000124e+00
2.023999999999999844e+01
-2.089000000000000057e+01
-1.837000000000000099e+01
3.410000000000000142e+00
8.449999999999999289e+00
-4.714999999999999858e+01
1.456000000000000050e+01
7.950000000000000178e+00
-2.644999999999999929e+01
1.367999999999999972e+01
-1.691000000000000014e+01
-2.700000000000000000e+01
2.589999999999999858e+00
1.276299999999999955e+02
3.810999999999999943e+01
-2.486100000000000136e+02
-7.276999999999999602e+01
5.639999999999999858e+01
1.705000000000000071e+01
8.679999999999999716e+00
6.064999999999999858e+01
-3.804999999999999716e+01
3.824000000000000199e+01
-3.187000000000000099e+01
1.038000000000000078e+01
1.250999999999999979e+01
-3.860999999999999943e+01
3.913000000000000256e+01
1.775000000000000000e+01
-1.998999999999999844e+01
3.260000000000000142e+01
1.082000000000000028e+01
-4.436999999999999744e+01
2.737999999999999901e+01
1.311999999999999922e+01
-1.283000000000000007e+01
3.101000000000000156e+01
1.840000000000000080e+00
-2.089999999999999858e+01
1.511999999999999922e+01
-2.069999999999999840e+00
-1.685000000000000142e+01
1.308999999999999986e+01
-3.229999999999999982e+00
-1.946999999999999886e+01
1.841000000000000014e+01
1.361999999999999922e+01
-1.551999999999999957e+01
-1.583000000000000007e+01
1.491000000000000014e+01
2.100000000000000089e+00
-2.835000000000000142e+01
1.830000000000000071e+01
9.339999999999999858e+00
-8.740000000000000213e+00
1.667999999999999972e+01
1.481000000000000050e+01
-1.178999999999999915e+01
-3.653000000000000114e+01
8.800000000000000711e+00
4.299999999999999822e+00
-2.300000000000000000e+01
3.979999999999999716e+01
2.828000000000000114e+01
-1.378999999999999915e+01
-5.510999999999999943e+01
-2.921999999999999886e+01
-5.096000000000000085e+01
7.700000000000000178e+00
7.231000000000000227e+01
-3.379999999999999893e+00
4.580000000000000071e+00
3.996000000000000085e+01
-6.000000000000000000e+00
-3.882000000000000028e+01
2.842000000000000171e+01
-3.270000000000000018e+00
-3.995000000000000284e+01
2.205000000000000071e+01
-8.439999999999999503e+00
-4.192000000000000171e+01
3.565999999999999659e+01
2.530000000000000071e+01
-8.699999999999999956e-01
-1.217999999999999972e+02
5.330000000000000071e+00
-7.018000000000000682e+01
-1.021299999999999955e+02
-7.851000000000000512e+01
1.923999999999999844e+01
3.740999999999999659e+01
-1.189999999999999947e+00
-4.530000000000000249e+00
3.629999999999999716e+01
-1.600000000000000089e+00
-4.339000000000000057e+01
1.603000000000000114e+01
5.767999999999999972e+01
-6.500000000000000222e-01
-1.127999999999999936e+01
3.832999999999999829e+01
-1.389999999999999902e+00
1.949999999999999956e+00
-4.360000000000000320e+00
2.279999999999999805e+00
2.592000000000000171e+01
2.017000000000000171e+01
-7.059999999999999609e+00
4.000000000000000222e-01
3.742000000000000171e+01
-2.905999999999999872e+01
-1.281000000000000050e+01
-1.499999999999999944e-01
-7.480000000000000426e+00
-2.107999999999999829e+01
4.410999999999999943e+01
1.900000000000000000e+01
-3.790000000000000036e+00
2.482999999999999829e+01
7.540000000000000568e+01
-1.130999999999999943e+02
-7.081000000000000227e+01
-8.070000000000000284e+00
-6.009999999999999787e+00
1.236999999999999922e+01
3.859999999999999876e+00
-2.635000000000000142e+01
2.173000000000000043e+01
1.111999999999999922e+01
-7.506000000000000227e+01
2.308999999999999986e+01
4.907000000000000028e+01
1.828999999999999915e+01
-3.032000000000000028e+01
1.937000000000000099e+01
1.649999999999999911e+00
-2.739000000000000057e+01
1.341999999999999993e+01
-4.570000000000000284e+00
4.199999999999999845e-01
1.299000000000000021e+01
-9.240000000000000213e+00
-1.655000000000000071e+01
2.298999999999999844e+01
-4.269999999999999574e+00
-2.294000000000000128e+01
1.839999999999999858e+01
1.459999999999999964e+00
-1.630000000000000071e+01
1.513000000000000078e+01
7.030000000000000249e+00
-1.164000000000000057e+01
-8.619999999999999218e+00
1.600000000000000000e+01
-4.110000000000000320e+00
-1.594999999999999929e+01
9.609999999999999432e+00
4.719999999999999751e+00
-2.133999999999999986e+01
1.434999999999999964e+01
6.160000000000000142e+00
-2.973999999999999844e+01
2.894999999999999929e+01
9.519999999999999574e+00
-1.333999999999999986e+01
4.450000000000000178e+00
1.748000000000000043e+01
-3.023999999999999844e+01
-1.516999999999999993e+01
1.205000000000000071e+01
6.379999999999999893e+00
-2.432999999999999829e+01
2.478999999999999915e+01
5.929999999999999716e+00
-1.010999999999999943e+01
7.620000000000000107e+00
4.190000000000000391e+00
-1.782999999999999829e+01
1.500000000000000000e+01
-1.100000000000000089e+00
-1.506000000000000050e+01
8.109999999999999432e+00
9.960000000000000853e+00
-7.490000000000000213e+00
-5.219999999999999751e+00
1.093999999999999950e+01
-2.680000000000000160e+00
-1.819000000000000128e+01
1.594999999999999929e+01
6.530000000000000249e+00
-9.039999999999999147e+00
-1.076999999999999957e+01
1.515000000000000036e+01
-1.229999999999999982e+00
-1.110999999999999943e+01
1.296000000000000085e+01
7.370000000000000107e+00
-9.300000000000000711e+00
-9.980000000000000426e+00
8.300000000000000711e+00
6.839999999999999858e+00
-8.990000000000000213e+00
7.530000000000000249e+00
-6.150000000000000355e+00
-6.650000000000000355e+00
2.629999999999999893e+00
3.029999999999999805e+00
-1.124000000000000021e+01
-2.960000000000000142e+01
2.551000000000000156e+01
2.362999999999999901e+01
6.459000000000000341e+01
6.500000000000000222e-01
-2.326999999999999957e+01
-6.353999999999999915e+01
3.162999999999999901e+01
7.719999999999999751e+00
1.570000000000000062e+00
-2.680000000000000160e+00
-7.959999999999999964e+00
-2.551999999999999957e+01
5.560000000000000142e+01
1.222000000000000064e+01
-5.424000000000000199e+01
-2.003999999999999915e+01
9.550000000000000711e+00
-1.842999999999999972e+01
2.908999999999999986e+01
1.923000000000000043e+01
-2.644999999999999929e+01
1.491999999999999993e+01
1.000000000000000000e+01
-5.610000000000000320e+00
1.780000000000000071e+01
6.929999999999999716e+00
-1.917999999999999972e+01
-1.288000000000000078e+01
2.062000000000000099e+01
-5.940000000000000391e+00
-2.025000000000000000e+01
1.500000000000000000e+01
1.011999999999999922e+01
-8.019999999999999574e+00
-5.030000000000000249e+00
4.669999999999999929e+00
-2.489999999999999858e+01
1.385999999999999943e+01
2.942999999999999972e+01
-1.121000000000000085e+01
-1.020000000000000018e+00
4.000000000000000000e+00
-2.437000000000000099e+01
-2.859999999999999876e+00
-1.139000000000000057e+01
2.000000000000000000e+01
-2.330999999999999872e+01
-1.103999999999999915e+01
5.782000000000000028e+01
5.289999999999999858e+01
-1.506100000000000136e+02
2.621999999999999886e+01
-5.660000000000000142e+00
-4.827000000000000313e+01
3.379999999999999716e+01
1.869000000000000128e+01
-2.360999999999999943e+01
-1.787000000000000099e+01
3.479999999999999982e+00
2.037000000000000099e+01
2.407999999999999829e+01
-3.859999999999999876e+00
2.721000000000000085e+01
-2.089999999999999858e+01
-4.299999999999999933e-01
-5.254999999999999716e+01
4.602000000000000313e+01
-1.139000000000000057e+01
2.669999999999999929e+01
-4.370000000000000284e+01
-2.005000000000000071e+01
8.896999999999999886e+01
6.719999999999999751e+00
5.419999999999999929e+00
-9.589999999999999858e+00
-3.014000000000000057e+01
-3.169999999999999929e+00
8.156999999999999318e+01
-2.310000000000000142e+01
3.982999999999999829e+01
-1.490000000000000036e+01
-8.139000000000000057e+01
5.659000000000000341e+01
6.107000000000000028e+01
2.396999999999999886e+01
-2.266000000000000014e+01
2.058999999999999986e+01
-2.764999999999999858e+01
-1.710000000000000142e+01
5.070000000000000284e+00
8.599999999999999867e-01
-1.243999999999999950e+01
7.269999999999999574e+00
-3.609999999999999876e+00
-1.771999999999999886e+01
1.446000000000000085e+01
8.999999999999999667e-02
-1.669999999999999929e+01
4.200000000000000178e+00
8.619999999999999218e+00
-6.349999999999999645e+00
-9.539999999999999147e+00
1.051999999999999957e+01
5.089999999999999858e+00
-9.410000000000000142e+00
1.185999999999999943e+01
1.266999999999999993e+01
-3.564999999999999858e+01
5.699999999999999512e-01
1.452999999999999936e+01
-1.325000000000000000e+01
1.183999999999999986e+01
4.659000000000000341e+01
-8.981999999999999318e+01
3.792000000000000171e+01
7.139000000000000057e+01
-2.085000000000000142e+01
-7.059000000000000341e+01
-5.460000000000000142e+01
7.399999999999999911e-01
1.211999999999999922e+01
-3.263000000000000256e+01
3.588000000000000256e+01
-2.462999999999999901e+01
-1.799999999999999933e-01
5.718999999999999773e+01
-1.513000000000000078e+01
4.907000000000000028e+01
1.362800000000000011e+02
-1.468799999999999955e+02
-5.688000000000000256e+01
1.297000000000000064e+01
6.600000000000000311e-01
1.917999999999999972e+01
-4.190000000000000391e+00
3.870000000000000107e+00
-5.899999999999999689e-01
-2.642999999999999972e+01
1.799999999999999933e-01
8.960000000000000853e+00
1.770000000000000018e+00
-1.463000000000000078e+01
-2.912999999999999901e+01
2.316000000000000014e+01
4.410000000000000142e+00
-2.942999999999999972e+01
1.817000000000000171e+01
8.080000000000000071e+00
-3.091000000000000014e+01
3.051000000000000156e+01
2.687999999999999901e+01
5.332999999999999829e+01
-1.158900000000000006e+02
-4.086999999999999744e+01
-7.320000000000000284e+00
-4.120000000000000107e+00
-8.480000000000000426e+00
-1.253999999999999915e+01
1.293799999999999955e+02
9.009999999999999787e+00
-2.005000000000000071e+01
1.520000000000000018e+00
-1.333999999999999986e+01
-1.128199999999999932e+02
1.213900000000000006e+02
1.810500000000000114e+02
-6.307999999999999829e+01
7.587999999999999545e+01
1.026999999999999957e+01
-2.589000000000000057e+01
-3.957999999999999829e+01
5.931000000000000227e+01
2.248999999999999844e+01
-3.800999999999999801e+01
1.848000000000000043e+01
6.490000000000000213e+00
3.410000000000000142e+00
1.216000000000000014e+01
-5.300000000000000266e-01
-3.014000000000000057e+01
9.289999999999999147e+00
8.539999999999999147e+00
-1.309999999999999964e+01
1.489000000000000057e+01
7.490000000000000213e+00
-1.671000000000000085e+01
2.121000000000000085e+01
-1.750000000000000000e+00
-2.841000000000000014e+01
7.700000000000000178e+00
1.805999999999999872e+01
-7.509999999999999787e+00
1.133000000000000007e+01
6.650000000000000355e+00
-1.878000000000000114e+01
1.632000000000000028e+01
3.620000000000000107e+00
2.919999999999999929e+00
6.090999999999999659e+01
1.444999999999999929e+01
-5.253999999999999915e+01
6.370000000000000107e+00
3.021000000000000085e+01
-1.299000000000000021e+01
2.101999999999999957e+01
1.832999999999999829e+01
-3.320000000000000284e+01
3.493999999999999773e+01
6.439000000000000057e+01
-7.681999999999999318e+01
7.900000000000000355e+00
1.566000000000000014e+01
3.279999999999999805e+00
-1.028599999999999994e+02
-9.814000000000000057e+01
4.042000000000000171e+01
-1.830999999999999872e+01
1.031200000000000045e+02
6.067999999999999972e+01
-1.472000000000000064e+01
7.764000000000000057e+01
3.820000000000000284e+01
-5.270000000000000284e+01
5.817999999999999972e+01
7.189000000000000057e+01
7.051000000000000512e+01
3.763000000000000114e+02
-1.218799999999999955e+02
-4.181000000000000227e+01
-2.312000000000000099e+01
-5.000000000000000278e-02
-2.371000000000000085e+01
-8.779999999999999361e+00
4.078000000000000114e+01
1.821999999999999886e+01
4.985999999999999943e+01
1.219999999999999973e+00
-5.974000000000000199e+01
3.278000000000000114e+01
6.060000000000000142e+01
-1.357000000000000028e+01
-1.002600000000000051e+02
-2.244000000000000128e+01
-1.698999999999999844e+01
1.701000000000000156e+01
-1.550000000000000044e+00
1.159999999999999920e+00
-2.148999999999999844e+01
-1.969999999999999973e+00
-1.870000000000000107e+00
7.399999999999999911e-01
1.166000000000000014e+01
-8.150000000000000355e+00
5.999999999999999778e-02
5.760999999999999943e+01
-3.392000000000000171e+01
-3.579100000000000250e+02
1.601999999999999957e+01
-1.100000000000000089e+00
2.380999999999999872e+01
5.427000000000000313e+01
2.783999999999999986e+01
2.413899999999999864e+02
-1.757199999999999989e+02
-1.590200000000000102e+02
-7.157999999999999829e+01
-2.494000000000000128e+01
8.121999999999999886e+01
-1.513000000000000078e+01
6.371000000000000085e+01
-1.864999999999999858e+01
-3.396000000000000085e+01
1.377800000000000011e+02
5.460000000000000142e+01
-5.552000000000000313e+01
3.390000000000000124e+00
-2.989999999999999858e+01
5.320000000000000284e+01
1.849799999999999898e+02
-8.250000000000000000e+00
-5.610000000000000320e+00
-4.139000000000000057e+01
1.357000000000000028e+01
-1.091299999999999955e+02
-8.099999999999999645e+00
2.217999999999999972e+01
5.570000000000000284e+00
2.744000000000000128e+01
4.914000000000000057e+01
8.701000000000000512e+01
2.399600000000000080e+02
-1.201500000000000057e+02
-6.074099999999999682e+02
1.504499999999999886e+02
2.465200000000000102e+02
1.436999999999999922e+01
1.035300000000000011e+02
-1.334499999999999886e+02
-4.460000000000000142e+01
1.590000000000000080e+00
-1.447000000000000064e+01
6.240000000000000213e+00
-4.209999999999999964e+00
1.644000000000000128e+01
6.753000000000000114e+01
-8.189999999999999503e+00
1.121899999999999977e+02
-1.212999999999999972e+02
-2.641000000000000014e+01
5.452000000000000313e+01
-1.770000000000000018e+00
-5.563000000000000256e+01
2.042000000000000171e+01
1.183000000000000007e+01
-2.894999999999999929e+01
2.380999999999999872e+01
2.414999999999999858e+01
-6.929999999999999716e+00
2.312000000000000099e+01
-2.421000000000000085e+01
-4.299999999999999933e-01
-3.660000000000000142e+01
1.210999999999999943e+01
-4.129999999999999893e+00
-1.239000000000000057e+02
8.609999999999999432e+00
5.177000000000000313e+01
-8.957999999999999829e+01
4.117000000000000171e+01
1.404699999999999989e+02
-1.461299999999999955e+02
-2.637000000000000099e+01
1.505000000000000071e+01
-3.454999999999999716e+01
-6.575000000000000000e+01
-3.315999999999999659e+01
1.334999999999999964e+01
5.150000000000000000e+01
-1.042999999999999972e+01
-1.657000000000000028e+01
-3.732000000000000028e+01
-2.214999999999999858e+01
1.289000000000000057e+01
9.101999999999999602e+01
-4.650000000000000000e+01
-9.380000000000000782e+00
2.280000000000000071e+01
1.107000000000000028e+01
-3.917000000000000171e+01
3.725000000000000000e+01
-2.094999999999999929e+01
-5.910000000000000142e+01
2.739999999999999858e+01
3.550000000000000000e+01
-1.197000000000000064e+01
-4.068999999999999773e+01
-4.500000000000000111e-01
2.839000000000000057e+01
2.223999999999999844e+01
-1.430000000000000071e+01
-5.302000000000000313e+01
1.819000000000000128e+01
-4.985999999999999943e+01
-3.549000000000000199e+01
-1.209999999999999964e+01
7.448000000000000398e+01
5.910000000000000142e+01
4.360000000000000320e+00
-3.940999999999999659e+01
-8.745999999999999375e+01
2.837999999999999901e+01
3.777000000000000313e+01
-7.790000000000000036e+00
-1.480000000000000071e+01
-3.753999999999999915e+01
-3.500000000000000000e+01
2.948999999999999844e+01
-7.459999999999999964e+00
3.603999999999999915e+01
8.381999999999999318e+01
5.540000000000000036e+00
-2.529999999999999805e+00
-6.410000000000000142e+00
8.699999999999999289e+00
-3.350000000000000089e+00
1.175999999999999979e+01
-4.230000000000000426e+00
-2.017000000000000171e+01
3.140000000000000124e+00
-8.970000000000000639e+00
-3.479999999999999982e+00
1.276999999999999957e+01
-2.560000000000000053e+00
-7.809999999999999609e+00
4.259999999999999787e+00
8.900000000000000355e+00
-4.070000000000000284e+00
1.379999999999999893e+00
8.369999999999999218e+00
-2.379999999999999893e+00
-1.355000000000000071e+01
2.130999999999999872e+01
-1.475000000000000000e+01
-2.982999999999999829e+01
2.364999999999999858e+01
-3.475999999999999801e+01
-1.817999999999999972e+01
5.113000000000000256e+01
3.452000000000000313e+01
6.800000000000000488e-01
-2.446000000000000085e+01
-2.485999999999999943e+01
7.440000000000000391e+00
5.513000000000000256e+01
1.008599999999999994e+02
-2.605000000000000071e+01
-1.052199999999999989e+02
-2.396999999999999886e+01
8.601000000000000512e+01
