1593624975.00
64.000000
-0.00
-0.00
-0.00
-0.00
-0.00
-0.00
-0.00
-0.00
-0.00
-0.00
0.00
0.01
0.01
-0.00
-0.03
-0.05
-0.05
0.00
0.13
0.36
0.66
1.01
1.37
1.72
2.06
2.40
2.79
3.24
3.80
4.42
5.06
5.66
6.20
6.68
7.15
7.68
8.31
9.14
10.09
11.04
11.88
12.56
13.14
13.76
14.65
15.96
17.91
20.32
22.90
25.38
27.58
29.57
31.68
34.32
37.81
42.54
48.15
54.10
59.83
64.97
69.58
74.14
79.34
85.71
93.76
103.00
112.62
121.73
129.77
136.75
143.30
150.75
157.77
166.64
177.95
191.79
206.97
220.57
228.25
225.36
208.53
176.87
132.76
80.05
23.07
-34.94
-92.44
-149.16
-205.23
-260.37
-313.74
-363.87
-409.83
-450.91
-486.50
-515.74
-537.23
-549.22
-549.96
-538.37
-514.21
-478.67
-433.88
-382.45
-327.02
-269.84
-212.63
-156.66
-102.95
-52.37
-5.90
35.58
71.43
101.35
125.50
144.38
158.69
169.15
176.37
180.75
182.57
182.07
179.51
175.23
169.65
163.18
156.15
148.81
141.30
133.69
126.02
118.33
110.69
103.16
95.80
88.68
81.83
75.25
68.95
62.95
57.25
51.86
46.78
42.03
37.59
33.45
29.61
26.07
22.81
19.83
17.11
14.67
12.48
10.54
8.83
7.35
6.07
4.97
4.05
3.27
2.62
2.09
1.65
1.30
1.01
0.79
0.61
0.48
0.37
0.29
0.24
0.20
0.18
0.17
0.17
0.18
0.20
0.23
0.26
0.29
0.34
0.38
0.42
0.47
0.52
0.57
0.62
0.67
0.73
0.79
0.85
0.92
1.01
1.11
1.23
1.35
1.46
1.55
1.62
1.69
1.76
1.89
2.08
2.33
2.63
2.94
3.26
3.55
3.85
4.18
4.59
5.08
5.67
6.31
6.94
7.53
8.05
8.54
9.09
9.76
10.63
11.65
12.75
13.78
14.63
15.25
15.73
16.21
16.88
17.78
18.77
19.54
19.63
18.67
16.48
13.18
9.10
4.71
0.31
-4.03
-8.47
-13.36
-18.92
-25.09
-31.41
-37.18
-41.75
-44.72
-46.15
-46.52
-46.49
-46.68
-47.62
-49.68
-52.96
-57.02
-60.57
-61.65
-58.17
-48.89
-34.21
-16.32
1.47
16.01
25.46
29.86
30.61
29.58
28.12
26.72
25.22
23.36
21.25
19.31
18.01
17.42
17.16
16.58
15.07
12.47
9.12
5.72
2.96
1.20
0.22
-0.53
-1.69
-3.60
-6.16
-8.88
-11.09
-12.35
-12.54
-11.95
-11.12
-10.58
-10.68
-11.37
-12.39
-13.28
-13.60
-13.01
-11.39
-8.80
-5.56
-2.07
1.26
4.10
6.27
7.74
8.57
8.84
8.62
7.97
7.03
6.04
5.30
5.04
5.28
5.80
6.26
6.33
5.89
5.08
4.17
3.39
2.83
2.44
2.09
1.68
1.11
0.29
-0.89
-2.52
-4.59
-6.96
-9.39
-11.74
-13.97
-16.23
-18.67
-21.38
-24.28
-27.25
-30.20
-33.14
-36.17
-39.40
-42.88
-46.53
-50.22
-53.90
-57.58
-61.34
-65.15
-68.86
-72.10
-74.39
-75.25
-74.30
-71.32
-66.17
-58.86
-49.46
-38.16
-25.26
-11.23
3.41
18.17
32.62
46.49
59.56
71.55
82.12
90.85
97.34
101.38
102.94
102.26
99.79
96.05
91.60
86.92
82.30
77.85
73.40
68.65
63.35
57.42
51.05
44.65
38.65
33.33
28.67
24.46
20.42
16.34
12.16
8.01
4.00
0.21
-3.41
-6.96
-10.56
-14.26
-17.91
-21.30
-24.10
-26.10
-27.20
-27.53
-27.37
-26.97
-26.51
-25.96
-25.15
-23.84
-21.79
-18.92
-15.28
-11.07
-6.59
-2.16
1.92
5.46
8.36
10.65
12.45
13.91
15.15
16.24
17.13
17.73
18.01
18.03
17.98
18.07
18.49
19.24
20.17
21.05
21.64
21.85
21.67
21.14
20.27
18.99
17.27
15.10
12.61
10.00
7.45
5.07
2.89
0.87
-1.05
-2.87
-4.68
-6.50
-8.38
-10.33
-12.27
-14.08
-15.65
-16.92
-17.91
-18.72
-19.43
-20.14
-20.91
-21.78
-22.72
-23.60
-24.26
-24.47
-24.04
-22.88
-20.97
-18.41
-15.31
-11.89
-8.41
-5.20
-2.57
-0.77
0.17
0.38
0.18
-0.09
-0.20
-0.07
0.19
0.35
0.17
-0.42
-1.39
-2.53
-3.60
-4.36
-4.65
-4.41
-3.60
-2.26
-0.50
1.54
3.61
5.50
7.11
8.46
9.66
10.79
11.85
12.72
13.22
13.27
12.81
11.90
10.65
9.16
7.50
5.73
3.87
1.90
-0.19
-2.44
-4.81
-7.25
-9.70
-12.14
-14.58
-16.97
-19.14
-20.73
-21.34
-20.67
-18.72
-15.73
-12.12
-8.29
-4.47
-0.79
2.69
5.86
8.56
10.66
12.11
13.05
13.69
14.23
14.76
15.24
15.54
15.56
15.18
14.41
13.33
12.11
10.99
10.17
9.77
9.68
9.72
9.62
9.21
8.48
7.58
6.73
6.09
5.76
5.64
5.56
5.32
4.83
4.11
3.27
2.44
1.62
0.64
-0.76
-2.72
-5.21
-7.84
-10.09
-11.51
-11.95
-11.64
-11.07
-10.72
-10.78
-11.07
-11.09
-10.27
-8.21
-4.80
-0.21
5.28
11.30
17.51
23.45
28.58
32.24
33.86
33.11
30.15
25.61
20.42
15.52
11.55
8.73
6.92
5.85
5.22
4.82
4.50
4.07
3.37
2.36
1.14
0.04
-0.61
-0.55
0.21
1.39
2.53
3.20
3.05
1.92
-0.10
-2.76
-5.58
-8.08
-9.88
-10.87
-11.27
-11.55
-12.13
-13.26
-14.87
-16.73
-18.61
-20.42
-22.22
-24.12
-26.12
-28.06
-29.67
-30.72
-31.09
-30.75
-29.78
-28.27
-26.22
-23.65
-20.49
-16.75
-12.50
-7.95
-3.46
0.58
3.78
5.99
7.25
7.88
8.23
8.62
9.15
9.76
10.30
10.62
10.70
10.61
10.44
10.26
10.07
9.85
9.62
9.50
9.61
10.00
10.52
10.87
10.72
9.85
8.32
6.43
4.55
2.98
1.77
0.75
-0.30
-1.55
-2.92
-4.25
-5.39
-6.36
-7.35
-8.63
-10.42
-12.69
-15.16
-17.44
-19.14
-20.12
-20.38
-20.13
-19.51
-18.58
-17.24
-15.41
-13.04
-10.21
-7.13
-4.00
-1.02
1.65
3.90
5.67
6.96
7.81
8.35
8.64
8.75
8.68
8.47
8.24
8.22
8.63
9.47
10.50
11.29
11.41
10.70
9.35
7.82
6.62
6.10
6.37
7.40
9.08
11.40
14.37
17.91
21.75
25.45
28.53
30.57
31.39
31.03
29.75
27.91
25.87
23.93
22.19
20.59
18.95
17.03
14.66
11.90
9.04
6.53
4.78
4.05
4.24
5.05
6.11
7.23
8.49
10.20
12.72
16.27
20.85
26.28
32.29
38.62
45.01
51.24
57.22
63.00
68.96
75.62
83.50
92.76
103.09
113.70
123.69
132.42
139.90
146.90
154.76
165.02
178.68
195.53
213.70
229.89
240.33
242.19
234.75
219.84
201.07
182.20
165.53
151.02
136.72
120.10
99.45
74.70
46.99
17.81
-12.20
-43.78
-78.79
-119.50
-168.01
-225.89
-293.73
-370.45
-452.38
-532.92
-603.34
-655.00
-682.19
-684.07
-664.76
-631.28
-590.51
-546.81
-501.46
-453.94
-403.74
-351.61
-299.32
-248.43
-199.07
-149.60
-97.25
-39.20
26.43
100.02
179.73
261.58
339.57
406.71
456.70
485.70
493.56
483.61
461.27
432.04
399.92
366.96
333.69
300.08
266.11
231.85
197.21
161.94
125.95
89.93
55.50
24.97
0.54
-16.57
-26.58
-31.07
-32.27
-32.37
-32.90
-34.52
-37.09
-40.01
-42.51
-44.02
-44.35
-43.73
-42.74
-42.01
-41.89
-42.34
-42.78
-42.26
-39.86
-34.98
-27.74
-19.02
-10.35
-3.50
0.06
-0.34
-4.41
-11.03
-18.64
-25.76
-31.41
-35.20
-37.23
-37.92
-37.70
-37.00
-36.12
-35.31
-34.67
-34.22
-33.80
-33.14
-32.02
-30.31
-28.14
-25.75
-23.46
-21.47
-19.87
-18.55
-17.33
-16.07
-14.72
-13.34
-12.00
-10.78
-9.70
-8.79
-8.07
-7.57
-7.29
-7.13
-6.97
-6.65
-6.19
-5.71
-5.45
-5.56
-6.10
-6.95
-7.95
-9.02
-10.15
-11.47
-13.04
-14.83
-16.68
-18.34
-19.52
-19.94
-19.45
-18.03
-15.85
-13.28
-10.72
-8.51
-6.77
-5.40
-4.09
-2.61
-0.86
1.00
2.59
3.55
3.65
2.98
1.86
0.74
-0.00
-0.15
0.19
0.73
1.11
1.11
0.75
0.26
-0.06
-0.08
0.18
0.48
0.58
0.30
-0.34
-1.19
-2.09
-2.91
-3.66
-4.35
-5.03
-5.68
-6.29
-6.86
-7.46
-8.18
-9.09
-10.22
-11.50
-12.84
-14.12
-15.28
-16.30
-17.16
-17.83
-18.19
-18.05
-17.25
-15.68
-13.42
-10.73
-7.96
-5.42
-3.26
-1.40
0.35
2.22
4.25
6.31
8.17
9.56
10.34
10.54
10.30
9.87
9.41
9.03
8.69
8.35
7.97
7.61
7.33
7.20
7.23
7.34
7.38
7.24
6.88
6.35
5.74
5.19
4.79
4.54
4.32
3.93
3.17
1.92
0.27
-1.58
-3.28
-4.60
-5.44
-5.83
-5.93
-5.92
-5.96
-6.18
-6.73
-7.66
-8.94
-10.43
-11.93
-13.21
-14.14
-14.69
-14.79
-14.41
-13.42
-11.79
-9.53
-6.81
-3.84
-0.80
2.22
5.20
8.11
10.86
13.35
15.44
17.12
18.44
19.49
20.28
20.76
20.79
20.29
19.26
17.94
16.66
15.76
15.49
15.78
16.35
16.72
16.52
15.61
14.18
12.65
11.38
10.52
9.92
9.26
8.18
6.52
4.40
2.12
0.04
-1.63
-2.79
-3.60
-4.29
-5.09
-6.12
-7.36
-8.65
-9.80
-10.78
-11.70
-12.77
-14.15
-15.82
-17.52
-18.90
-19.69
-19.79
-19.25
-18.15
-16.56
-14.49
-11.97
-9.15
-6.28
-3.65
-1.44
0.37
1.90
3.31
4.68
5.94
6.88
7.32
7.11
6.28
5.07
3.81
2.82
2.28
2.17
2.32
2.46
2.47
2.38
2.37
2.63
3.20
4.00
4.74
5.19
5.17
4.73
4.06
3.42
3.04
2.95
3.00
2.84
2.15
0.70
-1.48
-4.12
-6.82
-9.25
-11.24
-12.88
-14.44
-16.21
-18.37
-20.98
-23.89
-26.81
-29.42
-31.42
-32.60
-32.83
-32.02
-30.05
-26.72
-21.84
-15.36
-7.44
1.52
10.99
20.38
29.14
36.71
42.54
46.12
47.14
45.59
41.92
36.96
31.65
26.83
23.02
20.35
18.71
17.84
17.51
17.55
17.83
18.22
18.53
18.50
17.80
16.22
13.78
10.72
7.49
4.60
2.38
0.89
-0.02
-0.61
-1.10
-1.59
-2.05
-2.43
-2.72
-3.10
-3.74
-4.84
-6.47
-8.63
-11.20
-14.07
-17.15
-20.37
-23.59
-26.55
-28.86
-30.12
-30.07
-28.66
-26.15
-22.92
-19.36
-15.75
-12.17
-8.68
-5.31
-2.21
0.45
2.56
4.12
5.31
6.33
7.35
8.37
9.28
9.90
10.11
9.90
9.39
8.80
8.35
8.24
8.52
9.12
9.78
10.21
10.08
9.29
7.94
6.32
4.80
3.63
2.87
2.33
1.75
0.86
-0.40
-1.95
-3.57
-5.02
-6.13
-6.88
-7.36
-7.73
-8.18
-8.78
-9.57
-10.48
-11.49
-12.67
-14.18
-16.16
-18.55
-21.10
-23.30
-24.66
-24.81
-23.65
-21.34
-18.16
-14.40
-10.34
-6.29
-2.58
0.37
2.28
3.08
3.02
2.51
1.96
1.57
1.24
0.80
0.05
-0.97
-2.10
-3.11
-3.85
-4.32
-4.59
-4.70
-4.60
-4.25
-3.61
-2.82
-2.07
-1.52
-1.27
-1.24
-1.26
-1.15
-0.73
0.06
1.20
2.57
3.96
5.13
5.88
6.11
5.86
5.21
4.23
2.94
1.29
-0.78
-3.23
-5.96
-8.71
-11.20
-13.15
-14.34
-14.62
-13.97
-12.46
-10.26
-7.51
-4.36
-0.90
2.68
6.11
8.94
10.73
11.21
10.44
8.80
6.82
5.05
3.77
3.04
2.76
2.79
2.99
3.23
3.39
3.26
2.76
1.94
1.10
0.65
0.99
2.27
4.28
6.47
8.18
8.86
8.31
6.78
4.81
3.02
1.85
1.35
1.32
1.49
1.59
1.50
1.12
0.30
-1.18
-3.47
-6.56
-10.17
-13.92
-17.42
-20.40
-22.69
-24.17
-24.63
-23.84
-21.68
-18.33
-14.21
-9.89
-5.92
-2.61
-0.08
1.69
2.71
2.99
2.61
1.78
0.83
0.16
-0.01
0.29
0.80
1.13
1.05
0.63
0.19
0.19
0.94
2.48
4.53
6.66
8.42
9.52
9.91
9.61
8.72
7.32
5.59
3.73
2.05
0.83
0.26
0.36
1.00
1.99
3.05
3.83
4.03
3.41
1.95
-0.11
-2.36
-4.37
-5.87
-6.87
-7.51
-7.94
-8.14
-7.93
-7.12
-5.70
-3.84
-1.86
-0.00
1.68
3.28
4.97
6.78
8.56
10.06
11.01
11.29
11.00
10.42
9.82
9.42
9.30
9.39
9.62
9.89
10.19
10.42
10.52
10.33
9.77
8.90
7.96
7.30
7.20
7.70
8.49
9.04
8.85
7.65
5.48
2.67
-0.31
-3.07
-5.37
-7.20
-8.73
-10.21
-11.81
-13.62
-15.56
-17.46
-19.18
-20.64
-21.90
-23.05
-24.06
-24.74
-24.75
-23.68
-21.30
-17.68
-13.18
-8.32
-3.70
0.21
3.16
5.13
6.40
7.37
8.41
9.72
11.20
12.52
13.32
13.39
12.79
11.84
10.93
10.39
10.28
10.50
10.81
11.00
10.97
10.73
10.34
9.88
9.41
8.87
8.22
7.43
6.52
5.55
4.62
3.79
3.07
2.44
1.91
1.49
1.19
0.93
0.59
-0.01
-0.92
-2.07
-3.31
-4.47
-5.56
-6.72
-8.20
-10.10
-12.34
-14.59
-16.43
-17.44
-17.42
-16.33
-14.33
-11.65
-8.51
-5.15
-1.73
1.55
4.50
6.95
8.83
10.21
11.24
12.10
12.86
13.44
13.63
13.26
12.35
11.07
9.74
8.66
8.02
7.79
7.87
8.09
8.29
8.42
8.44
8.33
8.07
7.66
7.05
6.24
5.27
4.20
3.15
2.21
1.43
0.71
-0.13
-1.27
-2.82
-4.70
-6.63
-8.26
-9.28
-9.51
-9.09
-8.37
-7.88
-8.16
-9.56
-12.08
-15.33
-18.62
-21.12
-22.22
-21.63
-19.46
-16.19
-12.38
-8.51
-4.91
-1.72
1.09
3.55
5.70
7.56
9.12
10.40
11.44
12.32
13.06
13.63
13.89
13.68
12.93
11.72
10.31
9.06
8.29
8.07
8.24
8.48
8.44
7.93
6.97
5.75
4.50
3.41
2.56
1.96
1.55
1.33
1.24
1.22
1.18
1.01
0.60
-0.08
-0.97
-1.92
-2.79
-3.48
-3.98
-4.41
-4.93
-5.72
-6.88
-8.39
-10.16
-12.02
-13.83
-15.51
-17.00
-18.14
-18.70
-18.35
-16.84
-14.10
-10.40
-6.24
-2.20
1.30
4.13
6.41
8.32
10.02
11.45
12.48
12.99
12.98
12.59
12.06
11.59
11.31
11.27
11.42
11.75
12.22
12.70
13.09
13.28
13.24
13.00
12.68
12.37
12.12
11.87
11.55
11.04
10.27
9.20
7.88
6.38
4.81
3.32
2.04
1.04
0.37
-0.05
-0.34
-0.66
-1.13
-1.79
-2.63
-3.55
-4.43
-5.16
-5.74
-6.29
-7.01
-8.14
-9.84
-12.04
-14.47
-16.74
-18.42
-19.26
-19.14
-18.13
-16.37
-14.02
-11.18
-7.98
-4.57
-1.21
1.80
4.16
5.77
6.68
7.17
7.61
8.25
9.07
9.85
10.28
10.10
9.36
8.30
7.27
6.50
6.04
5.72
5.37
4.88
4.26
3.67
3.21
2.92
2.73
2.54
2.23
1.69
0.91
-0.09
-1.22
-2.31
-3.22
-3.90
-4.40
-4.86
-5.43
-6.25
-7.35
-8.68
-10.14
-11.59
-12.97
-14.24
-15.47
-16.73
-17.97
-19.09
-19.81
-19.91
-19.20
-17.74
-15.68
-13.21
-10.47
-7.49
-4.29
-0.99
2.19
5.03
7.39
9.27
10.80
12.04
12.95
13.37
13.16
12.38
11.28
10.27
9.68
9.65
10.10
10.81
11.47
11.86
11.87
11.52
10.90
10.15
9.40
8.75
8.22
7.73
7.15
6.36
5.32
4.11
2.87
1.79
0.94
0.31
-0.23
-0.86
-1.66
-2.62
-3.60
-4.49
-5.28
-6.10
-7.11
-8.44
-10.06
-11.83
-13.53
-15.07
-16.41
-17.45
-18.09
-18.08
-17.17
-15.23
-12.40
-9.01
-5.43
-1.99
1.17
4.03
6.58
8.77
10.52
11.74
12.47
12.78
12.86
12.86
12.88
13.05
13.37
13.80
14.22
14.48
14.52
14.36
14.11
13.92
13.88
13.98
14.07
13.95
13.55
12.81
11.84
10.79
9.77
8.78
7.78
6.64
5.24
3.61
1.91
0.38
-0.72
-1.38
-1.75
-2.18
-2.96
-4.20
-5.73
-7.27
-8.52
-9.38
-10.00
-10.67
-11.64
-13.02
-14.73
-16.52
-18.10
-19.11
-19.28
-18.51
-16.80
-14.36
-11.52
-8.57
-5.74
-3.10
-0.59
1.86
4.23
6.37
8.08
9.15
9.57
9.47
9.07
8.55
8.06
7.62
7.30
7.16
7.27
7.63
8.11
8.49
8.57
8.29
7.73
7.09
6.53
6.08
5.61
4.99
4.11
3.03
1.93
0.91
0.04
-0.79
-1.72
-2.81
-4.03
-5.25
-6.31
-7.15
-7.78
-8.30
-8.86
-9.60
-10.71
-12.29
-14.36
-16.75
-19.08
-20.91
-21.81
-21.54
-20.13
-17.83
-14.95
-11.82
-8.67
-5.60
-2.69
0.02
2.51
4.75
6.73
8.43
9.83
10.90
11.59
11.92
11.96
11.81
11.63
11.48
11.38
11.25
11.01
10.61
10.12
9.66
9.35
9.25
9.30
9.38
9.38
9.27
9.08
8.86
8.65
8.41
8.10
7.66
7.01
6.05
4.75
3.11
1.33
-0.28
-1.44
-1.96
-1.96
-1.80
-1.92
-2.62
-3.94
-5.67
-7.52
-9.31
-11.00
-12.66
-14.25
-15.60
-16.33
-16.09
-14.74
-12.36
-9.31
-6.01
-2.80
0.19
2.96
5.57
8.00
10.13
11.78
12.85
13.35
13.37
13.08
12.63
12.09
11.54
11.06
10.69
10.50
10.48
10.51
10.40
10.02
9.33
8.40
7.38
6.47
5.77
5.35
5.18
5.15
5.10
4.87
4.32
3.47
2.41
1.26
0.15
-0.91
-2.01
-3.26
-4.70
-6.26
-7.75
-8.93
-9.68
-10.02
-10.16
-10.41
-11.12
-12.48
-14.43
-16.64
-18.61
-19.81
-19.87
-18.79
-16.79
-14.25
-11.54
-8.88
-6.36
-4.00
-1.76
0.40
2.44
4.35
6.05
7.41
8.28
8.61
8.45
7.96
7.37
6.84
6.43
6.09
5.77
5.47
5.25
5.20
5.44
6.01
6.83
7.72
8.38
8.52
7.90
6.56
4.77
2.96
1.59
0.89
0.78
0.88
0.76
0.08
-1.20
-2.89
-4.63
-6.05
-6.97
-7.43
-7.70
-8.14
-9.08
-10.70
-12.97
-15.68
-18.53
-21.16
-23.20
-24.31
-24.23
-22.87
-20.37
-17.11
-13.51
-9.91
-6.53
-3.40
-0.57
1.89
3.89
5.40
6.55
7.58
8.70
9.94
11.20
12.22
12.84
13.02
12.88
12.55
12.13
11.64
11.14
10.72
10.51
10.58
10.81
10.94
10.62
9.73
8.41
7.05
6.11
5.81
6.07
6.47
6.54
5.93
4.68
3.06
1.46
0.17
-0.78
-1.53
-2.25
-2.99
-3.66
-4.12
-4.37
-4.63
-5.22
-6.45
-8.41
-10.96
-13.76
-16.44
-18.61
-19.90
-20.00
-18.70
-16.02
-12.23
-7.90
-3.64
0.07
3.06
5.42
7.42
9.29
11.12
12.88
14.45
15.68
16.46
16.71
16.41
15.70
14.82
14.04
13.57
13.43
13.46
13.38
12.99
12.24
11.27
10.32
9.60
9.18
8.92
8.61
8.04
7.12
5.89
4.53
3.19
1.98
0.92
-0.07
-1.05
-2.11
-3.28
-4.65
-6.21
-7.92
-9.60
-11.05
-12.08
-12.76
-13.34
-14.18
-15.52
-17.31
-19.19
-20.63
-21.17
-20.64
-19.15
-17.01
-14.53
-11.92
-9.20
-6.36
-3.36
-0.26
2.89
5.95
8.70
10.90
12.34
12.96
12.89
12.47
12.12
12.13
12.54
13.09
13.43
13.23
12.43
11.23
9.99
9.01
8.38
7.96
7.41
6.39
4.71
2.44
-0.14
-2.67
-4.85
-6.58
-7.90
-8.97
-9.92
-10.85
-11.75
-12.56
-13.23
-13.70
-13.97
-14.05
-14.12
-14.34
-14.96
-16.12
-17.80
-19.77
-21.65
-23.03
-23.56
-23.13
-21.76
-19.62
-16.94
-13.87
-10.51
-6.92
-3.20
0.56
4.13
7.36
10.09
12.24
13.86
15.04
15.89
16.49
16.93
17.26
17.51
17.71
17.91
18.12
18.37
18.63
18.76
18.62
18.03
16.96
15.56
14.14
13.05
12.49
12.43
12.59
12.62
12.23
11.30
9.86
8.06
6.07
4.03
2.12
0.46
-0.92
-2.04
-3.06
-4.16
-5.49
-7.14
-9.10
-11.35
-13.81
-16.43
-19.04
-21.45
-23.36
-24.51
-24.62
-23.57
-21.37
-18.21
-14.40
-10.34
-6.43
-2.92
0.09
2.70
5.14
7.55
9.95
12.23
14.13
15.44
16.08
16.18
16.03
15.98
16.28
16.94
17.76
18.38
18.51
18.10
17.32
16.50
15.91
15.62
15.43
15.03
14.18
12.82
11.12
9.36
7.77
6.48
5.52
4.82
4.25
3.55
2.49
0.87
-1.23
-3.53
-5.56
-6.94
-7.64
-7.93
-8.36
-9.44
-11.39
-14.06
-17.10
-20.10
-22.76
-24.88
-26.34
-27.07
-27.00
-26.18
-24.73
-22.84
-20.61
-18.06
-15.11
-11.65
-7.71
-3.56
0.40
3.69
5.99
7.27
7.75
7.80
7.78
7.85
7.94
7.92
7.70
7.35
7.09
7.13
7.56
8.26
8.97
9.44
9.46
8.99
8.13
7.05
5.94
4.97
4.25
3.72
3.27
2.72
1.92
0.86
-0.39
-1.65
-2.77
-3.69
-4.43
-5.08
-5.73
-6.52
-7.59
-9.05
-10.99
-13.41
-16.15
-18.97
-21.52
-23.46
-24.49
-24.43
-23.24
-20.98
-17.88
-14.23
-10.36
-6.59
-3.15
-0.13
2.50
4.90
7.26
9.66
12.04
14.21
15.88
16.88
17.15
16.89
16.37
15.86
15.47
15.17
14.88
14.49
14.02
13.48
12.91
12.29
11.63
10.90
10.13
9.33
8.49
7.50
6.33
5.03
3.79
2.86
2.40
2.37
2.48
2.31
1.53
0.05
-1.85
-3.77
-5.26
-6.13
-6.43
-6.54
-6.92
-7.95
-9.81
-12.38
-15.30
-18.05
-20.16
-21.29
-21.27
-20.13
-18.02
-15.20
-11.95
-8.55
-5.28
-2.32
0.20
2.22
3.79
5.03
6.08
7.13
8.32
9.66
11.08
12.40
13.39
13.91
13.94
13.68
13.38
13.25
13.37
13.65
13.91
14.03
13.99
13.84
13.61
13.24
12.62
11.65
10.36
8.94
7.59
6.45
5.46
4.47
3.31
1.93
0.40
-1.16
-2.68
-4.19
-5.79
-7.51
-9.21
-10.67
-11.67
-12.20
-12.57
-13.28
-14.77
-17.13
-20.06
-22.87
-24.81
-25.38
-24.42
-22.19
-19.13
-15.70
-12.22
-8.91
-5.88
-3.14
-0.68
1.56
3.64
5.58
7.25
8.46
9.04
8.99
8.53
7.99
7.72
7.88
8.41
9.08
9.66
10.04
10.31
10.62
11.09
11.63
12.01
12.00
11.38
10.25
8.79
7.28
5.89
4.65
3.49
2.26
0.96
-0.37
-1.61
-2.68
-3.53
-4.22
-4.86
-5.63
-6.67
-8.04
-9.73
-11.60
-13.53
-15.44
-17.31
-19.13
-20.82
-22.20
-23.01
-23.02
-22.10
-20.30
-17.75
-14.66
-11.25
-7.74
-4.37
-1.31
1.31
3.51
5.40
7.13
8.83
10.47
11.97
13.19
14.06
14.55
14.73
14.74
14.74
14.85
15.09
15.40
15.67
15.77
15.68
15.45
15.15
14.87
14.63
14.38
14.08
13.67
13.06
12.15
10.87
9.27
7.56
6.06
5.10
4.76
4.76
4.60
3.75
1.99
-0.52
-3.25
-5.66
-7.42
-8.55
-9.40
-10.38
-11.81
-13.75
-16.04
-18.36
-20.35
-21.68
-22.17
-21.72
-20.36
-18.19
-15.36
-12.04
-8.42
-4.75
-1.27
1.82
4.37
6.41
8.00
9.28
10.36
11.30
12.12
12.85
13.52
14.14
14.72
15.20
15.48
15.45
15.05
14.34
13.49
12.79
12.52
12.81
13.55
14.45
15.16
15.41
15.13
14.49
13.70
12.94
12.20
11.36
10.27
8.92
7.41
5.98
4.77
3.78
2.87
1.85
0.54
-1.06
-2.83
-4.56
-6.08
-7.40
-8.68
-10.23
-12.32
-15.03
-18.23
-21.56
-24.57
-26.83
-28.15
-28.51
-28.15
-27.33
-26.31
-25.19
-23.90
-22.27
-20.19
-17.72
-15.14
-12.86
-11.24
-10.40
-10.25
-10.51
-11.00
-11.73
-12.91
-14.77
-17.46
-20.86
-24.68
-28.64
-32.61
-36.73
-41.29
-46.66
-53.10
-60.77
-69.64
-79.54
-90.03
-100.35
-109.46
-116.21
-119.72
-119.75
-116.94
-112.81
-109.48
-109.13
-113.53
-123.68
-139.72
-161.06
-186.60
-215.02
-244.92
-274.76
-302.62
-326.23
-343.15
-351.36
-349.87
-339.15
-321.00
-298.09
-272.99
-247.58
-222.70
-198.15
-173.05
-146.20
-116.22
-81.68
-41.43
4.91
56.27
109.65
160.62
204.47
238.02
261.16
277.17
291.42
308.95
332.13
359.46
386.62
408.76
422.80
428.74
429.33
428.69
430.45
436.51
446.38
457.37
465.37
466.02
455.98
434.17
402.00
362.78
320.68
279.37
241.23
207.05
176.46
148.68
123.04
98.93
75.58
52.05
27.55
1.76
-25.06
-52.04
-77.67
-99.97
-117.54
-130.24
-139.07
-145.52
-150.92
-155.85
-160.06
-162.69
-161.34
-154.58
-142.71
-127.35
-110.59
-94.36
-80.52
-70.83
-66.47
-64.48
-61.44
-54.53
-41.72
-21.25
7.98
45.52
88.86
134.07
181.23
228.91
273.25
309.42
334.39
348.15
352.79
350.92
344.66
340.81
342.20
346.22
347.16
340.99
327.67
310.39
293.42
243.20
148.81
24.55
-100.78
-205.68
-283.39
-336.26
-369.55
-389.01
-399.99
-400.99
-391.66
-374.46
-353.70
-332.50
-311.97
-292.18
-273.72
-257.74
-240.70
-220.24
-196.39
-171.04
-145.86
-121.36
-97.24
-73.50
-50.83
-27.55
-3.80
17.64
32.59
38.33
35.39
27.59
19.65
14.66
14.46
17.83
21.26
21.24
16.40
6.00
-6.44
-16.07
-20.18
-18.71
-14.13
-9.41
-6.29
-4.85
-4.11
-3.65
-3.64
-5.90
-12.08
-22.52
-35.84
-49.41
-60.60
-67.99
-72.00
-72.09
-70.71
-70.72
-73.98
-80.88
-90.58
-101.78
-113.18
-123.33
-130.50
-133.21
-129.71
-118.78
-100.55
-76.82
-50.46
-24.28
0.20
22.99
44.58
65.47
85.35
102.92
116.59
125.43
129.79
131.42
132.66
135.25
139.88
145.92
151.66
154.90
153.61
146.56
133.53
115.23
92.97
68.36
43.11
18.76
-3.31
-22.04
-36.75
-47.19
-53.77
-57.39
-59.32
-60.83
-62.88
-65.94
-70.09
-75.22
-81.34
-88.79
-98.07
-109.59
-123.20
-138.03
-152.53
-164.83
-173.20
-176.38
-173.84
-165.65
-152.43
-135.24
-115.44
-94.53
-73.88
-54.50
-36.86
-20.99
-6.71
6.05
17.06
25.91
32.09
35.39
35.95
34.41
31.72
29.07
27.62
28.41
32.19
39.20
49.19
61.28
74.25
86.78
97.87
107.15
115.03
122.62
131.30
142.28
155.83
170.97
185.26
195.39
198.06
190.98
173.48
146.39
111.51
70.92
26.79
-18.48
-61.90
-100.01
-129.70
-149.42
-160.17
-165.34
-169.48
-176.33
-187.24
-200.74
-213.37
-221.13
-220.81
-210.74
-190.81
-162.29
-127.50
-89.57
-51.92
-17.54
11.77
35.76
55.43
72.17
86.69
98.59
106.66
109.81
108.07
102.91
96.92
92.79
92.55
96.92
105.43
116.69
128.81
139.71
147.30
149.80
146.10
136.10
120.86
102.41
83.26
65.75
51.55
41.38
35.12
31.98
30.80
30.33
29.37
26.94
22.33
15.27
5.90
-5.19
-17.17
-29.13
-40.31
-50.31
-59.07
-66.92
-74.34
-81.77
-89.37
-96.70
-102.77
-106.20
-105.73
-100.68
-91.20
-78.17
-62.90
-46.64
-30.34
-14.60
0.11
13.40
24.88
34.40
42.08
48.39
53.85
58.83
63.24
66.58
68.04
66.88
62.61
55.26
45.45
34.29
23.18
13.36
5.70
0.42
-2.88
-4.94
-6.56
-8.27
-10.23
-12.26
-14.06
-15.43
-16.36
-17.05
-17.73
-18.56
-19.51
-20.40
-20.97
-21.03
-20.55
-19.70
-18.84
-18.39
-18.75
-20.12
-22.49
-25.58
-28.93
-32.03
-34.32
-35.34
-34.70
-32.23
-27.97
-22.20
-15.51
-8.66
-2.45
2.50
5.87
7.69
8.34
8.28
7.92
7.48
6.92
6.03
4.59
2.50
-0.11
-2.90
-5.42
-7.24
-8.10
-7.93
-6.83
-5.02
-2.78
-0.43
1.65
3.07
3.44
2.59
0.61
-2.09
-4.97
-7.51
-9.41
-10.69
-11.58
-12.41
-13.46
-14.89
-16.62
-18.47
-20.21
-21.65
-22.76
-23.60
-24.41
-25.43
-26.82
-28.70
-31.00
-33.52
-35.89
-37.62
-38.10
-36.79
-33.34
-27.82
-20.71
-12.80
-4.98
1.99
7.62
11.79
14.61
16.41
17.55
18.36
19.04
19.54
19.70
19.22
17.94
15.96
13.63
11.45
9.88
9.14
9.12
9.46
9.76
9.74
9.38
8.82
8.25
7.74
7.20
6.34
4.99
3.06
0.82
-1.31
-2.92
-3.77
-4.04
-4.12
-4.51
-5.50
-7.10
-9.04
-10.97
-12.59
-13.77
-14.59
-15.15
-15.62
-16.18
-17.04
-18.40
-20.35
-22.73
-25.09
-26.79
-27.16
-25.81
-22.72
-18.25
-12.96
-7.40
-1.95
3.19
7.90
12.05
15.48
18.03
19.66
20.48
20.72
20.60
20.26
19.69
18.87
17.77
16.46
15.13
13.92
12.93
12.21
11.71
11.38
11.12
10.83
10.39
9.67
8.60
7.19
5.53
3.77
2.06
0.53
-0.77
-1.90
-2.96
-4.13
-5.50
-7.12
-8.88
-10.61
-12.12
-13.31
-14.25
-15.15
-16.24
-17.75
-19.72
-22.04
-24.39
-26.37
-27.58
-27.68
-26.51
-24.06
-20.44
-15.84
-10.55
-4.94
0.56
5.45
9.38
12.23
14.10
15.25
15.85
15.96
15.49
14.37
12.72
10.93
9.44
8.60
8.43
8.67
8.94
8.95
8.65
8.14
7.60
7.09
6.55
5.86
4.98
3.95
2.90
1.90
0.87
-0.31
-1.81
-3.61
-5.52
-7.21
-8.36
-8.88
-8.93
-8.87
-9.12
-10.03
-11.71
-14.09
-16.95
-20.00
-22.92
-25.32
-26.84
-27.17
-26.14
-23.75
-20.18
-15.75
-10.82
-5.79
-1.01
3.15
6.46
8.88
10.63
12.08
13.60
15.31
16.99
18.17
18.40
17.55
15.87
13.92
12.26
11.21
10.78
10.72
10.78
10.83
10.86
10.91
10.93
10.81
10.42
9.70
8.66
7.43
6.13
4.85
3.66
2.60
1.72
0.98
0.26
-0.66
-1.96
-3.72
-5.82
-8.02
-10.10
-12.04
-14.00
-16.28
-19.09
-22.37
-25.75
-28.65
-30.46
-30.80
-29.58
-26.94
-23.13
-18.47
-13.23
-7.76
-2.42
2.44
6.60
10.02
12.83
15.26
17.42
19.30
20.66
21.25
20.93
19.78
18.13
16.46
15.18
14.50
14.40
14.63
14.94
15.19
15.34
15.44
15.45
15.24
14.61
13.44
11.80
9.97
8.29
7.00
6.18
5.66
5.20
4.55
3.58
2.29
0.73
-0.94
-2.58
-4.00
-5.11
-5.92
-6.57
-7.34
-8.48
-10.15
-12.33
-14.87
-17.49
-19.91
-21.80
-22.92
-23.01
-21.92
-19.63
-16.27
-12.14
-7.62
-3.08
1.24
5.17
8.64
11.61
14.02
15.84
17.06
17.69
17.74
17.24
16.17
14.56
12.49
10.14
7.78
5.69
4.09
3.05
2.52
2.34
2.33
2.32
2.19
1.87
1.31
0.51
-0.49
-1.60
-2.70
-3.72
-4.66
-5.63
-6.75
-8.08
-9.53
-10.91
-12.03
-12.77
-13.21
-13.55
-14.07
-15.01
-16.49
-18.49
-20.91
-23.58
-26.31
-28.79
-30.61
-31.24
-30.17
-27.11
-22.13
-15.75
-8.83
-2.30
3.15
7.26
10.24
12.57
14.72
16.94
19.13
20.98
22.09
22.22
21.34
19.73
17.84
16.15
15.00
14.50
14.51
14.76
14.97
14.96
14.68
14.13
13.26
12.00
10.31
8.24
5.99
3.85
2.00
0.50
-0.79
-2.07
-3.51
-5.17
-6.99
-8.91
-10.90
-12.95
-15.02
-17.02
-18.82
-20.36
-21.71
-23.09
-24.79
-27.03
-29.94
-33.44
-37.16
-40.44
-42.44
-42.26
-39.32
-33.56
-25.57
-16.42
-7.26
1.00
8.06
14.09
19.51
24.70
29.81
34.71
39.14
42.77
45.30
46.45
46.03
43.93
40.35
35.67
30.54
25.69
21.73
18.98
17.44
16.85
16.77
16.79
16.55
15.86
14.68
13.15
11.50
10.00
8.84
8.08
7.60
7.13
6.37
5.10
3.32
1.21
-0.92
-2.78
-4.22
-5.28
-6.19
-7.19
-8.40
-9.79
-11.19
-12.43
-13.45
-14.44
-15.69
-17.59
-20.29
-23.58
-26.82
-29.13
-29.64
-27.88
-23.91
-18.27
-11.84
-5.43
0.34
5.20
9.14
12.27
14.71
16.59
18.00
18.96
19.46
19.41
18.70
17.36
15.56
13.64
11.96
10.73
9.96
9.46
8.96
8.27
7.36
6.30
5.23
4.20
3.18
2.03
0.67
-0.92
-2.56
-4.01
-4.99
-5.42
-5.42
-5.31
-5.49
-6.21
-7.46
-8.97
-10.35
-11.28
-11.66
-11.72
-11.85
-12.50
-13.96
-16.31
-19.36
-22.72
-25.86
-28.21
-29.30
-28.80
-26.63
-22.99
-18.34
-13.19
-8.02
-3.12
1.35
5.37
8.85
11.66
13.64
14.71
15.02
14.83
14.43
13.97
13.36
12.39
10.85
8.77
6.43
4.27
2.73
2.04
2.13
2.72
3.45
4.01
4.28
4.23
3.96
3.52
2.90
2.08
0.99
-0.30
-1.71
-3.07
-4.29
-5.34
-6.28
-7.15
-7.97
-8.74
-9.47
-10.20
-10.97
-11.83
-12.77
-13.83
-15.16
-16.93
-19.37
-22.42
-25.74
-28.61
-30.25
-30.03
-27.70
-23.48
-17.91
-11.64
-5.32
0.53
5.57
9.62
12.70
15.02
16.86
18.45
19.90
21.09
21.77
21.71
20.82
19.29
17.51
15.91
14.82
14.36
14.38
14.64
14.86
14.84
14.55
14.01
13.33
12.57
11.78
11.00
10.22
9.43
8.56
7.56
6.42
5.15
3.85
2.62
1.52
0.51
-0.52
-1.70
-3.05
-4.49
-5.88
-7.06
-8.07
-9.10
-10.48
-12.48
-15.22
-18.48
-21.76
-24.37
-25.64
-25.12
-22.66
-18.51
-13.17
-7.28
-1.36
4.20
9.23
13.68
17.46
20.49
22.61
23.73
23.85
23.14
21.79
20.00
17.94
15.73
13.52
11.47
9.71
8.37
7.47
6.95
6.69
6.59
6.53
6.46
6.32
6.06
5.61
4.96
4.14
3.28
2.55
2.02
1.62
1.10
0.08
-1.67
-4.06
-6.69
-8.98
-10.44
-10.96
-10.87
-10.81
-11.38
-12.90
-15.34
-18.33
-21.44
-24.25
-26.49
-27.85
-28.08
-26.89
-24.08
-19.65
-13.83
-7.11
-0.13
6.40
11.93
16.11
18.92
20.56
21.41
21.76
21.78
21.48
20.71
19.41
17.62
15.58
13.55
11.85
10.66
10.04
9.92
10.14
10.53
10.89
11.15
11.20
10.99
10.45
9.55
8.31
6.86
5.41
4.14
3.16
2.35
1.55
0.62
-0.47
-1.63
-2.74
-3.81
-4.99
-6.47
-8.36
-10.52
-12.73
-14.74
-16.52
-18.30
-20.46
-23.32
-26.89
-30.80
-34.34
-36.63
-36.92
-34.80
-30.42
-24.35
-17.42
-10.48
-4.16
1.24
5.70
9.35
12.43
15.08
17.37
19.29
20.74
21.64
21.98
21.80
21.23
20.46
19.66
18.99
18.56
18.39
18.43
18.61
18.81
18.89
18.71
18.18
17.23
15.81
13.92
11.62
9.14
6.83
5.02
3.99
3.65
3.65
3.41
2.54
0.93
-1.17
-3.27
-4.98
-6.15
-6.97
-7.79
-9.01
-10.80
-13.18
-16.02
-19.13
-22.33
-25.29
-27.64
-28.88
-28.61
-26.61
-22.97
-18.08
-12.44
-6.58
-0.94
4.18
8.56
12.08
14.66
16.27
17.00
16.96
16.31
15.24
13.89
12.41
10.95
9.67
8.72
8.22
8.24
8.73
9.54
10.44
11.15
11.42
11.11
10.21
8.88
7.36
5.88
4.64
3.70
3.06
2.62
2.28
1.85
1.23
0.36
-0.72
-1.90
-3.05
-4.16
-5.30
-6.64
-8.33
-10.42
-12.87
-15.62
-18.67
-22.05
-25.72
-29.40
-32.52
-34.35
-34.20
-31.75
-27.19
-21.14
-14.46
-7.99
-2.33
2.30
5.97
8.93
11.47
13.76
15.86
17.61
18.85
19.37
19.16
18.30
17.03
15.64
14.40
13.52
13.08
13.04
13.24
13.45
13.44
13.12
12.57
11.99
11.57
11.39
11.33
11.09
10.39
9.12
7.38
5.51
3.85
2.69
2.09
1.88
1.72
1.31
0.42
-0.97
-2.68
-4.50
-6.18
-7.59
-8.71
-9.64
-10.49
-11.38
-12.49
-13.97
-16.04
-18.79
-22.07
-25.39
-27.97
-28.94
-27.68
-24.07
-18.50
-11.79
-4.83
1.70
7.39
12.15
16.01
19.04
21.30
22.85
23.76
24.16
24.12
23.68
22.86
21.72
20.38
19.04
17.88
16.99
16.43
16.15
16.09
16.10
16.03
15.65
14.82
13.53
11.93
10.27
8.79
7.58
6.58
5.64
4.59
3.42
2.21
1.13
0.30
-0.26
-0.65
-1.08
-1.72
-2.75
-4.16
-5.82
-7.47
-8.82
-9.67
-10.02
-10.13
-10.45
-11.49
-13.62
-16.89
-20.91
-24.92
-28.02
-29.44
-28.81
-26.23
-22.19
-17.24
-11.86
-6.35
-0.86
4.37
9.07
12.82
15.34
16.54
16.62
15.90
14.69
13.15
11.28
9.06
6.49
3.84
1.41
-0.42
-1.42
-1.60
-1.15
-0.40
0.36
0.92
1.22
1.25
1.00
0.45
-0.37
-1.37
-2.38
-3.21
-3.80
-4.16
-4.47
-4.87
-5.43
-6.05
-6.60
-6.99
-7.27
-7.64
-8.35
-9.48
-10.93
-12.43
-13.63
-14.38
-14.77
-15.14
-16.03
-17.87
-20.81
-24.52
-28.23
-30.93
-31.70
-30.05
-26.08
-20.45
-14.13
-8.07
-2.89
1.26
4.55
7.37
10.02
12.65
15.22
17.51
19.22
20.10
20.02
19.04
17.45
15.61
13.88
12.52
11.65
11.26
11.28
11.61
12.04
12.36
12.29
11.68
10.51
9.01
7.51
6.30
5.43
4.75
4.01
3.10
2.14
1.38
1.09
1.31
1.82
2.24
2.25
1.74
0.82
-0.28
-1.35
-2.36
-3.39
-4.55
-5.84
-7.16
-8.31
-9.25
-10.12
-11.27
-12.99
-15.33
-17.87
-19.77
-20.10
-18.18
-13.88
-7.71
-0.64
6.31
12.26
16.79
19.85
21.68
22.70
23.34
23.91
24.46
24.81
24.59
23.55
21.60
19.01
16.26
13.88
12.19
11.26
10.85
10.59
10.15
9.36
8.22
6.89
5.58
4.44
3.51
2.74
2.05
1.33
0.60
-0.16
-0.87
-1.53
-2.15
-2.78
-3.44
-4.14
-4.86
-5.59
-6.32
-7.06
-7.91
-8.91
-10.14
-11.65
-13.43
-15.47
-17.77
-20.31
-23.01
-25.59
-27.58
-28.38
-27.45
-24.56
-19.92
-14.19
-8.22
-2.80
1.63
5.02
7.57
9.51
10.94
11.79
11.97
11.45
10.37
8.94
7.42
5.95
4.57
3.26
2.06
1.02
0.29
-0.05
0.00
0.34
0.75
1.10
1.25
1.18
0.92
0.56
0.21
-0.11
-0.43
-0.90
-1.66
-2.78
-4.18
-5.67
-7.01
-8.02
-8.71
-9.16
-9.52
-9.87
-10.23
-10.59
-10.98
-11.48
-12.21
-13.29
-14.78
-16.76
-19.22
-22.10
-25.08
-27.56
-28.74
-27.86
-24.56
-19.01
-11.94
-4.34
2.92
9.27
14.48
18.54
21.54
23.59
24.83
25.43
25.62
25.49
25.02
24.06
22.52
20.42
17.98
15.58
13.52
11.94
10.70
9.56
8.21
6.54
4.65
2.77
1.20
0.11
-0.51
-0.82
-1.06
-1.47
-2.06
-2.76
-3.36
-3.74
-3.91
-4.04
-4.38
-5.11
-6.25
-7.62
-8.94
-9.93
-10.47
-10.67
-10.84
-11.37
-12.56
-14.56
-17.30
-20.54
-23.93
-27.04
-29.47
-30.84
-30.90
-29.56
-26.93
-23.25
-18.91
-14.31
-9.75
-5.44
-1.41
2.34
5.88
9.16
12.03
14.31
15.93
17.02
17.93
19.12
20.83
23.01
25.24
26.99
27.84
27.74
26.99
26.04
25.26
24.66
23.94
22.71
20.67
17.83
14.43
10.88
7.51
4.52
1.84
-0.65
-3.14
-5.70
-8.27
-10.65
-12.59
-13.92
-14.62
-14.85
-14.90
-15.06
-15.58
-16.51
-17.80
-19.34
-21.02
-22.74
-24.33
-25.47
-25.75
-24.74
-22.19
-18.15
-12.96
-7.21
-1.50
3.64
7.82
10.82
12.62
13.29
13.05
12.22
11.07
9.84
8.65
7.51
6.38
5.25
4.16
3.18
2.44
2.04
2.03
2.41
3.12
3.94
4.67
5.03
4.91
4.30
3.39
2.48
1.80
1.44
1.26
1.03
0.44
-0.63
-2.19
-4.08
-6.02
-7.82
-9.34
-10.58
-11.64
-12.68
-13.83
-15.27
-17.14
-19.53
-22.45
-25.66
-28.70
-30.88
-31.54
-30.17
-26.73
-21.60
-15.46
-9.10
-3.17
1.94
6.11
9.37
11.88
13.86
15.52
17.01
18.33
19.36
19.89
19.79
19.09
18.02
16.90
16.05
15.70
15.88
16.54
17.55
18.77
20.02
21.20
22.19
22.83
23.02
22.60
21.44
19.49
16.87
13.87
10.88
8.24
6.09
4.34
2.73
1.00
-0.97
-3.16
-5.44
-7.64
-9.69
-11.53
-13.20
-14.77
-16.44
-18.47
-21.13
-24.50
-28.35
-32.01
-34.59
-35.17
-33.25
-28.88
-22.70
-15.75
-9.01
-3.16
1.58
5.39
8.65
11.60
14.32
16.65
18.38
19.40
19.79
19.74
19.48
19.24
19.08
19.07
19.20
19.42
19.62
19.59
19.11
17.94
16.03
13.48
10.62
7.86
5.64
4.30
4.02
4.78
6.40
8.56
10.88
12.91
14.21
14.38
13.19
10.68
7.23
3.43
-0.07
-2.84
-4.85
-6.50
-8.40
-11.13
-14.96
-19.80
-25.22
-30.61
-35.28
-38.58
-39.95
-39.04
-35.79
-30.52
-23.87
-16.64
-9.58
-3.20
2.24
6.68
10.21
12.91
14.92
16.30
17.13
17.44
17.24
16.62
15.65
14.50
13.28
12.10
11.03
10.16
9.66
9.75
10.57
12.00
13.65
14.91
15.22
14.31
12.31
9.68
6.94
4.48
2.39
0.55
-1.26
-3.15
-5.06
-6.90
-8.55
-10.07
-11.59
-13.30
-15.26
-17.40
-19.57
-21.69
-23.91
-26.52
-29.78
-33.60
-37.46
-40.42
-41.54
-40.20
-36.39
-30.73
-24.12
-17.54
-11.60
-6.60
-2.47
1.00
4.06
6.92
9.67
12.33
14.78
16.86
18.33
19.07
19.04
18.32
17.18
15.93
14.92
14.40
14.48
15.07
15.92
16.66
16.98
16.72
15.87
14.53
12.87
11.06
9.17
7.29
5.45
3.71
2.10
0.63
-0.69
-1.92
-3.08
-4.22
-5.34
-6.43
-7.46
-8.43
-9.37
-10.38
-11.62
-13.31
-15.67
-18.78
-22.50
-26.34
-29.60
-31.46
-31.27
-28.79
-24.25
-18.31
-11.82
-5.58
-0.11
4.38
7.96
10.82
13.17
15.20
17.03
18.77
20.38
21.76
22.65
22.79
22.04
20.48
18.49
16.62
15.35
14.92
15.23
15.91
16.53
16.73
16.43
15.67
14.58
13.26
11.74
10.05
8.25
6.56
5.24
4.50
4.37
4.61
4.83
4.60
3.72
2.21
0.38
-1.44
-2.97
-4.10
-4.95
-5.73
-6.74
-8.23
-10.43
-13.44
-17.16
-21.22
-25.00
-27.74
-28.71
-27.50
-24.08
-18.88
-12.66
-6.28
-0.47
4.37
8.16
11.11
13.54
15.64
17.46
18.92
19.86
20.21
20.02
19.43
18.56
17.50
16.31
15.01
13.71
12.59
11.77
11.32
11.18
11.15
10.94
10.32
9.10
7.26
4.93
2.34
-0.18
-2.35
-3.99
-5.17
-6.12
-7.15
-8.51
-10.28
-12.33
-14.40
-16.30
-17.90
-19.36
-20.88
-22.65
-24.74
-27.16
-29.88
-32.94
-36.43
-40.26
-44.10
-47.18
-48.55
-47.33
-43.10
-36.17
-27.47
-18.26
-9.69
-2.45
3.42
8.33
12.95
17.84
23.18
28.72
33.82
37.82
40.18
40.91
40.49
39.74
39.58
40.67
43.25
46.95
50.79
53.24
52.81
48.46
40.23
29.34
17.80
7.71
0.42
-3.82
-5.72
-6.33
-6.47
-6.45
-6.22
-5.77
-5.34
-5.37
-6.26
-8.09
-10.52
-13.01
-15.09
-16.40
-16.97
-17.06
-17.04
-17.28
-18.07
-19.55
-21.72
-24.47
-27.52
-30.47
-32.75
-33.77
-33.07
-30.49
-26.23
-20.76
-14.62
-8.22
-1.83
4.36
10.07
14.97
18.74
21.36
23.13
24.57
26.17
28.09
30.09
31.70
32.53
32.46
31.80
31.05
30.73
31.14
32.27
33.84
35.44
36.66
37.18
36.84
35.55
33.34
30.33
26.76
22.96
19.28
16.08
13.50
11.54
10.05
8.83
7.72
6.67
5.72
4.85
4.06
3.31
2.58
1.84
1.04
0.09
-1.20
-3.02
-5.63
-9.23
-13.96
-19.70
-26.02
-32.15
-37.01
-39.69
-39.63
-37.02
-32.61
-27.50
-22.61
-18.41
-14.83
-11.50
-8.10
-4.61
-1.35
1.21
2.59
2.58
1.27
-0.97
-3.61
-6.12
-8.13
-9.47
-10.17
-10.35
-10.09
-9.38
-8.20
-6.56
-4.63
-2.76
-1.32
-0.62
-0.72
-1.49
-2.68
-4.00
-5.28
-6.42
-7.47
-8.52
-9.67
-11.01
-12.49
-14.03
-15.43
-16.54
-17.30
-17.82
-18.36
-19.20
-20.66
-22.88
-25.91
-29.58
-33.49
-37.00
-39.36
-39.86
-38.11
-34.18
-28.56
-22.05
-15.45
-9.34
-3.98
0.68
4.79
8.44
11.53
13.92
15.39
15.94
15.70
14.93
13.90
12.87
11.98
11.29
10.89
10.81
11.13
11.83
12.78
13.77
14.55
14.94
14.87
14.39
13.56
12.50
11.29
10.04
8.86
7.81
6.90
6.03
5.03
3.77
2.20
0.43
-1.33
-2.83
-3.98
-4.82
-5.55
-6.40
-7.55
-9.04
-10.84
-12.91
-15.26
-18.03
-21.28
-24.91
-28.44
-31.14
-32.17
-30.94
-27.42
-22.13
-16.00
-9.98
-4.75
-0.49
2.97
6.04
9.02
12.05
15.09
17.94
20.40
22.28
23.48
23.93
23.67
22.83
21.67
20.52
19.73
19.54
19.94
20.73
21.48
21.82
21.51
20.54
19.17
17.70
16.44
15.50
14.82
14.22
13.51
12.59
11.53
10.49
9.62
8.99
8.47
7.80
6.76
5.25
3.36
1.36
-0.49
-2.10
-3.52
-4.98
-6.74
-8.99
-11.84
-15.32
-19.32
-23.50
-27.30
-29.96
-30.83
-29.57
-26.31
-21.67
-16.46
-11.37
-6.75
-2.64
1.11
4.59
7.78
10.53
12.69
14.15
14.94
15.12
14.80
14.10
13.17
12.16
11.20
10.37
9.66
9.03
8.43
7.86
7.41
7.20
7.33
7.79
8.41
8.86
8.83
8.10
6.73
5.03
3.40
2.17
1.39
0.83
0.11
-1.05
-2.69
-4.53
-6.19
-7.40
-8.11
-8.61
-9.35
-10.76
-13.05
-16.20
-19.91
-23.66
-26.88
-29.04
-29.75
-28.82
-26.34
-22.56
-17.93
-12.91
-7.94
-3.37
0.59
3.83
6.39
8.37
9.92
11.19
12.22
12.98
13.46
13.67
13.69
13.62
13.55
13.46
13.30
13.07
12.85
12.75
12.90
13.30
13.76
13.98
13.71
12.83
11.46
9.89
8.43
7.29
6.52
6.01
5.58
5.04
4.23
3.06
1.50
-0.40
-2.46
-4.44
-6.10
-7.39
-8.39
-9.37
-10.66
-12.56
-15.23
-18.63
-22.55
-26.53
-29.91
-31.99
-32.14
-30.06
-25.90
-20.25
-13.91
-7.64
-1.93
3.03
7.35
11.27
15.00
18.68
22.30
25.75
28.80
31.16
32.54
32.87
32.31
31.29
30.37
30.01
30.44
31.47
32.68
33.49
33.44
32.30
30.12
27.16
23.72
20.04
16.26
12.45
8.71
5.20
2.12
-0.33
-2.06
-3.17
-3.85
-4.33
-4.78
-5.28
-5.83
-6.40
-6.92
-7.37
-7.67
-7.79
-7.71
-7.53
-7.48
-7.79
-8.75
-10.48
-12.92
-15.75
-18.43
-20.39
-21.16
-20.52
-18.58
-15.77
-12.58
-9.42
-6.42
-3.49
-0.42
2.87
6.28
9.55
12.33
14.37
15.55
15.88
15.49
14.60
13.46
12.34
11.46
10.94
10.71
10.61
10.45
10.09
9.52
8.81
8.04
7.25
6.47
5.74
5.06
4.47
3.91
3.28
2.44
1.32
-0.10
-1.76
-3.60
-5.54
-7.54
-9.49
-11.23
-12.56
-13.30
-13.47
-13.29
-13.16
-13.56
-14.80
-17.00
-19.97
-23.30
-26.44
-28.83
-30.04
-29.85
-28.24
-25.40
-21.66
-17.40
-12.96
-8.65
-4.67
-1.21
1.64
3.80
5.26
6.07
6.35
6.25
5.85
5.22
4.32
3.16
1.82
0.56
-0.28
-0.41
0.25
1.48
2.82
3.73
3.89
3.25
2.09
0.76
-0.45
-1.44
-2.29
-3.06
-3.78
-4.35
-4.70
-4.76
-4.61
-4.48
-4.58
-5.11
-6.05
-7.25
-8.47
-9.53
-10.45
-11.51
-13.09
-15.51
-18.85
-22.84
-26.86
-30.18
-32.06
-32.03
-29.95
-26.02
-20.77
-14.89
-9.05
-3.79
0.62
4.20
7.15
9.76
12.30
14.94
17.62
20.08
21.91
22.66
22.04
20.12
17.29
14.26
11.74
10.18
9.64
9.74
9.92
9.65
8.68
7.11
5.24
3.40
1.77
0.31
-1.14
-2.73
-4.55
-6.53
-8.61
-10.71
-12.80
-14.94
-17.24
-19.85
-23.00
-26.90
-31.68
-37.25
-43.24
-49.13
-54.44
-59.01
-63.28
-68.10
-74.53
-83.22
-94.12
-106.17
-117.67
-126.80
-132.34
-134.26
-133.85
-133.51
-136.03
-143.72
-157.39
-175.81
-195.79
-213.01
-223.41
-224.68
-217.03
-202.87
-185.62
-168.17
-151.58
-134.90
-115.61
-90.58
-57.05
-13.82
37.92
94.06
148.32
193.82
225.53
242.12
246.35
243.51
238.71
234.42
229.72
221.47
206.47
183.48
153.77
120.36
86.83
56.56
32.61
17.74
14.17
22.55
41.11
65.39
88.95
104.99
108.05
95.47
67.94
29.12
-15.21
-58.38
-94.18
-118.01
-127.61
-123.31
-107.53
-83.91
-56.21
-27.53
0.28
26.73
52.58
79.22
107.41
135.90
160.56
174.83
171.82
147.33
102.19
42.53
-21.99
-81.61
-129.52
-163.35
-184.60
-196.59
-202.38
-203.79
-201.60
-196.63
-190.63
-186.43
-187.30
-196.10
-214.44
-242.05
-276.52
-313.22
-345.84
-367.53
-372.59
-358.14
-324.91
-276.83
-219.50
-158.16
-96.19
-34.76
26.47
88.28
150.77
212.72
271.34
322.41
361.04
382.96
386.31
372.82
347.85
318.59
291.48
269.74
252.70
236.99
218.97
196.94
171.87
146.76
124.96
108.86
99.39
96.30
98.78
105.82
116.36
129.01
142.12
153.91
162.96
168.52
170.64
169.96
167.21
162.78
156.33
147.03
133.91
116.51
95.46
72.52
50.22
31.09
16.91
8.13
3.92
2.39
1.33
-1.20
-6.35
-14.15
-23.64
-33.20
-41.07
-46.00
-47.65
-46.75
-44.85
-43.93
-45.57
-50.49
-58.10
-66.72
-74.07
-78.03
-77.37
-72.07
-63.25
-52.73
-42.39
-33.52
-26.34
-19.61
-10.87
3.00
24.60
54.78
92.12
133.16
173.65
210.03
240.29
263.81
280.37
289.09
288.11
275.07
248.24
207.45
154.47
92.74
26.98
-37.31
-94.39
-139.23
-168.69
-182.67
-184.30
-179.18
-173.41
-171.73
-176.12
-185.71
-197.59
-208.03
-213.52
-211.51
-200.73
-181.48
-155.69
-126.79
-98.86
-75.61
-59.06
-48.94
-42.77
-36.62
-26.25
-8.09
20.00
58.34
105.24
157.04
208.45
253.43
286.37
303.47
303.82
289.51
264.88
235.00
204.09
174.53
146.72
119.70
92.28
63.87
34.93
6.73
-19.22
-41.86
-60.99
-77.20
-91.58
-105.23
-118.83
-132.54
-145.90
-157.95
-167.38
-172.65
-172.36
-165.67
-152.69
-134.70
-114.02
-93.26
-74.69
-59.56
-48.02
-39.40
-32.83
-27.69
-23.72
-20.98
-19.49
-19.14
-19.63
-20.55
-21.58
-22.49
-23.19
-23.61
-23.75
-23.59
-23.12
-22.34
-21.29
-19.98
-18.49
-16.89
-15.29
-13.73
-12.18
-10.55
-8.70
-6.58
-4.25
-1.90
0.25
2.06
3.50
4.62
5.43
5.76
5.31
3.78
1.19
-2.02
-5.11
-7.33
-8.39
-8.67
-9.18
-11.08
-15.15
-21.30
-28.67
-35.97
-42.25
-47.43
-52.54
-59.25
-69.18
-83.27
-101.46
-123.03
-147.04
-172.53
-198.26
-222.46
-243.04
-258.41
-268.28
-273.87
-277.01
-278.57
-277.36
-270.33
-254.06
-226.78
-189.60
-146.01
-100.35
-55.69
-12.89
29.12
71.98
116.40
161.28
203.66
239.60
265.33
278.56
279.25
269.60
253.12
233.30
212.54
191.87
171.56
152.03
134.45
120.48
111.33
106.92
105.75
105.55
104.42
101.71
98.06
94.91
93.41
93.74
95.04
95.86
94.91
91.70
86.61
80.67
74.93
70.19
66.65
64.09
61.94
59.47
55.97
50.86
43.96
35.71
27.17
19.72
14.57
12.29
12.61
14.71
17.71
21.11
24.93
29.50
34.99
41.07
46.91
51.56
54.43
55.84
57.03
59.85
66.06
76.36
89.91
104.51
117.66
128.10
136.64
145.80
158.01
173.66
189.79
200.77
200.37
184.27
151.22
102.75
41.81
-27.85
-101.37
-171.94
-230.90
-270.00
-284.84
-277.75
-257.71
-236.76
-224.73
-224.80
-232.74
-239.83
-237.82
-223.27
-198.89
-171.87
-150.45
-140.79
-145.52
-164.10
-193.80
-230.64
-269.74
-305.24
-330.54
-339.32
-327.14
-292.87
-239.45
-173.30
-102.81
-36.31
19.71
61.70
89.43
105.54
114.72
122.30
132.88
149.07
171.03
196.74
223.06
246.88
266.03
279.62
287.83
291.60
292.19
290.94
289.08
287.53
286.78
286.51
285.54
281.91
273.43
258.22
235.45
205.54
169.86
130.16
87.65
42.28
-7.20
-62.43
-123.74
-188.68
-251.68
-305.35
-343.17
-362.23
-364.48
-355.72
-342.88
-330.83
-320.71
-310.42
-296.71
-277.60
-253.62
-227.40
-202.25
-180.71
-163.70
-150.57
-139.71
-129.03
-116.35
-99.80
-78.00
-50.43
-17.72
18.19
54.30
87.10
113.48
131.70
142.01
146.70
149.39
153.81
162.70
176.99
195.77
216.84
237.54
255.55
269.46
278.84
283.89
284.94
281.98
274.67
262.88
247.25
229.51
212.21
197.80
187.58
181.19
176.80
171.95
164.38
152.66
136.20
115.09
89.86
61.47
31.41
1.65
-25.65
-48.60
-66.04
-77.83
-84.79
-88.40
-90.31
-91.83
-93.59
-95.38
-96.32
-95.28
-91.41
-84.66
-76.22
-68.48
-64.69
-68.17
-81.40
-104.97
-137.08
-173.64
-209.20
-238.44
-257.70
-265.96
-264.81
-257.53
-247.58
-237.37
-227.78
-218.66
-209.87
-202.06
-196.77
-195.55
-198.83
-205.11
-211.37
-214.12
-210.85
-200.75
-184.66
-164.20
-140.63
-114.30
-84.66
-51.19
-14.28
24.41
62.22
96.28
124.33
145.17
158.78
166.30
169.32
169.57
168.62
167.64
167.04
166.49
165.04
161.66
156.45
150.13
143.83
138.59
134.90
132.40
130.29
127.60
123.75
120.13
118.29
119.31
123.44
129.96
137.29
143.83
147.80
147.98
145.92
143.02
140.02
137.16
135.15
135.50
140.93
153.01
170.64
191.93
211.37
221.98
218.38
199.38
167.97
130.44
92.53
44.09
-16.31
-82.03
-141.59
-186.19
-211.74
-226.08
-237.68
-254.18
-281.37
-317.66
-358.56
-397.02
-424.83
-434.55
-422.40
-389.01
-340.39
-285.29
-229.71
-177.15
-128.13
-81.56
-36.31
7.27
48.01
83.93
113.56
137.96
158.89
178.12
196.85
215.61
233.89
250.76
264.51
273.30
276.41
273.76
265.70
252.55
234.25
210.19
179.93
143.59
102.40
58.99
16.51
-22.13
-55.03
-81.45
-101.58
-116.17
-126.13
-132.38
-135.79
-137.16
-137.26
-136.41
-134.40
-130.47
-123.79
-114.20
-102.72
-91.46
-82.79
-78.27
-77.82
-79.84
-82.15
-83.16
-82.45
-80.57
-78.10
-74.95
-70.41
-63.84
-55.50
-46.80
-39.79
-36.02
-35.73
-37.79
-40.07
-40.65
-38.51
-33.79
-27.55
-21.15
-15.73
-11.89
-9.72
-8.91
-8.87
-9.02
-8.88
-8.17
-6.85
-5.06
-2.94
-0.64
1.75
4.12
6.31
8.12
9.34
9.91
9.90
9.63
9.46
9.79
10.83
12.61
14.90
17.33
19.49
21.07
21.89
21.93
21.35
20.30
18.97
17.49
15.92
14.34
12.79
11.33
9.93
8.53
7.00
5.19
3.00
0.46
-2.35
-5.29
-8.21
-11.03
-13.69
-16.11
-18.15
-19.62
-20.37
-20.36
-19.60
-18.17
-16.19
-13.75
-10.99
-8.05
-5.15
-2.47
-0.11
1.95
3.81
5.55
7.19
8.57
9.52
9.87
9.66
9.07
8.44
8.05
8.08
8.51
9.11
9.58
9.69
9.32
8.55
7.53
6.45
5.40
4.42
3.50
2.62
1.78
1.03
0.35
-0.23
-0.78
-1.32
-1.89
-2.56
-3.36
-4.34
-5.50
-6.84
-8.28
-9.73
-11.08
-12.25
-13.16
-13.72
-13.85
-13.44
-12.47
-10.97
-9.01
-6.71
-4.21
-1.62
0.94
3.34
5.46
7.16
8.39
9.14
9.52
9.68
9.70
9.67
9.54
9.30
8.89
8.32
7.67
7.06
6.62
6.43
6.42
6.42
6.22
5.69
4.87
3.96
3.18
2.66
2.29
1.89
1.23
0.27
-0.87
-1.94
-2.68
-3.07
-3.20
-3.30
-3.58
-4.14
-4.99
-6.06
-7.25
-8.51
-9.84
-11.23
-12.67
-14.06
-15.20
-15.80
-15.61
-14.55
-12.73
-10.45
-8.04
-5.77
-3.72
-1.87
-0.13
1.50
3.01
4.30
5.30
6.06
6.61
7.01
7.29
7.44
7.41
7.24
6.96
6.65
6.40
6.30
6.41
6.74
7.26
7.86
8.41
8.75
8.71
8.20
7.20
5.82
4.26
2.78
1.64
0.95
0.68
0.63
0.53
0.18
-0.48
-1.38
-2.36
-3.30
-4.15
-4.96
-5.78
-6.69
-7.73
-8.91
-10.29
-11.81
-13.39
-14.81
-15.76
-15.94
-15.16
-13.47
-11.14
-8.58
-6.18
-4.14
-2.45
-0.96
0.54
2.11
3.63
4.87
5.60
5.70
5.27
4.57
3.92
3.51
3.38
3.36
3.23
2.82
2.12
1.29
0.56
0.15
0.11
0.39
0.77
1.04
1.03
0.64
-0.06
-0.96
-1.85
-2.58
-3.09
-3.44
-3.79
-4.30
-5.07
-6.03
-7.09
-8.11
-9.01
-9.84
-10.76
-11.91
-13.39
-15.17
-17.16
-19.18
-21.02
-22.42
-23.12
-22.95
-21.81
-19.76
-16.98
-13.74
-10.33
-6.98
-3.84
-0.97
1.60
3.83
5.62
6.91
7.68
7.96
7.93
7.78
7.70
7.80
8.09
8.46
8.80
9.01
9.09
9.07
9.04
9.05
9.09
9.09
8.92
8.47
7.69
6.60
5.30
3.98
2.75
1.71
0.87
0.17
-0.46
-1.06
-1.65
-2.27
-3.02
-3.99
-5.26
-6.76
-8.30
-9.66
-10.69
-11.43
-12.02
-12.63
-13.27
-13.78
-13.84
-13.21
-11.80
-9.78
-7.40
-4.94
-2.49
-0.06
2.36
4.70
6.77
8.38
9.41
9.83
9.78
9.45
9.04
8.71
8.51
8.43
8.40
8.35
8.25
8.11
7.96
7.88
7.84
7.83
7.71
7.41
6.87
6.19
5.51
4.98
4.73
4.68
4.71
4.59
4.18
3.47
2.62
1.86
1.34
1.05
0.77
0.21
-0.78
-2.15
-3.69
-5.11
-6.31
-7.39
-8.57
-10.02
-11.69
-13.32
-14.50
-14.90
-14.33
-12.86
-10.69
-8.13
-5.43
-2.83
-0.47
1.55
3.17
4.44
5.48
6.41
7.29
8.10
8.77
9.23
9.45
9.56
9.67
9.87
10.13
10.29
10.16
9.68
8.87
7.91
6.94
6.00
5.11
4.22
3.39
2.69
2.21
1.93
1.76
1.54
1.17
0.62
-0.07
-0.84
-1.69
-2.68
-3.86
-5.21
-6.61
-7.91
-8.93
-9.63
-10.07
-10.43
-10.98
-11.96
-13.44
-15.26
-17.01
-18.11
-18.09
-16.73
-14.25
-11.15
-8.02
-5.21
-2.82
-0.64
1.56
3.84
5.97
7.60
8.42
8.37
7.71
6.84
6.15
5.81
5.77
5.84
5.83
5.72
5.57
5.55
5.77
6.22
6.77
7.22
7.38
7.13
6.48
5.51
4.39
3.28
2.34
1.61
1.06
0.60
0.08
-0.56
-1.34
-2.19
-3.07
-4.00
-5.01
-6.18
-7.48
-8.86
-10.18
-11.37
-12.41
-13.34
-14.20
-14.94
-15.38
-15.29
-14.51
-13.04
-11.13
-9.07
-7.10
-5.25
-3.36
-1.27
1.08
3.49
5.60
7.05
7.70
7.74
7.57
7.58
7.98
8.70
9.44
9.91
9.96
9.69
9.38
9.26
9.43
9.75
9.94
9.73
9.03
7.97
6.81
5.88
5.36
5.26
5.39
5.48
5.33
4.85
4.13
3.29
2.48
1.72
0.95
0.08
-0.90
-1.90
-2.78
-3.46
-3.99
-4.54
-5.32
-6.46
-7.94
-9.63
-11.30
-12.74
-13.75
-14.19
-13.91
-12.90
-11.26
-9.20
-6.97
-4.82
-2.89
-1.20
0.33
1.78
3.23
4.71
6.13
7.32
8.09
8.30
7.99
7.39
6.83
6.63
6.90
7.51
8.18
8.57
8.50
7.97
7.13
6.19
5.30
4.56
3.97
3.50
3.10
2.71
2.28
1.82
1.34
0.85
0.34
-0.24
-0.92
-1.78
-2.80
-3.94
-5.07
-6.10
-6.92
-7.51
-7.92
-8.28
-8.74
-9.42
-10.39
-11.63
-13.00
-14.33
-15.38
-15.96
-15.98
-15.43
-14.36
-12.89
-11.13
-9.12
-6.86
-4.36
-1.69
1.03
3.58
5.75
7.41
8.55
9.23
9.53
9.53
9.31
8.93
8.49
8.09
7.78
7.58
7.52
7.58
7.80
8.19
8.72
9.25
9.58
9.52
9.00
8.09
6.92
5.67
4.39
3.09
1.75
0.46
-0.60
-1.22
-1.31
-0.95
-0.43
-0.13
-0.33
-1.18
-2.52
-4.08
-5.59
-6.87
-7.89
-8.81
-9.82
-11.04
-12.50
-14.03
-15.33
-16.08
-15.99
-14.97
-13.07
-10.60
-7.95
-5.49
-3.47
-1.90
-0.60
0.71
2.27
4.19
6.33
8.44
10.21
11.37
11.84
11.68
11.06
10.26
9.55
9.15
9.18
9.60
10.26
10.90
11.31
11.41
11.25
10.99
10.74
10.54
10.34
10.05
9.65
9.24
8.97
8.92
8.98
8.85
8.18
6.75
4.65
2.29
0.17
-1.29
-1.98
-2.15
-2.23
-2.61
-3.53
-4.99
-6.82
-8.86
-10.87
-12.64
-13.89
-14.40
-14.05
-12.97
-11.43
-9.80
-8.33
-7.08
-5.90
-4.55
-2.91
-0.93
1.28
3.55
5.74
7.74
9.45
10.79
11.71
12.20
12.33
12.17
11.82
11.41
11.03
10.80
10.77
10.93
11.22
11.51
11.65
11.54
11.07
10.16
8.81
7.05
5.02
2.93
0.96
-0.78
-2.28
-3.71
-5.30
-7.28
-9.77
-12.74
-16.02
-19.38
-22.61
-25.53
-28.09
-30.20
-31.82
-32.89
-33.40
-33.37
-32.84
-31.88
-30.43
-28.39
-25.64
-22.29
-18.87
-16.23
-15.29
-16.47
-19.36
-22.68
-24.90
-24.84
-22.29
-17.99
-13.15
-8.82
-5.38
-2.62
-0.04
2.60
5.11
7.00
7.90
7.80
7.13
6.52
6.39
6.86
7.70
8.51
8.96
8.95
8.59
8.03
7.40
6.64
5.62
4.27
2.72
1.28
0.32
0.07
0.44
1.07
1.45
1.16
0.02
-1.88
-4.28
-6.87
-9.42
-11.74
-13.69
-15.13
-15.88
-15.76
-14.66
-12.57
-9.65
-6.20
-2.58
0.90
4.01
6.69
8.92
10.69
11.92
12.54
12.49
11.84
10.77
9.53
8.41
7.67
7.52
8.09
9.38
11.23
13.27
15.07
16.23
16.56
16.10
15.09
13.83
12.57
11.47
10.52
9.67
8.83
7.91
6.87
5.73
4.56
3.44
2.43
1.51
0.62
-0.32
-1.30
-2.26
-3.08
-3.71
-4.21
-4.73
-5.45
-6.43
-7.61
-8.77
-9.69
-10.17
-10.15
-9.59
-8.48
-6.78
-4.49
-1.69
1.43
4.61
7.62
10.36
12.83
15.06
16.99
18.50
19.42
19.65
19.22
18.26
16.95
15.50
14.09
12.94
12.23
12.09
12.49
13.21
13.91
14.28
14.18
13.67
12.92
12.15
11.40
10.69
9.94
9.14
8.31
7.46
6.54
5.45
4.04
2.22
0.08
-2.22
-4.42
-6.39
-8.11
-9.68
-11.24
-12.85
-14.37
-15.50
-15.90
-15.30
-13.67
-11.23
-8.35
-5.40
-2.68
-0.28
1.80
3.69
5.46
7.21
8.97
10.70
12.33
13.69
14.62
14.98
14.77
14.13
13.38
12.82
12.64
12.85
13.27
13.70
14.02
14.22
14.36
14.48
14.51
14.31
13.76
12.84
11.71
10.59
9.65
8.97
8.48
8.00
7.35
6.44
5.24
3.83
2.32
0.84
-0.53
-1.71
-2.77
-3.86
-5.19
-6.99
-9.36
-12.13
-14.90
-17.10
-18.19
-17.91
-16.33
-13.86
-10.99
-8.13
-5.46
-3.00
-0.69
1.50
3.54
5.41
7.10
8.66
10.14
11.52
12.69
13.45
13.71
13.46
12.91
12.31
11.94
11.96
12.40
13.21
14.25
15.37
16.38
17.09
17.32
16.96
15.99
14.54
12.88
11.35
10.27
9.78
9.77
9.91
9.80
9.05
7.50
5.30
2.79
0.39
-1.60
-3.10
-4.24
-5.23
-6.27
-7.44
-8.67
-9.97
-11.31
-12.77
-14.45
-16.37
-18.40
-20.30
-21.78
-22.58
-22.63
-22.00
-20.88
-19.48
-17.87
-16.02
-13.83
-11.21
-8.24
-5.15
-2.22
0.27
2.16
3.43
4.18
4.55
4.70
4.78
4.87
5.09
5.52
6.16
6.96
7.80
8.54
9.04
9.25
9.16
8.83
8.37
7.85
7.33
6.85
6.43
6.06
5.74
5.40
4.95
4.29
3.37
2.18
0.82
-0.57
-1.81
-2.77
-3.43
-3.87
-4.30
-4.96
-6.03
-7.55
-9.41
-11.30
-12.84
-13.67
-13.50
-12.28
-10.18
-7.53
-4.76
-2.24
-0.18
1.48
2.95
4.48
6.17
7.88
9.32
10.18
10.36
10.02
9.50
9.12
9.02
9.13
9.26
9.24
9.03
8.73
8.53
8.56
8.87
9.43
10.11
10.70
10.99
10.80
10.04
8.80
7.33
5.89
4.76
4.04
3.67
3.53
3.48
3.42
3.31
3.06
2.58
1.74
0.53
-0.94
-2.49
-3.91
-5.17
-6.35
-7.65
-9.21
-10.99
-12.77
-14.19
-14.89
-14.77
-13.91
-12.58
-11.03
-9.42
-7.74
-5.95
-4.05
-2.13
-0.41
1.01
2.10
3.01
3.89
4.79
5.59
6.07
6.06
5.58
4.87
4.32
4.20
4.60
5.38
6.24
6.86
7.06
6.83
6.31
5.68
5.12
4.66
4.28
3.85
3.28
2.53
1.67
0.78
0.00
-0.58
-0.95
-1.17
-1.39
-1.74
-2.35
-3.22
-4.27
-5.36
-6.37
-7.27
-8.13
-9.09
-10.26
-11.70
-13.39
-15.23
-17.10
-18.85
-20.29
-21.19
-21.36
-20.69
-19.26
-17.33
-15.20
-13.08
-11.05
-9.01
-6.87
-4.67
-2.57
-0.84
0.33
0.85
0.82
0.39
-0.26
-1.00
-1.69
-2.17
-2.31
-2.07
-1.52
-0.80
-0.06
0.65
1.39
2.19
2.98
3.52
3.54
2.89
1.68
0.23
-1.03
-1.81
-2.07
-2.03
-2.03
-2.33
-3.00
-3.90
-4.75
-5.33
-5.56
-5.61
-5.74
-6.18
-6.99
-8.03
-9.06
-9.87
-10.41
-10.83
-11.31
-11.93
-12.55
-12.80
-12.22
-10.58
-7.94
-4.77
-1.71
0.70
2.21
3.00
3.47
4.10
5.17
6.67
8.26
9.53
10.13
9.91
8.98
7.62
6.22
5.07
4.35
4.08
4.18
4.51
4.94
5.30
5.39
5.02
4.08
2.70
1.13
-0.22
-1.10
-1.45
-1.47
-1.45
-1.59
-1.92
-2.27
-2.51
-2.63
-2.83
-3.36
-4.37
-5.77
-7.20
-8.30
-8.87
-9.04
-9.16
-9.68
-10.86
-12.66
-14.71
-16.53
-17.69
-17.93
-17.26
-15.83
-13.88
-11.62
-9.30
-7.08
-5.10
-3.41
-2.02
-0.91
-0.06
0.42
0.50
0.14
-0.55
-1.28
-1.70
-1.51
-0.58
0.96
2.82
4.64
6.13
7.16
7.71
7.89
7.86
7.77
7.74
7.75
7.72
7.50
6.99
6.23
5.36
4.64
4.26
4.27
4.48
4.61
4.34
3.51
2.18
0.50
-1.20
-2.71
-3.81
-4.46
-4.69
-4.62
-4.44
-4.35
-4.51
-5.06
-6.04
-7.40
-8.97
-10.46
-11.55
-11.93
-11.47
-10.23
-8.41
-6.30
-4.14
-2.07
-0.15
1.57
3.04
4.19
5.02
5.60
6.02
6.33
6.40
6.10
5.33
4.20
3.02
2.17
1.89
2.20
2.86
3.52
3.88
3.84
3.47
2.93
2.38
1.94
1.59
1.31
1.00
0.63
0.20
-0.22
-0.54
-0.71
-0.77
-0.84
-1.05
-1.47
-2.03
-2.64
-3.18
-3.63
-4.02
-4.45
-4.99
-5.68
-6.57
-7.68
-9.03
-10.55
-12.02
-13.12
-13.48
-12.90
-11.40
-9.30
-6.96
-4.73
-2.77
-1.03
0.66
2.46
4.40
6.41
8.25
9.70
10.63
10.99
10.90
10.55
10.13
9.74
9.44
9.14
8.73
8.11
7.27
6.30
5.38
4.69
4.37
4.41
4.68
4.97
5.10
4.94
4.48
3.78
2.92
1.98
1.00
-0.01
-0.95
-1.75
-2.33
-2.68
-2.90
-3.14
-3.54
-4.23
-5.23
-6.43
-7.68
-8.76
-9.55
-10.08
-10.48
-11.01
-11.85
-13.08
-14.50
-15.73
-16.32
-15.89
-14.31
-11.81
-8.81
-5.81
-3.19
-1.05
0.73
2.38
4.05
5.62
6.85
7.46
7.42
6.93
6.43
6.29
6.64
7.31
7.95
8.25
8.10
7.66
7.19
6.95
6.99
7.21
7.43
7.47
7.28
6.90
6.41
5.86
5.26
4.59
3.82
3.02
2.28
1.69
1.26
0.89
0.40
-0.34
-1.30
-2.36
-3.29
-4.01
-4.53
-5.01
-5.63
-6.45
-7.42
-8.38
-9.24
-10.01
-10.89
-12.03
-13.48
-15.10
-16.53
-17.38
-17.29
-16.16
-14.13
-11.55
-8.79
-6.15
-3.79
-1.70
0.19
1.96
3.60
5.08
6.29
7.15
7.60
7.66
7.41
7.00
6.63
6.46
6.58
6.91
7.31
7.61
7.76
7.77
7.74
7.75
7.81
7.91
7.97
7.90
7.65
7.14
6.33
5.25
4.07
3.00
2.28
1.97
1.94
1.88
1.48
0.60
-0.69
-2.08
-3.24
-3.95
-4.20
-4.13
-4.00
-4.02
-4.31
-4.91
-5.82
-7.01
-8.44
-9.94
-11.28
-12.15
-12.28
-11.50
-9.87
-7.56
-4.91
-2.24
0.16
2.13
3.63
4.76
5.67
6.52
7.39
8.22
8.86
9.13
8.97
8.45
7.77
7.16
6.80
6.72
6.84
7.04
7.19
7.21
7.01
6.60
5.95
5.17
4.39
3.74
3.26
2.83
2.29
1.48
0.41
-0.77
-1.84
-2.66
-3.23
-3.66
-4.10
-4.65
-5.32
-6.05
-6.84
-7.70
-8.68
-9.77
-10.89
-11.96
-12.91
-13.82
-14.75
-15.68
-16.44
-16.73
-16.26
-14.90
-12.81
-10.34
-7.91
-5.75
-3.87
-2.03
-0.02
2.25
4.58
6.58
7.89
8.39
8.25
7.86
7.58
7.58
7.74
7.80
7.57
7.06
6.53
6.31
6.58
7.26
8.05
8.52
8.42
7.73
6.65
5.47
4.37
3.41
2.47
1.46
0.29
-0.97
-2.23
-3.37
-4.35
-5.18
-5.89
-6.50
-7.01
-7.42
-7.75
-8.08
-8.53
-9.24
-10.29
-11.69
-13.34
-15.03
-16.47
-17.28
-17.15
-15.94
-13.74
-10.86
-7.72
-4.66
-1.85
0.65
2.88
4.83
6.44
7.62
8.36
8.79
9.03
9.19
9.29
9.27
9.11
8.92
8.81
8.92
9.24
9.65
10.01
10.18
10.16
9.93
9.48
8.78
7.88
6.99
6.33
6.15
6.42
6.89
7.12
6.81
5.92
4.70
3.49
2.51
1.74
0.94
-0.09
-1.39
-2.73
-3.88
-4.72
-5.33
-6.05
-7.18
-8.89
-11.10
-13.58
-16.00
-18.07
-19.56
-20.28
-20.11
-19.02
-17.08
-14.49
-11.49
-8.35
-5.28
-2.41
0.19
2.51
4.63
6.56
8.32
9.86
11.09
11.88
12.21
12.16
11.93
11.79
11.85
12.13
12.48
12.74
12.81
12.78
12.76
12.88
13.13
13.35
13.32
12.85
11.89
10.56
9.11
7.79
6.81
6.27
6.08
6.09
6.08
5.86
5.32
4.49
3.45
2.30
1.17
0.06
-1.02
-2.13
-3.35
-4.75
-6.39
-8.27
-10.37
-12.57
-14.72
-16.55
-17.83
-18.31
-17.89
-16.60
-14.60
-12.17
-9.55
-6.97
-4.53
-2.31
-0.31
1.41
2.87
4.10
5.18
6.24
7.34
8.43
9.29
9.63
9.22
8.07
6.50
4.99
4.11
4.14
4.99
6.24
7.31
7.78
7.53
6.81
6.01
5.45
5.20
5.12
4.89
4.30
3.28
1.98
0.62
-0.61
-1.60
-2.40
-3.10
-3.81
-4.55
-5.33
-6.13
-6.92
-7.73
-8.57
-9.49
-10.60
-12.01
-13.82
-15.93
-18.02
-19.55
-19.96
-18.91
-16.46
-13.06
-9.39
-6.05
-3.37
-1.34
0.23
1.61
2.96
4.30
5.61
6.79
7.79
8.58
9.16
9.63
10.08
10.64
11.37
12.25
13.17
13.91
14.31
14.28
13.88
13.29
12.74
12.40
12.36
12.54
12.76
12.77
12.43
11.73
10.80
9.86
9.02
8.28
7.48
6.43
4.99
3.23
1.38
-0.25
-1.41
-2.07
-2.42
-2.80
-3.53
-4.75
-6.40
-8.25
-10.04
-11.63
-12.97
-14.09
-14.96
-15.46
-15.38
-14.48
-12.71
-10.18
-7.17
-4.04
-1.07
1.55
3.78
5.69
7.37
8.88
10.27
11.52
12.58
13.39
13.88
14.08
14.04
13.89
13.71
13.49
13.11
12.44
11.51
10.52
9.78
9.50
9.73
10.28
10.80
11.03
10.94
10.63
10.25
9.90
9.50
8.95
8.23
7.39
6.57
5.82
5.08
4.13
2.77
0.92
-1.30
-3.55
-5.41
-6.60
-7.09
-7.20
-7.44
-8.33
-10.10
-12.63
-15.46
-17.98
-19.65
-20.20
-19.62
-18.16
-16.15
-13.91
-11.67
-9.47
-7.32
-5.11
-2.87
-0.72
1.16
2.61
3.60
4.26
4.80
5.42
6.22
7.13
8.07
8.84
9.31
9.36
8.99
8.26
7.39
6.62
6.13
5.91
5.80
5.58
5.09
4.34
3.52
2.83
2.40
2.17
1.97
1.61
0.98
0.09
-0.92
-1.90
-2.73
-3.37
-3.82
-4.10
-4.26
-4.38
-4.57
-5.01
-5.84
-7.15
-8.86
-10.76
-12.50
-13.79
-14.40
-14.34
-13.75
-12.79
-11.55
-9.95
-7.85
-5.18
-2.01
1.34
4.49
7.08
8.97
10.24
11.15
11.89
12.57
13.14
13.48
13.50
13.26
12.87
12.54
12.37
12.37
12.48
12.58
12.57
12.40
12.03
11.42
10.61
9.68
8.76
8.05
7.59
7.36
7.13
6.68
5.82
4.59
3.17
1.80
0.64
-0.34
-1.27
-2.30
-3.47
-4.71
-5.93
-7.07
-8.17
-9.33
-10.68
-12.22
-13.90
-15.57
-17.06
-18.15
-18.57
-18.13
-16.69
-14.34
-11.40
-8.38
-5.72
-3.69
-2.21
-0.96
0.45
2.25
4.37
6.51
8.28
9.44
9.94
9.95
9.70
9.39
9.12
8.89
8.71
8.55
8.48
8.53
8.75
9.11
9.52
9.79
9.75
9.27
8.36
7.20
6.05
5.17
4.67
4.46
4.36
4.12
3.58
2.73
1.69
0.61
-0.37
-1.20
-1.96
-2.72
-3.60
-4.57
-5.57
-6.50
-7.30
-8.01
-8.77
-9.76
-11.08
-12.75
-14.58
-16.33
-17.63
-18.16
-17.68
-16.12
-13.68
-10.75
-7.89
-5.57
-4.06
-3.32
-3.04
-2.80
-2.28
-1.36
-0.13
1.11
2.14
2.77
3.01
2.97
2.82
2.68
2.61
2.58
2.49
2.30
2.00
1.70
1.52
1.60
1.98
2.59
3.27
3.83
4.11
4.01
3.53
2.73
1.73
0.67
-0.28
-1.01
-1.52
-1.87
-2.22
-2.69
-3.33
-4.12
-4.97
-5.87
-6.84
-8.00
-9.41
-11.11
-12.96
-14.79
-16.33
-17.33
-17.59
-17.02
-15.64
-13.64
-11.27
-8.82
-6.48
-4.33
-2.36
-0.48
1.37
3.12
4.63
5.73
6.33
6.42
6.10
5.54
4.86
4.16
3.47
2.87
2.43
2.31
2.61
3.31
4.27
5.24
5.94
6.18
5.91
5.17
4.16
3.07
2.16
1.59
1.44
1.60
1.83
1.87
1.45
0.55
-0.69
-2.01
-3.16
-4.08
-4.85
-5.63
-6.54
-7.59
-8.70
-9.86
-11.11
-12.52
-14.07
-15.56
-16.59
-16.73
-15.77
-13.79
-11.20
-8.54
-6.20
-4.36
-2.91
-1.65
-0.38
0.97
2.37
3.78
5.15
6.46
7.65
8.65
9.31
9.57
9.47
9.14
8.79
8.57
8.54
8.66
8.84
9.01
9.11
9.10
8.95
8.66
8.24
7.78
7.34
6.96
6.65
6.30
5.82
5.15
4.30
3.40
2.58
1.96
1.55
1.23
0.85
0.24
-0.65
-1.74
-2.87
-3.91
-4.85
-5.85
-7.11
-8.77
-10.76
-12.79
-14.40
-15.17
-14.87
-13.59
-11.68
-9.60
-7.74
-6.26
-5.06
-3.90
-2.54
-0.85
1.05
2.93
4.52
5.64
6.25
6.49
6.53
6.58
6.73
6.99
7.32
7.64
7.89
8.04
8.07
7.98
7.76
7.43
7.04
6.64
6.30
6.04
5.84
5.67
5.50
5.32
5.10
4.79
4.29
3.54
2.53
1.37
0.23
-0.73
-1.49
-2.15
-2.88
-3.86
-5.13
-6.63
-8.28
-9.99
-11.71
-13.33
-14.61
-15.25
-14.99
-13.83
-12.04
-10.11
-8.45
-7.20
-6.22
-5.13
-3.61
-1.60
0.65
2.76
4.37
5.38
5.92
6.22
6.50
6.85
7.24
7.58
7.81
7.93
8.03
8.21
8.52
8.91
9.24
9.35
9.11
8.57
7.83
7.14
6.68
6.54
6.68
6.87
6.89
6.52
5.75
4.66
3.45
2.35
1.48
0.88
0.42
-0.06
-0.74
-1.71
-3.00
-4.57
-6.37
-8.36
-10.47
-12.57
-14.41
-15.75
-16.38
-16.27
-15.48
-14.15
-12.38
-10.23
-7.75
-5.08
-2.42
-0.00
2.08
3.90
5.59
7.27
8.89
10.26
11.16
11.51
11.46
11.28
11.21
11.37
11.70
12.09
12.49
12.92
13.45
14.04
14.56
14.83
14.71
14.25
13.64
13.11
12.85
12.86
13.02
13.17
13.19
13.07
12.77
12.27
11.48
10.36
8.93
7.28
5.58
3.96
2.46
1.01
-0.50
-2.26
-4.41
-7.11
-10.37
-14.04
-17.66
-20.64
-22.41
-22.70
-21.70
-19.97
-18.19
-16.77
-15.79
-14.94
-13.84
-12.31
-10.45
-8.58
-7.07
-6.06
-5.49
-5.08
-4.56
-3.73
-2.59
-1.22
0.26
1.79
3.32
4.86
6.35
7.75
8.99
10.01
10.78
11.28
11.50
11.42
11.10
10.67
10.28
10.13
10.21
10.41
10.45
10.06
9.06
7.46
5.38
3.04
0.57
-1.97
-4.54
-7.14
-9.76
-12.42
-15.15
-18.03
-20.96
-23.70
-25.81
-26.83
-26.50
-24.87
-22.33
-19.44
-16.64
-14.12
-11.78
-9.38
-6.77
-3.99
-1.28
1.10
2.99
4.46
5.71
7.01
8.51
10.21
11.92
13.41
14.46
14.96
14.95
14.56
14.00
13.42
12.97
12.65
12.38
12.06
11.59
10.99
10.38
9.92
9.63
9.37
8.81
7.64
5.75
3.38
1.00
-0.91
-2.05
-2.47
-2.43
-2.33
-2.46
-3.02
-4.07
-5.61
-7.59
-9.90
-12.26
-14.33
-15.77
-16.32
-15.98
-14.89
-13.31
-11.47
-9.47
-7.34
-5.03
-2.58
-0.14
2.05
3.74
4.79
5.27
5.34
5.25
5.17
5.18
5.27
5.40
5.51
5.53
5.44
5.21
4.83
4.39
3.96
3.63
3.45
3.38
3.39
3.42
3.44
3.47
3.52
3.56
3.55
3.38
3.02
2.47
1.85
1.31
0.99
0.90
0.94
0.89
0.47
-0.45
-1.87
-3.65
-5.54
-7.29
-8.74
-9.91
-10.84
-11.72
-12.65
-13.63
-14.54
-15.13
-15.15
-14.44
-12.98
-10.88
-8.37
-5.67
-2.98
-0.47
1.79
3.69
5.22
6.36
7.14
7.59
7.79
7.78
7.59
7.26
6.81
6.30
5.86
5.67
5.83
6.34
7.08
7.80
8.28
8.38
8.12
7.61
6.95
6.20
5.35
4.44
3.58
2.91
2.54
2.43
2.38
2.10
1.32
-0.07
-2.02
-4.24
-6.40
-8.18
-9.45
-10.31
-11.03
-11.94
-13.22
-14.82
-16.43
-17.64
-18.09
-17.60
-16.24
-14.22
-11.78
-9.14
-6.41
-3.69
-1.13
1.15
3.03
4.45
5.48
6.28
7.04
7.84
8.62
9.23
9.54
9.49
9.21
8.90
8.74
8.78
8.97
9.22
9.48
9.78
10.11
10.38
10.42
10.07
9.25
8.06
6.73
5.46
4.36
3.42
2.59
1.83
1.11
0.40
-0.44
-1.54
-2.98
-4.66
-6.32
-7.66
-8.58
-9.27
-10.11
-11.53
-13.67
-16.32
-18.92
-20.80
-21.48
-20.79
-18.99
-16.54
-13.93
-11.52
-9.42
-7.49
-5.49
-3.23
-0.66
2.06
4.69
6.96
8.74
10.02
10.92
11.54
12.01
12.39
12.70
12.98
13.23
13.47
13.65
13.71
13.58
13.22
12.70
12.10
11.56
11.11
10.78
10.49
10.18
9.84
9.47
9.06
8.55
7.81
6.73
5.32
3.72
2.18
0.92
-0.04
-0.76
-1.49
-2.35
-3.44
-4.71
-6.11
-7.62
-9.22
-10.93
-12.61
-14.12
-15.29
-16.07
-16.47
-16.54
-16.25
-15.49
-14.12
-12.06
-9.47
-6.61
-3.83
-1.33
0.80
2.57
4.06
5.30
6.30
7.02
7.47
7.68
7.68
7.56
7.41
7.34
7.47
7.80
8.24
8.57
8.54
8.04
7.12
6.02
5.07
4.49
4.34
4.45
4.52
4.29
3.62
2.57
1.31
0.09
-0.98
-1.86
-2.63
-3.37
-4.13
-4.93
-5.79
-6.72
-7.80
-9.12
-10.70
-12.52
-14.49
-16.47
-18.27
-19.66
-20.37
-20.17
-18.95
-16.76
-13.85
-10.59
-7.35
-4.44
-1.98
0.10
1.91
3.62
5.33
7.06
8.70
10.09
11.10
11.62
11.71
11.53
11.32
11.26
11.38
11.57
11.61
11.43
11.09
10.86
11.02
11.69
12.76
13.85
14.57
14.64
14.12
13.26
12.41
11.84
11.61
11.61
11.60
11.40
10.86
10.01
8.95
7.87
6.95
6.27
5.80
5.32
4.66
3.60
2.09
0.22
-1.84
-3.86
-5.57
-6.72
-7.07
-6.50
-5.02
-2.82
-0.26
2.36
4.86
7.25
9.66
12.13
14.60
16.90
18.86
20.44
21.82
23.24
24.87
26.73
28.64
30.42
31.95
33.29
34.51
35.64
36.53
36.98
36.84
36.03
34.63
32.64
30.03
26.69
22.50
17.45
11.67
5.41
-1.07
-7.44
-13.44
-18.77
-23.18
-26.48
-28.58
-29.55
-29.57
-28.86
-27.71
-26.42
-25.35
-24.81
-24.99
-25.90
-27.35
-29.00
-30.48
-31.48
-31.82
-31.42
-30.32
-28.57
-26.29
-23.57
-20.47
-17.10
-13.54
-9.94
-6.49
-3.39
-0.79
1.27
2.77
3.82
4.45
4.73
4.65
4.25
3.58
2.73
1.84
1.04
0.46
0.14
0.10
0.23
0.41
0.47
0.29
-0.15
-0.77
-1.39
-1.86
-2.12
-2.28
-2.59
-3.30
-4.51
-6.14
-7.91
-9.47
-10.61
-11.30
-11.69
-12.03
-12.53
-13.30
-14.38
-15.81
-17.62
-19.90
-22.64
-25.71
-28.80
-31.51
-33.42
-34.20
-33.69
-31.93
-29.13
-25.58
-21.57
-17.35
-13.12
-8.99
-5.09
-1.44
1.91
4.92
7.53
9.64
11.17
12.01
12.22
11.95
11.45
10.99
10.77
10.83
11.05
11.32
11.48
11.51
11.48
11.51
11.68
11.99
12.34
12.53
12.43
11.94
11.15
10.20
9.16
8.04
6.71
5.05
3.04
0.84
-1.20
-2.74
-3.58
-3.86
-3.92
-4.26
-5.27
-7.13
-9.74
-12.87
-16.16
-19.24
-21.69
-23.08
-23.10
-21.59
-18.76
-15.06
-11.19
-7.68
-4.83
-2.57
-0.58
1.46
3.71
6.05
8.23
9.95
11.10
11.75
12.10
12.40
12.72
12.95
12.89
12.39
11.49
10.47
9.71
9.42
9.59
9.94
10.10
9.82
9.13
8.27
7.49
6.87
6.25
5.43
4.26
2.83
1.40
0.27
-0.43
-0.76
-0.96
-1.23
-1.67
-2.21
-2.76
-3.27
-3.84
-4.69
-5.99
-7.84
-10.14
-12.68
-15.26
-17.74
-20.05
-22.06
-23.56
-24.21
-23.67
-21.77
-18.63
-14.63
-10.29
-6.15
-2.56
0.31
2.56
4.38
6.03
7.72
9.54
11.42
13.12
14.38
14.98
14.92
14.35
13.51
12.67
11.96
11.41
10.96
10.54
10.12
9.68
9.17
8.56
7.81
6.88
5.82
4.66
3.48
2.26
1.04
-0.19
-1.40
-2.49
-3.40
-4.08
-4.57
-4.96
-5.42
-6.07
-6.95
-8.02
-9.20
-10.45
-11.81
-13.40
-15.25
-17.32
-19.34
-20.93
-21.74
-21.45
-19.95
-17.29
-13.67
-9.41
-4.88
-0.48
3.47
6.79
9.42
11.40
12.79
13.62
13.90
13.63
12.89
11.77
10.37
8.81
7.09
5.22
3.19
1.07
-1.06
-3.08
-4.84
-6.19
-6.93
-6.99
-6.40
-5.41
-4.41
-3.80
-3.75
-4.18
-4.75
-5.12
-5.15
-4.93
-4.84
-5.23
-6.24
-7.73
-9.30
-10.54
-11.19
-11.30
-11.14
-11.14
-11.70
-12.97
-14.84
-16.96
-18.88
-20.15
-20.55
-20.00
-18.62
-16.57
-14.06
-11.33
-8.59
-6.03
-3.77
-1.77
0.10
2.00
3.98
5.94
7.72
9.16
10.19
10.94
11.62
12.47
13.54
14.77
15.91
16.77
17.27
17.50
17.69
18.02
18.52
19.02
19.21
18.83
17.81
16.33
14.80
13.61
12.95
12.76
12.73
12.51
11.77
10.43
8.56
6.39
4.20
2.22
0.59
-0.69
-1.72
-2.73
-3.98
-5.76
-8.21
-11.24
-14.50
-17.43
-19.43
-20.04
-19.14
-16.90
-13.80
-10.34
-6.94
-3.82
-0.99
1.53
3.82
5.86
7.63
9.14
10.37
11.33
11.98
12.35
12.43
12.29
11.94
11.41
10.70
9.84
8.90
7.97
7.20
6.59
6.12
5.66
5.14
4.53
3.93
3.50
3.26
3.23
3.31
3.36
3.23
2.76
1.82
0.38
-1.49
-3.58
-5.57
-7.20
-8.35
-9.15
-9.89
-10.91
-12.45
-14.52
-16.98
-19.46
-21.62
-23.19
-23.99
-23.96
-23.08
-21.37
-18.81
-15.48
-11.54
-7.33
-3.21
0.44
3.44
5.76
7.55
9.03
10.31
11.43
12.28
12.75
12.77
12.38
11.77
11.21
10.92
11.03
11.46
11.98
12.26
12.09
11.43
10.46
9.48
8.69
8.15
7.73
7.22
6.44
5.35
3.96
2.35
0.57
-1.35
-3.29
-5.10
-6.60
-7.69
-8.41
-8.94
-9.54
-10.42
-11.70
-13.39
-15.41
-17.61
-19.73
-21.47
-22.40
-22.21
-20.72
-18.01
-14.41
-10.34
-6.23
-2.34
1.21
4.42
7.33
10.00
12.41
14.52
16.28
17.65
18.59
19.13
19.31
19.13
18.65
17.90
17.02
16.23
15.74
15.70
16.06
16.57
16.83
16.51
15.50
13.98
12.30
10.84
9.82
9.21
8.79
8.25
7.38
6.15
4.65
3.09
1.59
0.13
-1.43
-3.25
-5.40
-7.75
-10.05
-12.00
-13.44
-14.43
-15.25
-16.28
-17.78
-19.84
-22.22
-24.43
-25.89
-26.09
-24.79
-22.08
-18.38
-14.23
-10.13
-6.35
-2.97
0.08
2.85
5.30
7.38
9.07
10.45
11.58
12.49
13.10
13.25
12.91
12.18
11.35
10.74
10.49
10.52
10.59
10.42
9.89
9.12
8.31
7.63
7.13
6.71
6.22
5.56
4.76
3.93
3.19
2.55
1.87
0.94
-0.43
-2.25
-4.32
-6.33
-7.95
-9.05
-9.79
-10.48
-11.50
-13.08
-15.23
-17.75
-20.37
-22.81
-24.87
-26.36
-27.11
-26.93
-25.69
-23.40
-20.17
-16.24
-11.91
-7.44
-3.09
0.99
4.64
7.73
10.17
11.92
12.99
13.49
13.55
13.33
12.96
12.54
12.11
11.65
11.17
10.67
10.21
9.84
9.65
9.69
10.00
10.51
11.06
11.42
11.37
10.81
9.75
8.39
6.92
5.51
4.23
3.08
1.96
0.80
-0.45
-1.77
-3.09
-4.29
-5.27
-6.06
-6.92
-8.18
-10.18
-12.97
-16.26
-19.51
-22.17
-23.87
-24.53
-24.26
-23.20
-21.37
-18.75
-15.30
-11.21
-6.83
-2.57
1.25
4.51
7.28
9.75
12.01
14.04
15.73
16.95
17.68
18.04
18.15
18.10
17.84
17.25
16.27
15.01
13.72
12.72
12.17
12.01
12.00
11.83
11.31
10.46
9.41
8.33
7.31
6.35
5.37
4.28
3.04
1.64
0.20
-1.19
-2.41
-3.48
-4.50
-5.61
-6.96
-8.62
-10.53
-12.53
-14.54
-16.50
-18.48
-20.51
-22.60
-24.59
-26.23
-27.17
-27.13
-25.87
-23.33
-19.66
-15.17
-10.31
-5.55
-1.22
2.58
5.93
8.97
11.77
14.23
16.12
17.25
17.59
17.29
16.66
15.96
15.29
14.64
13.96
13.28
12.68
12.28
12.05
11.85
11.43
10.65
9.56
8.41
7.44
6.74
6.18
5.48
4.42
2.95
1.22
-0.51
-2.04
-3.29
-4.35
-5.38
-6.52
-7.81
-9.19
-10.54
-11.80
-12.98
-14.22
-15.70
-17.61
-19.99
-22.64
-25.17
-27.06
-27.83
-27.20
-25.15
-21.93
-17.93
-13.55
-9.13
-4.89
-0.94
2.72
6.07
9.08
11.66
13.65
14.92
15.40
15.16
14.43
13.56
12.81
12.28
11.87
11.36
10.63
9.77
9.06
8.80
9.07
9.65
10.13
10.07
9.23
7.66
5.63
3.53
1.70
0.35
-0.46
-0.80
-0.85
-0.89
-1.23
-2.08
-3.53
-5.43
-7.52
-9.49
-11.13
-12.45
-13.63
-15.02
-16.92
-19.48
-22.55
-25.67
-28.20
-29.52
-29.27
-27.44
-24.30
-20.29
-15.80
-11.08
-6.29
-1.59
2.84
6.73
9.87
12.17
13.74
14.86
15.89
17.06
18.43
19.85
20.99
21.58
21.47
20.78
19.79
18.81
18.04
17.48
17.05
16.61
16.12
15.62
15.17
14.71
14.09
13.11
11.67
9.85
7.87
6.02
4.48
3.27
2.24
1.19
-0.00
-1.39
-2.88
-4.33
-5.64
-6.78
-7.84
-8.99
-10.48
-12.48
-15.07
-18.09
-21.19
-23.93
-25.84
-26.63
-26.21
-24.65
-22.08
-18.64
-14.49
-9.85
-5.01
-0.34
3.83
7.33
10.21
12.67
14.87
16.88
18.57
19.77
20.30
20.16
19.53
18.60
17.64
16.76
16.06
15.54
15.25
15.17
15.24
15.28
15.08
14.45
13.32
11.78
10.03
8.34
6.90
5.80
5.01
4.40
3.78
2.98
1.86
0.40
-1.33
-3.14
-4.87
-6.41
-7.77
-9.00
-10.26
-11.64
-13.30
-15.38
-17.94
-20.97
-24.22
-27.29
-29.67
-30.93
-30.80
-29.25
-26.46
-22.68
-18.22
-13.39
-8.48
-3.75
0.63
4.52
7.91
10.75
13.02
14.66
15.68
16.13
16.16
15.83
15.20
14.28
13.11
11.83
10.68
9.91
9.65
9.86
10.33
10.79
11.03
10.97
10.64
10.12
9.43
8.55
7.45
6.14
4.70
3.24
1.85
0.56
-0.68
-1.96
-3.30
-4.62
-5.82
-6.80
-7.66
-8.65
-10.09
-12.20
-14.99
-18.18
-21.38
-24.14
-26.14
-27.18
-27.18
-26.10
-23.95
-20.84
-17.02
-12.80
-8.51
-4.38
-0.49
3.21
6.80
10.30
13.64
16.66
19.15
20.96
22.01
22.36
22.14
21.51
20.61
19.50
18.27
17.04
16.03
15.50
15.58
16.15
16.84
17.14
16.64
15.24
13.19
10.96
9.03
7.69
6.97
6.62
6.33
5.77
4.80
3.45
1.88
0.32
-1.08
-2.24
-3.27
-4.32
-5.52
-6.97
-8.65
-10.50
-12.47
-14.59
-16.92
-19.50
-22.26
-25.03
-27.51
-29.28
-29.94
-29.16
-26.82
-23.03
-18.19
-12.83
-7.50
-2.57
1.80
5.68
9.24
12.58
15.69
18.32
20.24
21.24
21.36
20.84
20.01
19.21
18.61
18.27
18.10
18.01
17.88
17.63
17.17
16.46
15.46
14.19
12.71
11.15
9.62
8.19
6.88
5.66
4.51
3.46
2.52
1.72
0.99
0.22
-0.73
-1.96
-3.47
-5.17
-6.84
-8.31
-9.47
-10.37
-11.19
-12.18
-13.57
-15.47
-17.85
-20.49
-23.07
-25.25
-26.80
-27.56
-27.48
-26.56
-24.86
-22.49
-19.57
-16.39
-13.23
-10.44
-8.14
-6.26
-4.55
-2.81
-0.97
0.82
2.17
2.67
1.88
-0.19
-3.16
-6.48
-9.76
-12.83
-15.74
-18.72
-22.04
-26.13
-31.27
-37.62
-45.42
-54.84
-65.51
-76.20
-85.06
-90.15
-90.61
-86.52
-79.00
-69.62
-59.85
-50.40
-41.23
-32.16
-23.27
-17.30
-17.73
-26.22
-40.89
-57.75
-73.25
-85.60
-94.94
-101.45
-106.72
-111.33
-114.81
-116.09
-114.11
-108.03
-97.17
-83.25
-67.58
-51.52
-35.67
-19.94
-3.87
13.01
31.15
51.07
73.22
98.02
124.69
151.38
175.07
192.32
200.48
198.84
188.97
174.00
157.45
141.57
127.05
113.48
100.25
87.40
75.82
66.83
61.40
59.67
60.74
63.20
65.65
67.16
67.39
66.35
64.12
60.75
56.52
52.17
49.07
48.81
52.31
58.83
65.58
68.54
64.36
52.42
35.47
18.54
6.30
0.93
1.36
4.46
6.98
7.10
4.35
-1.50
-11.40
-26.81
-48.14
-73.10
-96.30
-111.04
-112.37
-99.71
-77.72
-54.49
-38.43
-35.31
-46.60
-69.25
-97.11
-122.99
-140.42
-144.85
-134.23
-109.38
-73.86
-33.37
5.19
35.32
52.54
55.72
47.09
31.27
13.58
-1.74
-12.45
-18.50
-21.30
-22.79
-24.56
-27.67
-32.58
-39.28
-47.17
-54.85
-60.73
-63.60
-63.04
-59.68
-54.78
-49.22
-42.61
-33.24
-18.45
3.05
29.89
58.29
83.84
103.50
116.51
124.53
129.97
136.02
144.11
153.76
163.45
171.78
177.91
181.11
181.44
179.35
178.10
180.66
188.27
199.69
211.51
219.25
217.96
204.83
179.28
145.86
109.92
75.46
44.67
18.43
-2.66
-18.55
-28.25
-48.42
-86.77
-140.07
-196.87
-246.51
-284.47
-306.56
-318.34
-323.95
-326.55
-325.61
-320.17
-312.35
-303.02
-292.13
-279.06
-264.49
-249.29
-235.40
-222.63
-210.68
-199.64
-189.69
-181.05
-173.52
-166.93
-160.03
-151.63
-139.59
-122.93
-102.03
-78.04
-52.20
-25.02
3.33
33.41
65.40
99.61
135.61
172.32
208.63
243.71
277.35
309.93
342.88
378.09
417.33
460.63
504.91
543.76
568.83
572.59
551.31
506.87
446.02
377.78
310.11
247.67
191.54
140.56
93.11
48.24
5.40
-36.14
-77.52
-119.42
-160.69
-197.56
-224.16
-234.50
-225.02
-196.32
-153.36
-103.95
-56.40
-17.27
9.76
23.97
26.80
20.86
9.11
-5.57
-20.55
-33.62
-43.05
-47.74
-47.31
-42.02
-32.74
-20.69
-7.28
6.01
17.72
26.43
30.84
29.95
23.47
11.97
-3.17
-20.14
-37.27
-53.51
-68.55
-82.72
-96.50
-110.20
-123.81
-137.11
-149.87
-162.02
-173.56
-184.47
-194.43
-202.80
-208.88
-212.19
-212.81
-211.38
-208.72
-205.47
-201.68
-196.75
-189.52
-178.82
-163.88
-144.65
-121.77
-96.14
-68.36
-38.25
-4.94
32.60
74.60
119.57
164.01
203.33
233.41
252.02
259.62
258.86
253.62
247.81
244.44
245.07
249.97
258.31
267.92
275.36
276.35
266.86
244.69
210.07
165.31
114.31
61.78
11.89
-32.30
-69.07
-97.65
-117.45
-128.35
-131.57
-129.24
-123.96
-118.17
-113.26
-108.98
-103.27
-92.65
-72.49
-42.98
-11.22
12.27
20.47
13.76
-0.90
-16.43
-26.80
-28.41
-20.94
-6.19
14.46
37.88
59.65
74.26
76.20
61.71
29.64
-18.31
-77.48
-141.17
-201.82
-252.44
-288.43
-308.11
-312.25
-303.46
-285.44
-261.47
-233.69
-202.50
-167.59
-129.84
-92.01
-57.80
-30.26
-10.54
6.63
25.08
47.26
73.02
98.48
117.18
122.86
112.61
89.49
59.52
30.24
9.32
2.23
9.95
28.97
52.99
76.12
92.47
98.46
93.38
77.67
55.46
33.17
16.40
7.06
3.45
1.39
-3.07
-12.30
-25.39
-37.73
-43.70
-37.89
-17.63
15.50
54.71
90.17
112.56
116.60
102.80
76.17
44.02
11.55
-14.83
-30.92
-35.27
-29.22
-16.17
-0.53
13.27
22.28
25.92
26.53
27.81
33.33
44.83
60.93
76.98
86.05
81.74
61.15
27.35
-11.08
-42.30
-55.34
-44.29
-10.59
37.34
87.15
126.61
146.96
143.93
117.26
69.62
5.96
-66.48
-138.17
-198.07
-236.11
-246.25
-229.18
-192.44
-148.05
-108.13
-80.76
-67.77
-65.21
-66.09
-63.78
-54.41
-37.77
-16.46
5.73
25.22
39.54
47.48
48.80
43.82
33.35
18.71
1.85
-14.77
-28.43
-36.84
-38.68
-34.00
-23.93
-10.21
5.37
21.15
35.46
46.55
53.19
55.73
56.64
59.83
68.51
82.74
98.22
107.57
103.36
81.84
45.01
0.03
-43.55
-77.05
-94.76
-94.32
-76.37
-44.19
-4.02
34.90
61.12
63.77
36.30
-20.37
-97.03
-178.63
-248.91
-295.76
-314.65
-308.74
-286.31
-256.62
-226.47
-198.69
-172.68
-146.12
-116.42
-81.56
-40.60
5.57
53.38
96.92
129.62
146.88
148.14
136.92
119.16
101.06
86.82
77.85
73.17
70.53
67.49
62.14
53.42
41.53
28.59
17.31
10.12
8.65
13.91
26.59
46.43
71.10
96.03
116.60
128.79
131.74
129.18
128.59
137.52
158.89
188.44
217.18
237.70
244.89
236.78
213.75
178.10
134.15
87.67
45.17
14.02
3.19
17.28
53.85
104.10
156.97
204.12
241.29
267.72
265.20
225.47
154.51
70.67
-7.26
-68.75
-110.72
-130.94
-136.93
-135.26
-128.18
-117.31
-104.87
-93.39
-87.55
-87.60
-95.62
-112.67
-138.46
-168.93
-197.56
-215.93
-216.11
-193.70
-150.50
-93.55
-34.47
14.48
45.27
54.95
45.23
20.63
-17.50
-63.21
-109.59
-150.30
-179.63
-192.81
-187.65
-165.64
-131.91
-93.67
-57.01
-26.11
-2.29
16.05
32.24
49.21
67.88
86.76
102.97
114.52
120.64
122.17
120.93
118.67
116.24
113.48
109.73
104.80
99.78
96.33
95.91
99.18
105.72
114.16
122.44
128.01
128.11
120.41
103.66
78.53
48.10
17.39
-8.08
-24.04
-28.66
-22.89
-9.79
6.06
19.33
24.60
17.55
-3.24
-34.59
-68.50
-94.28
-102.71
-90.19
-60.62
-23.98
7.78
25.23
24.18
5.69
-25.65
-64.08
-103.97
-140.34
-169.05
-187.39
-195.04
-194.47
-190.36
-187.80
-190.30
-198.60
-210.82
-223.59
-233.59
-238.61
-237.92
-232.43
-224.42
-217.25
-214.52
-218.81
-230.22
-245.50
-258.58
-262.36
-251.33
-223.53
-181.03
-128.44
-70.80
-11.85
46.27
101.95
152.88
195.70
227.02
245.01
250.55
246.92
238.32
228.06
217.59
206.94
195.93
185.42
177.35
173.88
175.98
182.60
190.88
197.24
198.63
193.23
180.52
161.03
136.23
108.63
81.89
60.32
47.70
45.67
52.65
64.00
73.60
76.18
69.38
54.39
35.02
15.73
-0.18
-11.41
-18.13
-21.04
-20.59
-17.05
-11.24
-5.19
-2.27
-6.22
-19.71
-43.11
-74.06
-108.15
-140.17
-165.63
-182.00
-189.35
-190.44
-189.91
-192.77
-202.22
-217.98
-235.64
-247.83
-246.67
-226.61
-186.37
-129.56
-63.41
3.38
62.98
110.11
142.65
161.24
168.15
166.24
158.12
146.04
132.32
119.60
110.77
108.28
113.10
124.09
138.27
151.96
162.30
168.35
171.13
172.75
175.15
179.12
183.83
187.35
187.29
181.65
169.32
150.55
127.36
103.56
84.17
74.06
76.16
89.84
110.38
130.10
140.99
137.85
120.14
92.06
60.58
33.29
16.19
12.25
20.81
37.90
57.47
73.09
79.66
74.03
56.22
29.04
-3.34
-37.36
-71.03
-103.39
-133.42
-159.44
-180.77
-196.88
-207.57
-213.17
-214.74
-213.64
-210.50
-204.73
-195.06
-182.49
-168.09
-152.23
-134.46
-115.00
-95.92
-80.68
-72.87
-75.06
-90.53
-119.50
-158.61
-202.08
-244.44
-282.22
-312.82
-333.44
-322.23
-267.26
-174.29
-64.92
37.74
119.12
173.01
198.86
201.98
187.00
155.64
110.73
57.21
1.10
-49.41
-88.24
-111.69
-117.99
-107.26
-83.19
-50.15
-11.93
28.64
68.76
104.50
132.06
149.17
156.12
154.80
149.16
143.70
141.23
141.18
139.29
130.19
110.24
78.96
38.66
-6.05
-49.66
-86.84
-113.15
-125.49
-121.85
-101.64
-66.45
-20.84
28.40
73.84
109.70
133.61
146.94
153.73
158.26
162.73
165.91
163.60
150.81
124.36
84.98
37.80
-8.96
-46.89
-70.63
-79.88
-79.34
-76.28
-76.89
-83.16
-92.10
-97.68
-94.51
-81.17
-61.19
-41.31
-28.18
-25.72
-34.18
-51.18
-73.16
-96.07
-115.05
-124.12
-117.41
-91.89
-50.24
-1.47
41.77
68.22
72.82
58.36
33.31
7.22
-13.38
-26.39
-32.90
-34.74
-32.79
-27.14
-18.38
-8.56
-1.03
1.07
-3.45
-12.93
-23.62
-31.15
-32.34
-26.49
-15.50
-3.20
6.22
9.79
6.96
-0.14
-7.68
-11.79
-10.47
-4.52
2.72
6.83
4.53
-4.67
-17.82
-29.41
-33.59
-26.60
-8.54
16.33
41.02
58.19
62.55
52.40
29.66
-1.12
-34.27
-64.19
-86.02
-95.83
-91.13
-71.70
-40.40
-3.35
31.29
55.80
65.65
61.22
47.50
31.97
21.37
19.08
23.98
31.22
34.40
28.14
10.03
-18.53
-52.96
-87.09
-114.97
-132.42
-137.70
-131.39
-115.95
-95.23
-73.81
-56.12
-45.11
-40.67
-38.86
-32.62
-14.61
18.81
64.62
112.99
150.80
167.62
161.05
138.39
113.33
99.38
103.19
121.60
143.77
157.09
153.44
132.24
98.99
60.75
21.59
-18.91
-63.52
-113.43
-165.21
-210.88
-241.06
-249.33
-235.00
-202.77
-160.09
-113.58
-67.21
-22.72
18.35
52.82
75.82
82.70
71.63
45.21
9.99
-25.90
-55.84
-76.85
-89.87
-98.32
-105.96
-115.14
-126.08
-137.34
-146.63
-151.72
-150.61
-141.72
-124.07
-97.96
-65.76
-31.93
-1.82
20.67
35.24
45.91
59.63
82.98
118.68
163.76
210.42
249.10
272.26
276.80
264.24
238.84
205.37
167.57
128.23
90.08
56.60
31.85
19.11
19.37
30.44
47.62
65.45
79.69
88.49
92.21
92.31
90.26
87.07
83.48
80.36
78.76
79.47
82.07
84.52
83.40
74.99
57.06
30.12
-2.09
-33.64
-58.30
-71.82
-73.29
-65.18
-52.06
-38.59
-27.91
-20.99
-17.13
-15.15
-14.34
-14.77
-16.89
-20.84
-26.13
-31.86
-37.11
-41.38
-44.58
-46.58
-46.98
-44.97
-39.74
-31.04
-19.70
-7.57
2.93
9.70
11.78
9.70
5.35
1.20
-0.68
0.59
4.49
9.45
13.61
15.65
15.21
12.80
9.41
6.05
3.46
2.12
2.31
4.20
7.67
12.12
16.36
18.79
17.92
13.01
4.62
-5.34
-14.01
-18.53
-17.09
-9.63
1.77
13.52
21.43
22.31
15.19
2.07
-12.52
-22.93
-24.55
-15.71
1.39
21.45
37.87
45.33
41.89
29.72
14.07
0.97
-5.30
-3.82
3.06
10.89
15.27
13.74
6.66
-2.99
-10.94
-13.32
-8.04
4.78
21.79
36.61
41.30
29.23
-1.33
-44.69
-88.04
-115.37
-113.13
-77.66
-17.78
47.95
98.77
119.71
106.28
64.74
8.41
-45.53
-82.94
-96.36
-86.14
-59.29
-26.90
-0.76
10.56
4.72
-10.76
-24.63
-27.43
-15.37
9.67
43.13
81.00
121.83
166.50
219.87
283.08
350.68
411.79
455.31
475.14
472.07
452.68
401.81
315.84
204.46
87.34
-17.93
-103.28
-167.95
-213.63
-242.36
-257.08
-258.51
-249.96
-237.22
-226.36
-220.33
-217.46
-213.88
-205.48
-191.64
-173.06
-154.20
-141.49
-140.17
-150.96
-169.09
-186.17
-193.91
-187.54
-165.13
-129.22
-85.52
-40.59
0.64
33.99
57.61
71.52
76.62
75.15
69.43
61.54
53.11
45.33
38.88
33.97
30.27
27.02
23.81
20.55
17.23
13.61
9.07
2.76
-5.92
-17.09
-30.19
-43.98
-56.69
-66.52
-72.19
-73.28
-70.35
-64.48
-57.04
-49.20
-41.70
-34.58
-27.29
-19.03
-9.25
1.94
13.56
24.03
31.76
35.80
36.35
34.61
32.12
30.05
28.55
26.90
24.04
19.27
12.76
5.49
-1.28
-6.73
-10.83
-14.28
-17.98
-22.52
-27.86
-33.44
-38.53
-42.60
-45.60
-47.78
-49.46
-50.80
-51.66
-51.73
-50.70
-48.37
-44.65
-39.47
-32.76
-24.55
-15.19
-5.52
3.26
9.93
13.79
14.93
14.06
12.07
9.35
5.57
0.01
-7.83
-17.54
-27.68
-36.21
-41.37
-42.48
-40.21
-36.31
-32.96
-31.99
-34.35
-39.95
-47.72
-56.05
-63.31
-68.27
-70.48
-70.44
-69.37
-68.74
-69.62
-72.25
-75.70
-78.07
-77.06
-70.80
-58.78
-42.45
-25.04
-10.63
-2.65
-2.49
-8.77
-17.53
-23.56
-22.54
-12.57
5.32
28.22
53.05
78.24
104.34
133.71
168.93
210.53
255.79
299.13
334.00
355.08
359.72
348.19
323.46
290.36
253.85
217.87
184.91
156.01
130.43
105.51
77.02
41.58
-0.86
-46.23
-87.47
-116.77
-128.44
-120.97
-96.37
-62.48
-30.67
-8.91
2.29
7.56
12.25
20.00
32.35
49.80
69.95
88.98
102.49
106.17
97.07
74.57
40.30
-2.66
-49.24
-92.27
-123.25
-133.96
-119.77
-82.90
-33.33
13.95
44.47
49.97
31.09
-3.56
-42.07
-74.79
-97.98
-113.71
-127.10
-143.12
-164.61
-192.10
-224.23
-258.08
-289.62
-314.46
-328.57
-329.14
-315.35
-288.92
-253.89
-215.67
-179.46
-148.77
-124.52
-104.85
-85.98
-63.90
-36.06
-2.59
33.81
69.00
99.18
122.07
137.37
146.12
149.70
149.21
145.30
138.75
130.87
123.51
118.38
116.18
115.96
115.08
110.06
97.80
76.85
48.26
15.66
-15.39
-38.92
-50.44
-48.59
-35.77
-17.40
0.05
11.61
15.44
13.01
7.65
2.42
-1.41
-4.63
-8.97
-15.58
-24.05
-32.56
-38.98
-42.10
-42.31
-41.38
-41.62
-44.91
-52.21
-63.57
-78.48
-96.15
-115.68
-135.87
-155.06
-171.11
-181.49
-183.89
-176.71
-159.72
-134.27
-102.96
-68.84
-34.29
-0.05
35.03
73.29
116.62
164.88
215.08
261.79
298.80
321.16
326.80
316.89
294.91
265.11
231.21
195.86
161.10
128.99
101.88
81.86
69.93
65.20
65.00
65.68
63.64
56.03
41.08
18.30
-11.46
-45.75
-80.35
-109.87
-129.03
-134.63
-127.01
-110.25
-90.84
-75.05
-66.43
-64.46
-65.17
-63.17
-54.25
-37.18
-14.00
11.00
33.09
48.58
55.42
52.85
40.84
19.83
-8.92
-42.72
-77.30
-107.53
-129.02
-139.82
-141.40
-138.01
-134.68
-134.74
-138.00
-140.72
-137.32
-123.04
-96.29
-59.64
-19.06
17.88
44.32
55.75
50.67
30.54
-1.00
-39.00
-78.26
-114.01
-142.46
-160.94
-167.85
-162.61
-145.72
-118.77
-84.20
-44.78
-2.55
41.91
89.48
141.30
197.06
253.80
306.19
348.29
375.81
387.66
385.76
373.51
353.89
328.49
297.79
262.10
222.32
180.03
137.00
94.76
54.49
17.39
-15.03
-41.06
-59.38
-69.80
-73.50
-72.44
-68.68
-63.67
-58.13
-52.25
-46.24
-40.55
-35.79
-32.40
-29.73
-26.01
-19.26
-8.75
4.11
16.20
24.06
25.57
20.31
10.20
-1.48
-11.75
-19.41
-25.35
-31.75
-41.01
-54.69
-73.50
-95.61
-116.78
-131.85
-137.35
-133.10
-122.14
-109.36
-99.75
-97.95
-105.61
-121.04
-140.20
-158.30
-170.99
-174.83
-168.01
-144.31
-105.12
-59.48
-19.00
9.83
27.24
36.72
41.91
45.08
47.32
48.11
48.17
49.14
52.95
60.96
72.49
86.10
100.25
113.95
126.10
137.60
150.40
166.51
186.33
207.89
227.59
241.41
246.35
236.73
211.64
173.38
126.23
74.87
23.58
-23.58
-62.79
-90.94
-106.97
-111.70
-108.60
-102.57
-98.04
-97.06
-98.25
-97.57
-90.30
-73.46
-46.67
-12.91
22.75
54.68
78.16
90.37
90.72
80.68
63.35
42.89
23.02
6.13
-6.98
-16.78
-24.22
-30.17
-35.39
-41.25
-49.87
-64.08
-85.81
-114.27
-145.01
-170.97
-185.19
-183.73
-167.17
-140.22
-109.66
-81.96
-61.78
-51.51
-51.54
-60.78
-76.86
-96.52
-115.94
-131.40
-139.94
-139.94
-131.22
-115.08
-94.25
-72.66
-54.81
-44.43
-43.12
-49.48
-59.51
-68.16
-71.34
-67.49
-57.79
-45.29
-33.27
-23.82
-17.25
-12.44
-7.76
-2.11
4.34
10.22
13.70
13.51
9.83
4.37
-0.17
-1.08
3.46
13.76
28.60
45.59
61.80
74.31
80.90
80.48
73.51
61.90
48.40
35.49
24.53
15.80
9.17
5.28
6.06
14.44
32.69
60.81
95.40
130.13
157.85
172.70
171.25
152.54
117.54
68.72
10.05
-52.44
-110.82
-155.89
-179.90
-179.06
-154.81
-112.66
-60.34
-5.89
43.78
83.01
108.71
120.01
118.87
110.02
100.45
96.99
103.39
118.63
133.66
138.13
124.73
93.57
50.62
4.08
-38.37
-72.05
-91.32
-90.75
-66.74
-21.40
38.41
98.59
143.92
164.09
157.39
130.60
91.44
52.27
23.32
7.37
-0.31
-5.47
-10.12
-12.58
-10.32
-4.38
2.50
5.10
-1.44
-19.60
-48.20
-82.96
-118.61
-150.56
-171.19
-175.50
-162.41
-135.25
-101.23
-69.01
-45.88
-35.25
-35.65
-41.90
-48.42
-52.43
-55.34
-61.80
-76.80
-102.61
-137.20
-174.34
-205.52
-223.10
-222.60
-203.59
-169.44
-125.99
-79.59
-35.82
1.43
30.20
49.78
60.73
65.38
67.87
73.43
86.96
111.22
145.12
183.58
218.98
244.31
256.52
257.29
250.90
241.35
230.10
215.25
192.80
159.03
113.18
59.46
6.09
-38.12
-66.54
-76.40
-69.22
-49.68
-24.11
-2.00
9.35
10.17
5.82
0.84
-4.03
-10.72
-20.46
-31.87
-41.36
-44.26
-37.20
-20.67
1.42
23.99
41.50
50.87
51.93
46.91
39.74
34.73
34.08
37.80
44.22
49.97
52.63
51.71
48.04
40.68
30.21
17.60
4.59
-8.41
-25.23
-49.21
-81.84
-123.03
-167.80
-209.08
-240.27
-256.58
-248.07
-215.97
-172.48
-132.37
-102.41
-82.78
-62.20
-34.03
1.09
37.30
66.97
84.48
89.98
85.95
75.95
62.94
46.80
26.49
2.46
-22.67
-44.46
-57.41
-57.75
-45.99
-27.05
-8.93
1.37
0.31
-12.52
-33.31
-55.27
-71.80
-79.11
-77.01
-68.77
-58.63
-49.95
-44.41
-41.40
-38.30
-32.08
-20.69
-4.01
15.96
36.32
54.54
69.29
80.78
90.41
99.65
109.21
118.70
126.72
131.62
131.95
126.88
116.41
101.52
84.04
66.41
51.15
40.22
34.63
34.30
38.26
45.05
53.16
61.23
68.07
72.68
74.11
71.56
64.58
53.54
39.94
26.21
14.98
7.82
4.45
2.69
-0.38
-7.12
-18.22
-32.76
-48.80
-64.15
-76.86
-85.16
-87.56
-83.21
-72.60
-58.11
-43.61
-33.26
-29.93
-34.13
-44.06
-56.57
-68.51
-77.62
-82.70
-83.31
-79.50
-71.66
-60.61
-47.58
-34.25
-22.38
-13.47
-8.31
-6.80
-8.05
-10.64
-13.19
-14.76
-15.11
-14.70
-14.33
-14.69
-16.12
-18.64
-22.04
-26.02
-30.18
-33.93
-36.28
-35.97
-32.04
-24.39
-14.15
-3.33
5.92
12.26
15.63
17.15
18.24
19.86
21.99
23.81
24.37
23.21
20.71
17.82
15.68
15.03
15.93
17.93
20.34
22.56
24.34
25.84
27.39
29.35
31.72
34.20
36.31
37.59
37.81
37.12
35.92
34.81
34.30
34.64
35.81
37.60
39.77
42.20
44.79
47.45
50.10
52.54
54.45
55.48
55.49
54.62
53.39
52.39
52.09
52.82
54.34
55.88
56.35
55.03
51.99
48.17
44.64
41.93
40.21
38.69
35.89
30.21
20.69
7.38
-8.54
-25.62
-42.58
-57.51
-68.97
-76.45
-80.57
-82.61
-83.75
-84.00
-82.68
-78.47
-68.40
-49.85
-22.04
13.06
51.02
86.26
114.23
131.50
129.41
103.75
57.80
2.17
-50.94
-91.78
-118.56
-129.66
-124.29
-103.74
-69.53
-26.69
17.99
57.90
88.26
106.69
113.35
109.23
96.07
77.48
57.57
39.74
25.19
12.73
0.07
-13.95
-29.09
-43.64
-54.84
-61.03
-62.58
-62.05
-63.10
-68.41
-78.13
-90.32
-101.90
-109.83
-112.59
-110.46
-105.03
-98.16
-90.46
-81.01
-68.54
-52.70
-34.60
-16.62
-1.51
10.08
17.62
21.45
23.18
25.46
30.81
41.11
56.46
75.31
95.16
112.87
125.75
132.56
133.95
132.22
130.31
130.85
134.65
140.18
143.92
142.02
132.04
114.00
90.29
64.12
38.36
14.16
-9.36
-34.18
-61.78
-92.11
-123.32
-152.33
-176.10
-191.94
-198.85
-197.36
-188.58
-173.27
-151.57
-123.65
-90.68
-55.57
-21.58
8.58
33.84
55.69
77.64
103.88
137.84
183.36
235.26
289.46
339.99
377.78
393.55
380.58
337.63
270.51
191.10
113.63
49.52
7.27
-14.31
-22.72
-28.40
-40.46
-63.91
-99.14
-143.33
-193.63
-240.67
-277.15
-295.59
-290.19
-259.78
-209.73
-151.42
-98.82
-66.44
-55.29
-63.40
-84.77
-113.36
-146.20
-183.65
-227.33
-254.22
-288.34
-318.08
-335.37
-334.31
-313.07
-274.43
-223.82
-166.66
-105.64
-43.76
24.78
99.99
177.25
247.12
298.27
321.99
316.08
285.76
238.35
187.44
140.20
98.44
59.72
20.18
-22.70
-68.78
-115.87
-163.10
-206.85
-246.37
-280.96
-308.90
-327.08
-331.77
-320.24
-292.18
-251.02
-200.52
-145.83
-91.05
-38.40
11.52
59.05
104.66
148.69
191.14
232.96
275.15
319.26
367.24
421.02
481.36
546.67
612.03
669.69
711.02
729.46
722.98
694.79
651.92
602.29
551.99
504.02
458.86
416.04
375.62
338.41
305.33
276.37
250.26
224.92
198.52
170.38
141.22
112.78
86.99
65.00
46.75
31.03
16.03
0.10
-17.62
-36.91
-56.68
-75.54
-92.46
-107.26
-120.72
-134.33
-149.67
-167.83
-188.96
-212.21
-236.13
-259.29
-280.93
-301.32
-321.75
-344.00
-369.59
-399.10
-431.90
-466.48
-501.01
-534.13
-565.42
-595.43
-625.37
-656.86
-691.70
-731.51
-776.83
-825.92
-873.92
-912.99
-934.30
-930.91
-900.48
-846.22
-775.63
-697.49
-618.93
-543.73
-472.72
-405.35
-341.36
-281.35
-226.30
-176.67
-131.84
-90.46
-51.29
-14.07
20.29
49.95
73.07
88.55
96.48
98.07
95.12
89.40
82.09
73.62
63.86
52.55
39.79
26.23
13.13
2.08
-5.47
-8.54
-6.91
-1.12
7.73
18.34
29.66
41.18
53.11
66.19
81.39
99.40
120.23
143.08
166.55
189.15
209.91
228.82
246.83
265.45
285.95
308.68
332.70
356.15
376.86
393.33
405.43
414.42
422.65
433.11
448.87
472.28
503.82
540.93
577.66
605.56
616.29
604.68
570.80
519.89
460.17
399.40
342.39
290.33
242.09
196.15
151.85
109.51
69.76
32.81
-1.82
-34.96
-67.38
-99.70
-132.51
-166.13
-200.52
-234.65
-266.15
-291.80
-308.66
-315.40
-313.04
-304.27
-291.81
-276.75
-258.06
-233.66
-202.44
-165.78
-127.50
-92.19
-62.59
-38.18
-15.56
9.26
38.33
70.56
102.48
130.46
153.01
171.52
189.27
209.43
233.04
257.88
278.94
290.06
286.33
266.01
231.02
185.94
136.22
86.43
39.42
-3.59
-42.18
-75.99
-104.12
-126.01
-142.14
-153.92
-162.76
-168.90
-170.67
-165.04
-148.95
-120.14
-79.86
-33.15
12.84
51.97
81.70
103.73
122.39
142.47
169.04
203.26
242.34
281.22
315.55
343.49
365.41
382.14
394.44
405.93
418.44
431.17
440.91
444.07
438.43
423.56
399.88
369.30
338.82
313.93
296.74
285.93
279.11
274.69
271.93
269.25
233.87
148.59
18.82
-128.13
-261.61
-363.78
-432.03
-470.12
-492.04
-506.76
-513.99
-512.58
-504.35
-495.36
-490.49
-491.88
-496.70
-498.76
-489.77
-460.08
-405.77
-329.91
-240.97
-149.07
-63.36
8.47
58.94
82.12
76.50
44.20
-8.00
-68.93
-124.86
-163.60
-178.73
-172.31
-152.76
-129.89
-111.36
-99.73
-92.45
-84.19
-70.41
-50.94
-31.39
-18.61
-14.91
-17.25
-19.96
-18.67
-11.27
-0.19
10.97
19.88
26.66
33.26
42.60
57.55
80.34
108.90
140.30
170.82
196.63
214.81
223.69
222.66
211.47
189.63
156.48
112.44
60.60
7.02
-40.52
-75.08
-92.81
-94.12
-83.14
-65.96
-48.33
-33.60
-23.06
-17.27
-16.93
-22.32
-32.88
-46.97
-62.25
-75.73
-82.73
-77.64
-56.00
-16.78
36.88
97.28
153.76
195.77
211.56
196.48
157.90
111.46
70.40
39.54
16.33
-2.82
-17.23
-23.90
-20.62
-9.62
3.59
10.38
5.48
-9.98
-29.58
-46.77
-58.71
-66.33
-72.95
-82.71
-97.04
-113.37
-127.43
-135.95
-139.26
-139.05
-134.83
-124.15
-106.05
-80.84
-50.77
-20.52
4.07
16.18
11.81
-8.06
-40.18
-83.52
-136.49
-195.31
-253.43
-301.63
-332.80
-342.62
-330.14
-284.59
-209.97
-122.40
-40.18
21.93
72.07
119.48
162.39
196.88
216.78
212.23
179.14
121.25
48.13
-27.94
-97.87
-155.41
-195.92
-217.75
-223.64
-216.70
-199.48
-173.89
-141.09
-103.80
-64.44
-23.68
18.58
62.03
107.14
153.87
200.01
240.92
269.77
281.68
277.09
261.29
241.64
225.19
215.92
213.75
215.97
218.80
219.96
219.56
218.71
218.05
217.19
214.79
209.15
198.71
181.88
157.17
123.28
79.51
26.98
-30.16
-84.77
-128.54
-155.15
-163.22
-157.30
-146.01
-137.91
-137.27
-142.15
-145.86
-140.82
-122.62
-92.06
-54.39
-16.43
16.24
40.94
57.44
66.51
68.49
62.79
48.65
26.19
-2.72
-34.78
-66.39
-95.27
-121.49
-147.39
-176.14
-209.37
-245.27
-277.99
-298.89
-299.40
-274.30
-224.20
-156.18
-82.46
-17.00
28.74
49.60
48.63
36.20
26.16
30.63
55.44
98.27
150.26
200.06
238.48
261.30
269.40
266.70
257.55
245.17
231.36
217.38
204.76
195.51
191.31
192.26
196.00
197.85
192.24
175.22
146.64
110.83
75.09
46.45
28.39
19.34
13.79
5.54
-9.12
-29.99
-54.02
-78.28
-102.80
-131.43
-169.89
-221.96
-286.02
-353.95
-413.34
-452.22
-463.87
-449.46
-417.06
-377.66
-340.05
-307.48
-277.46
-244.45
-203.64
-153.93
-98.60
-43.99
2.68
35.42
50.86
49.12
34.17
13.53
-3.55
-8.59
2.91
29.51
64.07
96.55
118.19
125.15
119.74
108.68
99.56
97.38
103.02
114.08
127.25
140.43
153.30
166.28
178.95
189.16
193.62
189.67
176.93
157.74
136.13
115.76
98.34
83.26
68.66
52.99
36.25
20.03
6.69
-1.78
-4.42
-1.27
6.87
18.58
31.60
42.87
48.97
47.35
37.55
21.78
4.25
-10.54
-19.55
-22.10
-19.73
-15.29
-11.60
-10.70
-13.45
-19.48
-27.44
-35.48
-41.79
-45.08
-44.85
-41.31
-35.32
-28.75
-25.04
-29.00
-45.36
-76.14
-117.98
-161.32
-192.59
-199.13
-174.59
-122.01
-52.93
17.02
73.90
109.75
123.80
120.69
107.20
89.53
71.96
56.84
45.32
38.04
35.28
36.91
42.34
50.52
60.21
70.28
79.83
88.15
94.92
99.93
102.61
101.31
93.26
75.55
47.20
10.78
-27.26
-58.62
-76.97
-81.28
-76.72
-71.84
-73.55
-82.84
-94.45
-100.13
-93.54
-73.90
-45.93
-17.23
5.97
21.49
31.18
37.84
42.85
45.42
43.76
37.37
27.70
18.24
13.36
16.73
28.90
47.01
65.85
79.78
85.01
79.87
65.35
43.56
19.97
1.27
-8.08
-9.07
-9.63
-16.49
-33.29
-59.68
-91.72
-119.38
-133.15
-126.31
-96.64
-46.38
19.20
92.57
165.24
228.83
276.23
301.88
303.56
283.47
248.13
206.41
165.92
130.45
99.52
69.62
35.71
-6.29
-57.15
-113.02
-165.68
-205.34
-224.40
-221.07
-200.76
-174.72
-155.46
-151.83
-166.00
-193.43
-225.67
-253.74
-270.50
-271.74
-256.47
-226.73
-187.59
-146.58
-112.28
-92.01
-89.47
-103.34
-127.44
-152.42
-168.36
-167.63
-147.06
-108.75
-59.45
-8.45
35.34
65.97
81.70
84.51
78.41
67.59
55.24
43.55
34.13
28.23
26.27
27.07
27.48
23.17
10.45
-11.87
-41.56
-73.81
-103.31
-126.46
-142.44
-152.53
-158.40
-160.33
-156.73
-144.99
-123.13
-91.37
-52.64
-11.91
25.26
54.46
73.71
83.84
87.92
89.87
92.92
98.44
105.74
112.91
118.19
121.23
123.44
127.38
135.36
148.19
164.53
181.21
193.91
198.20
190.31
168.00
131.54
84.44
33.33
-13.48
-48.60
-68.24
-73.59
-69.89
-63.70
-59.57
-58.08
-56.14
-49.37
-34.85
-12.91
13.17
38.81
60.15
75.23
83.88
86.88
85.14
79.45
70.81
60.95
52.35
47.53
48.11
53.90
62.95
72.18
78.62
80.49
77.76
71.96
65.46
60.55
58.46
58.64
58.63
54.76
43.88
25.42
2.60
-18.32
-30.59
-30.20
-17.66
2.36
23.49
40.32
50.01
52.38
49.16
43.17
37.92
37.14
43.81
58.73
79.50
100.77
116.21
121.03
113.80
96.25
71.61
42.66
10.82
-23.33
-59.01
-94.49
-127.38
-155.16
-175.83
-187.99
-190.76
-183.94
-168.60
-147.83
-126.76
-111.43
-106.62
-113.75
-129.85
-148.68
-163.11
-167.76
-160.50
-142.34
-116.40
-86.85
-58.32
-35.50
-22.66
-22.39
-34.27
-54.38
-76.34
-93.68
-102.50
-102.73
-97.29
-90.06
-84.07
-80.57
-79.45
-79.93
-81.14
-81.90
-80.29
-73.61
-59.28
-36.21
-5.58
29.57
65.59
99.57
130.37
158.67
186.64
216.26
247.94
279.96
309.24
332.55
347.37
352.47
348.21
337.17
322.84
308.09
294.23
281.16
267.66
251.15
228.06
194.63
149.36
92.80
27.42
-42.39
-109.46
-164.06
-196.48
-200.59
-176.42
-129.28
-69.80
-11.20
31.56
46.08
30.62
-4.21
-40.82
-73.78
-103.57
-132.05
-157.61
-175.78
-180.29
-166.09
-133.42
-89.64
-47.46
-18.26
-8.69
-19.08
-44.95
-79.72
-117.90
-157.03
-196.62
-235.28
-267.18
-283.93
-278.73
-250.61
-205.24
-152.69
-103.75
-65.71
-40.70
-25.35
-14.11
-2.53
11.46
28.58
49.84
77.04
111.69
152.71
195.40
231.43
251.03
246.73
216.50
164.26
97.46
23.55
-52.59
-128.33
-201.36
-267.43
-319.88
-351.63
-358.32
-340.88
-305.32
-260.31
-213.69
-169.94
-129.44
-89.68
-47.59
-1.52
47.78
97.61
144.49
185.24
217.37
238.75
247.23
240.71
218.35
182.50
139.95
101.30
78.09
78.54
103.84
146.91
194.52
231.70
246.35
232.48
191.09
129.13
57.05
-13.82
-73.84
-116.74
-140.27
-145.67
-136.36
-116.29
-88.79
-56.25
-20.55
16.36
52.31
85.41
114.72
140.40
162.99
182.31
196.55
202.33
195.97
174.99
139.36
91.70
36.16
-23.35
-84.54
-146.83
-210.17
-273.09
-331.31
-378.09
-406.16
-410.44
-390.04
-348.34
-291.12
-223.72
-149.44
-70.00
12.32
92.58
162.92
214.80
242.65
246.51
232.15
208.38
183.32
161.67
144.45
130.66
119.80
113.22
113.68
123.75
144.02
172.18
203.37
231.24
249.30
252.10
236.49
202.47
153.59
96.71
40.63
-5.94
-36.66
-49.21
-45.92
-32.97
-18.31
-9.03
-9.32
-19.92
-39.22
-65.51
-98.75
-140.71
-193.04
-254.58
-319.57
-378.42
-420.84
-439.80
-434.09
-408.27
-369.59
-324.42
-275.74
-222.96
-163.55
-95.35
-18.35
64.61
147.99
224.67
287.50
330.92
352.53
353.73
339.03
314.13
283.62
249.35
210.22
163.73
108.49
46.57
-16.01
-71.00
-111.09
-132.99
-138.59
-133.54
-124.09
-113.90
-102.30
-85.40
-58.73
-19.90
29.91
86.37
143.75
196.49
240.02
270.96
286.82
286.23
269.32
238.01
195.71
146.82
95.58
44.90
-4.27
-53.31
-105.05
-161.44
-221.24
-278.34
-322.51
-343.34
-334.62
-297.29
-239.83
-175.19
-115.91
-70.71
-42.82
-30.80
-30.47
-37.47
-46.90
-55.08
-60.47
-62.99
-63.54
-64.98
-67.32
-70.64
-75.06
-79.96
-84.32
-86.98
-84.56
-76.61
-65.17
-53.49
-45.31
-42.92
-46.13
-52.57
-58.36
-59.20
-51.92
-34.93
-8.76
23.11
54.81
79.45
90.84
85.61
64.76
33.45
0.17
-25.61
-36.58
-29.42
-5.61
29.38
68.10
103.60
131.18
149.62
160.80
168.09
174.72
182.33
190.58
197.89
202.98
206.11
209.62
217.02
230.70
250.42
272.65
291.58
301.18
297.73
280.86
253.02
217.87
177.58
132.65
82.24
25.56
-36.51
-100.04
-157.98
-202.00
-225.32
-226.96
-211.20
-186.19
-160.46
-139.43
-123.13
-106.92
-85.33
-56.27
-25.41
-2.31
4.07
-10.39
-43.80
-89.90
-141.27
-192.97
-243.10
-293.89
-345.33
-392.86
-428.07
-442.98
-434.01
-403.67
-360.16
-299.11
-225.27
-149.35
-82.66
-29.81
11.32
44.36
75.27
106.18
136.93
164.26
186.25
200.23
205.13
201.01
189.75
175.65
163.74
158.23
158.35
160.58
160.49
155.31
144.72
130.56
115.44
100.31
83.98
62.76
34.03
-1.21
-37.68
-67.94
-85.43
-87.60
-78.21
-66.53
-65.00
-83.51
-124.64
-181.64
-240.53
-285.22
-303.51
-291.04
-251.24
-192.32
-122.97
-50.03
21.22
85.06
134.45
162.62
166.53
149.72
122.32
97.38
85.72
91.82
113.21
143.04
173.79
200.49
221.37
236.81
247.70
254.52
257.35
256.31
251.82
244.36
234.48
222.65
209.37
195.34
181.13
166.62
150.61
130.95
105.32
72.32
32.07
-14.25
-65.46
-121.39
-182.61
-248.80
-316.69
-379.25
-426.99
-451.33
-448.09
-419.19
-371.47
-313.17
-250.50
-186.19
-121.05
-56.58
3.02
51.45
83.05
95.66
91.34
74.45
48.62
14.75
-27.86
-78.57
-132.33
-179.05
-206.35
-204.07
-168.25
-102.61
-17.09
75.25
161.14
229.00
270.20
280.27
260.41
218.42
167.72
123.96
100.15
102.33
127.87
167.24
207.83
238.62
253.35
251.51
237.01
215.63
192.43
170.05
148.35
125.25
98.32
66.19
29.10
-11.63
-55.03
-101.78
-154.16
-214.36
-281.84
-351.33
-413.06
-455.69
-470.58
-455.46
-415.34
-360.35
-301.15
-244.54
-191.35
-138.05
-80.47
-17.89
45.35
101.33
141.99
162.23
161.00
140.40
104.23
57.30
5.76
-42.21
-76.68
-88.19
-71.13
-26.64
36.82
105.78
166.11
207.36
225.26
221.87
203.62
178.59
153.72
133.35
118.96
110.01
105.45
104.79
108.46
116.91
129.54
143.99
156.55
163.61
163.31
156.35
145.32
132.84
119.50
103.37
80.90
49.02
7.03
-42.87
-97.00
-152.26
-207.77
-264.55
-323.26
-381.71
-433.84
-471.15
-485.92
-474.55
-438.90
-385.68
-323.32
-258.67
-195.04
-132.66
-70.82
-9.98
47.25
97.57
138.13
168.20
189.33
204.09
214.01
218.60
215.83
203.83
183.70
159.39
137.08
123.41
123.30
137.83
164.19
196.64
228.04
252.54
265.41
263.81
247.28
217.83
178.74
134.37
89.45
42.62
-3.06
-42.69
-72.11
-90.47
-100.57
-108.12
-119.65
-139.24
-167.28
-199.51
-229.54
-251.00
-259.72
-250.51
-223.53
-182.94
-134.94
-85.50
-37.94
6.31
46.93
83.71
115.88
141.46
158.59
166.58
166.47
161.67
156.67
155.83
162.02
175.24
191.93
206.62
214.18
211.85
200.56
183.80
165.51
147.98
130.95
112.05
89.19
62.78
36.17
14.75
3.30
3.35
11.95
22.84
28.96
25.71
12.62
-7.45
-30.31
-53.02
-75.36
-99.19
-126.20
-155.74
-184.18
-206.38
-219.12
-222.10
-217.81
-210.18
-202.71
-197.05
-193.00
-189.80
-187.50
-188.71
-195.39
-206.65
-218.55
-226.02
-225.35
-215.84
-199.48
-179.57
-160.99
-145.34
-129.91
-110.06
-82.89
-49.70
-15.93
10.72
22.20
9.60
-30.16
-91.74
-162.90
-229.11
-278.50
-305.08
-309.17
-278.33
-214.45
-133.02
-54.08
10.02
57.32
90.63
112.85
126.39
135.37
141.09
145.72
152.04
161.52
172.57
181.19
179.71
164.30
135.35
94.55
47.00
0.35
-37.38
-60.48
-66.73
-57.12
-34.26
-2.22
32.64
64.40
88.74
102.99
105.77
97.24
79.69
58.17
39.15
28.24
29.71
45.63
75.00
113.58
154.53
190.41
215.67
228.33
230.33
226.90
224.39
227.61
237.96
253.31
269.19
280.54
283.18
274.74
255.33
227.77
197.23
169.86
150.62
141.15
138.72
137.34
130.43
113.44
85.20
47.37
2.67
-47.04
-101.13
-159.51
-220.50
-279.59
-330.02
-365.20
-381.45
-379.62
-364.70
-342.94
-319.27
-294.65
-266.48
-231.74
-191.06
-150.20
-118.19
-102.86
-105.65
-120.91
-136.66
-138.82
-116.76
-67.69
2.50
81.57
154.69
209.47
237.21
236.14
212.34
178.25
148.48
135.79
147.72
184.73
241.63
299.27
333.03
325.00
275.93
202.63
124.64
57.43
-0.54
-50.95
-92.91
-121.53
-130.47
-113.37
-71.64
-13.73
42.57
78.46
85.31
66.45
34.30
2.97
-21.31
-39.85
-58.39
-83.24
-117.69
-157.29
-196.93
-233.12
-265.68
-297.19
-330.51
-365.72
-398.57
-420.93
-423.65
-402.17
-358.26
-299.11
-234.06
-170.94
-113.92
-63.32
-16.39
31.07
81.55
134.73
187.28
233.56
267.06
281.99
274.69
244.63
194.36
128.45
53.15
-23.42
-91.40
-140.14
-160.80
-149.20
-107.53
-43.84
30.27
103.22
166.43
215.53
249.75
270.47
279.62
278.90
269.85
253.95
233.12
210.14
188.37
171.05
160.33
156.45
157.63
160.88
162.53
159.17
148.82
131.01
106.36
76.20
41.84
4.02
-37.15
-83.07
-135.90
-195.95
-260.21
-321.80
-371.32
-399.88
-402.52
-379.50
-336.92
-284.27
-229.36
-175.67
-121.80
-63.37
2.79
71.12
134.21
184.78
211.84
208.26
173.09
112.47
38.70
-32.35
-85.00
-106.96
-93.70
-49.66
14.22
83.37
143.47
183.69
198.65
189.01
161.44
126.18
94.37
76.10
77.09
96.82
128.71
162.44
187.55
197.35
190.01
168.48
139.05
108.53
82.05
61.68
46.05
31.45
13.66
-10.52
-42.28
-80.93
-125.28
-174.83
-229.84
-289.82
-351.54
-408.21
-450.77
-470.97
-464.61
-433.45
-384.42
-326.73
-268.22
-212.60
-159.00
-103.83
-44.09
20.03
84.04
140.43
181.39
201.56
199.20
175.69
134.29
78.90
14.19
-53.26
-114.41
-158.59
-175.97
-160.92
-114.60
-45.34
33.67
108.39
168.12
207.92
228.78
235.84
235.54
233.13
231.28
230.15
228.48
224.86
218.57
209.60
197.92
183.34
165.89
146.73
128.62
115.37
110.12
113.23
121.47
128.41
126.67
110.65
78.59
32.66
-22.59
-82.61
-144.24
-205.45
-263.79
-314.78
-351.99
-368.90
-361.69
-331.20
-282.71
-223.52
-159.61
-93.81
-26.32
42.50
109.21
166.29
204.30
215.88
199.41
160.02
107.05
49.47
-8.13
-66.53
-128.98
-196.68
-265.16
-324.38
-362.42
-370.79
-347.92
-299.21
-234.31
-163.70
-96.68
-40.64
-1.18
18.54
19.25
6.63
-9.45
-17.68
-9.15
19.74
66.61
124.62
185.07
239.55
281.36
306.09
312.30
301.96
280.23
254.45
231.91
217.60
213.00
215.79
220.56
220.46
209.13
182.89
142.49
93.63
45.81
9.52
-7.39
-2.46
20.51
52.90
84.40
106.50
114.33
106.93
85.82
53.43
12.32
-34.52
-83.09
-128.26
-164.65
-187.86
-195.21
-186.22
-162.90
-129.78
-93.86
-63.67
-47.17
-48.88
-67.78
-97.30
-127.94
-151.42
-163.89
-166.59
-163.96
-160.89
-161.05
-167.01
-180.82
-203.91
-235.71
-271.94
-304.71
-324.79
-325.19
-304.05
-265.00
-214.95
-160.72
-106.56
-53.84
-2.59
46.68
92.21
131.54
162.87
185.93
201.85
212.39
219.14
223.30
225.93
228.46
232.76
240.56
252.59
267.91
283.89
296.90
303.37
300.57
287.07
262.50
227.61
184.10
134.32
80.98
26.59
-27.47
-81.57
-137.72
-198.18
-263.27
-329.28
-388.79
-432.74
-453.70
-448.65
-420.13
-374.95
-320.94
-263.92
-205.64
-146.20
-86.53
-29.81
19.75
59.54
90.70
118.49
149.48
189.02
236.35
284.52
323.34
345.06
348.37
338.95
326.93
321.24
327.13
341.97
357.17
362.56
351.94
325.40
288.72
250.40
205.81
154.33
98.64
44.24
-4.32
-44.74
-76.34
-102.50
-125.15
-144.77
-158.93
-165.83
-162.83
-150.59
-132.65
-115.74
-106.54
-108.62
-121.58
-140.30
-158.89
-172.89
-180.75
-182.98
-182.59
-182.19
-182.83
-184.44
-185.83
-186.63
-187.28
-188.99
-184.09
-167.83
-139.52
-102.80
-62.96
-23.80
11.84
41.52
63.00
75.44
77.92
72.30
62.48
52.55
45.47
41.35
38.51
33.86
24.47
6.75
-19.17
-49.14
-76.10
-92.65
-93.81
-78.82
-51.71
-14.91
20.29
44.24
53.57
51.71
45.71
42.12
44.60
53.10
65.22
76.48
83.79
85.80
82.52
74.55
62.56
47.25
27.87
7.18
-13.04
-31.37
-47.23
-60.29
-69.80
-74.91
-73.42
-63.54
-44.62
-19.38
7.36
29.50
42.24
44.34
38.60
30.34
23.88
20.30
16.13
7.36
-8.41
-29.21
-48.18
-56.11
-45.84
-16.24
26.90
72.88
111.22
135.81
147.43
152.52
159.90
176.58
204.01
236.69
263.76
273.22
256.89
214.55
154.53
90.85
37.39
2.02
-16.47
-26.66
-39.36
-62.36
-97.24
-140.10
-184.64
-225.69
-261.02
-290.84
-314.84
-329.74
-329.62
-308.52
-265.03
-203.98
-135.62
-72.34
-24.28
4.65
18.00
24.42
36.06
59.57
94.42
134.01
172.52
204.31
222.36
220.59
195.69
149.19
87.17
20.00
-40.26
-83.82
-106.07
-107.62
-92.83
-67.95
-38.98
-11.96
8.23
21.45
27.59
27.85
25.37
24.00
23.09
22.31
18.46
6.44
-18.46
-55.64
-99.94
-141.52
-168.95
-173.96
-154.43
-114.98
-63.99
-10.35
37.95
74.27
93.66
93.97
78.09
55.03
38.01
39.16
62.73
101.58
140.03
161.61
156.79
126.33
78.76
26.03
-21.83
-59.57
-86.55
-104.55
-116.04
-124.10
-132.35
-145.10
-163.34
-183.54
-198.97
-203.20
-193.24
-170.94
-142.24
-107.47
-73.21
-46.33
-28.56
-16.50
-6.69
0.76
2.41
-5.34
-23.36
-50.05
-79.17
-102.51
-113.06
-107.42
-86.31
-53.79
-15.78
21.63
53.01
72.55
76.76
65.22
40.22
6.38
-30.16
-62.81
-85.77
-95.32
-89.36
-67.13
-29.89
18.65
72.97
127.25
176.96
219.90
255.88
286.10
311.86
332.98
347.39
351.99
344.63
325.42
297.27
265.31
235.71
214.31
204.90
207.91
220.01
234.68
243.83
239.49
215.87
170.83
106.92
31.21
-45.88
-113.17
-162.09
-189.54
-199.03
-198.81
-197.98
-201.90
-209.95
-216.27
-213.03
-194.24
-158.21
-108.29
-51.23
4.28
49.22
75.49
77.40
53.46
7.61
-51.01
-111.56
-163.80
-201.19
-221.69
-226.77
-219.45
-202.69
-178.94
-149.89
-119.48
-91.85
-70.89
-58.85
-55.59
-58.79
-65.15
-71.84
-76.35
-80.26
-85.05
-91.23
-96.96
-98.62
-92.88
-78.60
-57.22
-29.71
1.02
35.38
75.88
124.94
181.59
239.55
288.73
309.26
307.37
282.24
237.60
178.86
112.08
43.61
-19.97
-71.94
-106.43
-118.95
-108.47
-79.99
-45.88
-18.80
-3.50
3.91
10.91
23.78
42.67
62.39
74.89
73.12
54.17
19.93
-24.66
-74.11
-124.51
-171.39
-213.67
-252.33
-288.25
-319.91
-343.11
-353.11
-347.32
-326.88
-296.06
-261.19
-227.02
-194.01
-157.75
-111.26
-48.80
30.64
121.99
214.89
295.80
351.66
373.69
359.94
315.86
252.59
183.66
121.18
72.70
40.17
21.26
12.65
12.90
23.62
48.40
89.98
147.47
214.75
280.76
332.00
356.59
348.38
309.59
251.01
189.29
141.61
119.75
125.51
150.22
178.40
194.11
186.75
153.80
99.57
31.41
-44.03
-122.34
-200.51
-275.16
-341.51
-394.20
-429.34
-446.13
-447.03
-436.27
-417.63
-392.87
-361.68
-322.80
-275.38
-219.90
-158.02
-91.87
-23.43
45.18
111.25
170.65
218.02
248.03
256.88
243.42
209.12
157.18
91.77
18.29
-55.95
-121.06
-165.48
-178.58
-154.20
-93.60
-6.29
91.92
182.91
250.62
284.36
280.25
241.22
175.78
96.18
16.03
-52.29
-99.94
-123.09
-122.81
-103.45
-70.48
-28.25
20.85
75.63
134.45
193.67
247.47
289.44
314.95
322.95
316.19
299.76
278.55
255.76
232.17
206.94
179.18
148.72
116.10
81.64
44.99
5.26
-37.87
-83.19
-127.71
-167.70
-200.48
-225.65
-244.88
-260.42
-273.52
-283.72
-289.72
-290.88
-288.20
-283.94
-279.88
-275.78
-269.21
-256.94
-237.17
-210.91
-181.58
-153.06
-127.55
-104.31
-80.45
-53.18
-21.97
10.25
37.76
54.17
55.17
40.59
14.85
-14.46
-39.10
-52.87
-53.04
-40.29
-17.34
12.42
45.43
77.84
105.15
122.83
127.91
120.76
105.68
89.44
78.14
74.30
75.76
77.18
73.44
62.50
46.39
29.74
17.00
10.26
8.85
10.68
14.01
18.37
24.30
32.08
40.76
48.25
52.47
52.62
49.73
45.89
42.62
39.67
35.03
26.41
13.20
-2.49
-16.52
-24.81
-25.65
-20.70
-14.16
-10.59
-12.58
-19.68
-29.03
-36.97
-40.95
-40.43
-36.63
-31.71
-27.64
-25.62
-25.81
-27.51
-29.60
-31.01
-31.14
-30.08
-28.66
-28.31
-31.00
-39.06
-54.71
-79.01
-110.65
-145.21
-175.76
-194.78
-196.87
-180.88
-150.24
-111.35
-70.92
-33.42
0.04
31.00
61.79
93.44
124.47
151.09
168.50
172.85
162.84
140.28
109.49
75.75
43.45
15.14
-8.24
-26.27
-37.74
-40.37
-31.68
-10.62
21.00
58.50
95.61
126.63
148.24
160.13
164.32
163.58
159.92
154.03
145.61
134.39
121.08
107.59
96.62
90.73
91.31
97.94
108.35
118.96
125.97
126.45
119.07
104.13
83.14
58.15
31.40
5.25
-17.78
-35.19
-45.16
-47.62
-44.97
-41.97
-44.50
-57.48
-82.73
-117.87
-156.62
-190.67
-212.28
-216.71
-203.56
-176.56
-142.03
-106.65
-75.53
-51.42
-35.08
-26.13
-23.78
-26.84
-33.39
-40.71
-45.97
-47.56
-46.18
-44.73
-46.62
-53.29
-62.39
-67.73
-61.31
-36.52
9.07
72.46
145.99
219.45
282.77
328.23
351.88
353.96
338.20
310.37
276.50
241.15
206.58
172.76
137.89
99.18
53.64
-0.95
-64.78
-134.80
-204.54
-265.32
-308.82
-329.91
-328.24
-307.57
-273.38
-230.17
-180.43
-125.53
-67.89
-12.43
34.02
65.19
78.32
75.59
63.29
49.18
39.59
37.82
43.91
55.52
68.99
80.01
84.28
78.33
60.56
32.19
-2.71
-38.36
-68.92
-90.12
-99.97
-98.73
-88.15
-71.00
-50.72
-31.24
-16.60
-10.17
-13.73
-26.85
-46.92
-69.86
-91.32
-107.93
-118.00
-121.69
-120.33
-115.50
-108.33
-99.33
-88.66
-76.86
-65.25
-55.86
-50.91
-51.92
-59.16
-71.28
-85.57
-98.49
-106.38
-106.43
-97.36
-79.90
-56.60
-31.09
-6.84
13.91
30.70
44.78
58.26
73.14
90.39
109.55
128.89
146.08
159.00
166.39
168.16
165.17
158.84
150.61
141.46
131.50
119.79
104.56
83.98
57.27
25.73
-6.83
-34.91
-53.02
-57.64
-48.53
-28.56
-2.45
24.97
49.98
70.12
83.59
88.53
83.02
65.87
37.67
1.36
-38.08
-74.93
-104.44
-124.04
-133.64
-135.02
-130.70
-122.95
-113.16
-101.79
-88.74
-73.81
-57.22
-39.88
-23.45
-9.84
-0.61
3.63
3.53
0.69
-3.11
-6.56
-9.05
-10.45
-10.56
-8.71
-3.99
4.37
16.35
31.08
47.03
62.49
75.72
84.93
88.16
83.41
69.41
46.66
18.17
-10.56
-32.60
-41.46
-32.99
-6.78
33.58
81.23
127.37
163.04
180.69
175.82
148.15
102.10
46.05
-9.53
-54.99
-84.32
-96.75
-96.47
-90.50
-85.75
-86.52
-93.42
-103.96
-114.11
-120.03
-119.20
-110.96
-96.59
-79.00
-62.27
-50.65
-47.53
-54.18
-69.25
-88.91
-108.13
-122.38
-129.26
-129.52
-126.77
-126.05
-131.62
-144.75
-162.61
-178.98
-186.36
-178.64
-153.12
-110.89
-55.89
6.53
70.75
131.31
183.00
221.45
244.19
251.62
247.36
237.00
226.04
217.78
212.44
207.88
201.24
190.69
176.26
159.58
142.96
128.43
117.23
109.63
105.14
102.71
101.08
99.02
95.68
90.83
84.87
78.68
73.03
67.98
62.47
54.53
42.17
24.76
4.01
-15.92
-29.49
-31.69
-20.17
3.51
33.87
62.76
81.49
83.13
64.37
26.64
-24.09
-78.71
-127.39
-162.32
-179.88
-181.14
-170.79
-154.67
-137.54
-121.68
-107.14
-93.02
-79.06
-66.42
-57.38
-54.38
-58.75
-70.07
-86.12
-103.68
-119.54
-131.57
-139.44
-144.79
-150.52
-159.54
-173.01
-189.18
-203.33
-209.12
-200.65
-174.46
-130.53
-72.21
-5.26
63.36
126.59
178.17
213.62
231.07
231.77
219.77
200.75
180.45
163.17
151.12
144.60
142.70
143.85
146.03
146.97
144.43
136.85
124.10
107.86
91.24
77.88
70.52
69.77
73.68
78.08
77.71
67.68
44.86
9.06
-36.32
-84.45
-126.26
-152.58
-156.79
-137.12
-97.54
-47.07
2.70
40.80
59.96
58.17
38.74
8.64
-23.95
-51.91
-70.74
-78.85
-76.98
-67.31
-52.68
-36.23
-21.31
-11.19
-8.50
-14.40
-28.10
-47.00
-67.46
-86.04
-100.60
-110.99
-119.22
-128.76
-143.38
-165.35
-193.88
-224.40
-249.39
-260.58
-251.83
-221.27
-171.92
-110.60
-45.70
14.91
65.47
102.85
126.35
137.37
138.77
134.37
128.19
123.79
123.65
128.98
139.66
154.36
170.67
185.35
195.00
196.94
190.31
176.71
159.87
144.60
135.04
133.06
137.41
143.94
146.79
139.97
119.21
83.44
35.93
-15.86
-61.73
-91.60
-98.95
-83.44
-51.51
-14.45
15.46
29.17
23.66
2.20
-27.73
-57.72
-81.40
-95.86
-101.29
-99.43
-91.95
-79.74
-63.23
-43.45
-22.94
-5.58
4.68
5.55
-2.54
-16.60
-32.42
-46.47
-57.46
-66.94
-78.62
-96.84
-124.45
-160.92
-201.49
-237.84
-260.31
-261.04
-236.93
-191.21
-132.68
-72.91
-22.53
12.10
30.29
36.43
37.57
40.41
48.86
63.22
80.89
98.38
113.31
125.40
135.99
146.47
156.76
164.83
167.82
163.90
153.80
140.97
130.06
124.56
124.97
128.52
130.58
126.94
115.82
98.63
79.26
62.46
52.00
49.53
54.10
62.36
69.22
69.01
57.02
31.20
-6.58
-50.53
-92.46
-124.52
-141.95
-144.39
-135.18
-119.02
-99.50
-77.90
-54.05
-28.33
-3.31
16.15
24.68
19.00
-0.30
-28.70
-59.53
-86.65
-106.62
-119.63
-128.79
-138.58
-152.80
-172.85
-196.90
-220.03
-235.45
-236.45
-218.59
-181.47
-129.52
-71.27
-16.98
24.54
48.87
57.37
56.29
53.84
56.79
67.97
85.99
106.98
127.11
144.35
158.64
170.52
179.60
184.03
181.42
170.74
153.64
134.43
118.52
109.95
109.36
113.51
116.46
112.06
96.50
70.01
37.05
4.82
-19.04
-29.02
-23.32
-4.49
21.22
45.51
60.19
59.54
42.05
11.02
-26.40
-61.56
-87.15
-99.35
-98.44
-87.63
-71.07
-52.07
-32.48
-13.33
3.97
16.98
22.66
18.66
4.72
-16.88
-42.03
-66.62
-88.56
-109.01
-131.90
-161.78
-200.82
-246.49
-291.21
-324.60
-337.33
-324.57
-287.49
-232.15
-166.80
-99.49
-36.70
16.62
56.86
82.15
93.35
94.70
93.09
95.82
107.88
130.14
159.36
189.91
216.00
233.28
239.54
234.63
220.19
199.41
176.68
156.66
142.97
136.94
136.91
138.57
136.28
124.98
102.19
69.28
31.52
-3.25
-27.20
-35.57
-28.74
-12.57
3.64
10.74
3.30
-18.31
-48.41
-78.59
-101.12
-111.57
-109.63
-98.07
-80.88
-61.61
-42.60
-25.21
-10.55
-0.08
4.46
1.69
-8.71
-25.49
-46.09
-67.56
-87.75
-106.29
-124.71
-145.55
-170.67
-199.52
-228.20
-250.05
-257.55
-245.21
-212.03
-162.64
-106.21
-53.55
-13.41
10.47
20.23
22.35
24.54
32.58
48.35
70.09
94.12
117.09
137.26
154.37
168.50
179.03
184.28
182.58
173.71
159.89
145.35
134.88
131.70
135.90
144.16
150.92
150.45
139.16
117.11
88.24
59.17
36.83
25.82
26.44
34.26
41.80
41.46
28.76
4.16
-27.20
-57.95
-81.50
-94.34
-96.56
-90.65
-79.79
-66.43
-52.21
-38.52
-27.38
-21.50
-23.56
-35.00
-54.97
-80.25
-106.16
-128.17
-143.52
-152.09
-156.18
-159.20
-163.98
-171.27
-179.30
-184.33
-182.22
-170.20
-147.96
-117.95
-84.50
-52.33
-24.95
-3.59
12.99
27.70
43.72
63.01
85.38
108.72
129.93
146.29
156.45
160.70
160.36
157.00
151.99
146.43
141.48
138.46
138.59
142.35
148.94
156.22
161.23
161.04
153.60
138.49
117.22
93.16
70.79
54.44
46.63
46.52
49.63
49.01
38.01
13.24
-23.54
-65.81
-104.73
-132.60
-145.41
-143.58
-130.75
-111.40
-89.08
-65.77
-42.64
-21.17
-3.80
6.42
7.12
-2.31
-20.29
-43.68
-69.10
-94.30
-118.88
-143.94
-171.02
-200.56
-230.79
-257.47
-274.62
-276.34
-258.91
-222.68
-172.71
-117.67
-67.20
-28.68
-4.85
6.67
11.71
16.87
26.76
42.86
63.95
87.68
112.14
136.42
160.17
182.70
202.43
217.20
225.33
226.41
221.57
212.82
202.16
190.81
178.87
165.64
150.17
132.03
111.70
90.80
71.72
57.06
48.40
45.24
44.55
41.41
30.93
10.59
-18.25
-50.50
-79.39
-99.40
-108.41
-108.04
-102.17
-94.62
-87.44
-80.77
-74.01
-67.25
-62.01
-60.59
-64.69
-74.21
-87.12
-100.26
-110.86
-117.64
-121.34
-124.21
-128.98
-137.72
-150.82
-166.52
-180.88
-188.72
-185.19
-167.85
-138.18
-101.79
-66.62
-39.68
-23.85
-16.41
-10.26
2.54
26.77
61.68
101.61
138.92
167.63
185.63
194.52
197.56
197.27
194.27
187.84
177.41
163.86
149.64
137.62
129.58
125.14
121.94
116.74
106.93
91.94
73.54
55.29
41.25
34.43
35.57
42.53
50.73
54.62
49.67
34.23
10.34
-17.08
-42.29
-61.07
-72.22
-77.29
-78.97
-79.15
-77.79
-73.46
-64.81
-52.37
-39.05
-29.32
-27.30
-34.96
-51.42
-73.66
-98.07
-121.98
-144.47
-166.06
-187.63
-209.14
-228.81
-243.04
-247.26
-237.33
-211.08
-169.66
-117.97
-63.86
-16.28
17.45
34.14
35.99
29.90
24.97
29.11
46.35
75.73
112.21
149.04
180.17
201.84
212.83
213.78
206.37
192.77
175.59
157.78
142.28
131.35
125.87
124.76
125.18
123.12
114.64
97.34
71.56
40.87
11.37
-10.32
-19.80
-17.25
-8.05
-0.99
-4.68
-23.61
-56.05
-94.75
-130.19
-154.50
-164.33
-161.08
-149.11
-133.07
-116.04
-99.18
-82.72
-67.42
-55.32
-49.26
-51.49
-62.20
-78.88
-97.02
-111.99
-121.18
-125.38
-128.24
-134.02
-144.56
-157.27
-165.30
-160.28
-136.30
-93.03
-36.59
22.64
73.96
110.20
129.55
135.13
132.57
127.42
123.86
124.07
128.80
138.11
151.50
167.48
183.52
195.97
201.16
197.69
186.72
171.89
158.16
149.86
148.89
154.53
162.95
168.10
164.52
147.85
116.91
75.13
30.63
-5.99
-24.39
-19.45
6.36
45.45
86.77
120.56
141.56
149.83
148.55
142.47
134.41
115.49
80.66
30.35
-28.16
-83.94
-124.63
-148.67
-157.96
-157.10
-152.65
-149.03
-150.42
-159.03
-173.98
-191.33
-206.05
-213.13
-210.68
-200.52
-185.42
-168.56
-151.88
-136.19
-121.95
-110.63
-103.99
-104.14
-112.45
-127.70
-147.44
-169.07
-191.20
-213.98
-238.44
-264.46
-289.95
-310.89
-321.93
-318.98
-300.70
-269.21
-228.71
-184.28
-140.01
-98.63
-61.33
-27.50
4.07
34.84
66.16
100.17
138.80
182.45
228.88
273.19
309.89
333.92
342.87
337.69
324.48
311.25
303.90
303.85
307.86
311.32
308.93
296.64
271.82
236.99
197.49
159.01
126.61
104.35
96.69
105.01
126.73
154.46
181.83
203.36
213.97
210.34
179.40
117.38
31.07
-53.96
-127.03
-181.96
-215.13
-223.25
-205.88
-167.22
-114.24
-57.75
-11.71
9.47
2.29
-20.28
-46.66
-69.68
-87.06
-96.43
-97.74
-92.84
-85.34
-76.29
-65.78
-55.16
-46.13
-40.08
-36.81
-35.67
-35.60
-35.78
-33.93
-28.35
-19.94
-10.90
-3.55
1.29
3.81
4.81
4.53
2.77
-1.82
-11.57
-27.43
-47.85
-68.88
-86.31
-97.53
-102.49
-102.73
-100.05
-95.27
-87.36
-74.25
-54.42
-28.33
1.33
30.57
55.42
73.12
82.59
84.67
81.65
76.44
71.60
68.42
66.44
63.57
57.11
45.02
27.08
5.05
-18.05
-39.38
-57.42
-72.42
-85.82
-99.16
-113.07
-126.90
-139.07
-147.99
-152.92
-154.18
-152.62
-148.82
-142.51
-132.71
-118.48
-99.78
-77.61
-53.37
-27.75
-0.18
30.67
65.64
103.77
142.17
177.11
205.79
227.65
244.26
258.12
271.04
283.47
294.82
304.60
313.12
321.26
329.43
336.51
339.58
334.94
319.81
293.73
258.89
219.52
180.23
144.72
114.92
90.99
71.82
55.80
41.26
26.87
11.87
-3.92
-20.34
-36.95
-53.49
-70.07
-87.33
-106.47
-129.20
-157.50
-193.15
-236.77
-286.71
-338.40
-384.89
-418.52
-433.78
-429.16
-407.88
-376.42
-342.04
-310.33
-283.77
-262.43
-245.20
-231.82
-222.89
-219.18
-220.53
-225.31
-230.93
-234.65
-234.87
-231.05
-224.59
-216.97
-208.91
-199.92
-188.93
-175.28
-158.70
-140.05
-119.96
-100.12
-81.66
-64.64
-48.20
-31.02
-12.28
9.22
33.36
59.85
85.26
104.47
112.11
104.23
79.95
41.53
-4.97
-53.60
-84.83
-84.72
-51.35
2.78
59.02
103.54
124.66
127.40
117.49
100.27
79.09
57.31
42.52
40.56
53.70
79.04
110.82
141.65
167.19
185.71
197.96
202.80
198.64
184.68
161.88
134.27
106.36
82.45
64.48
51.84
42.65
35.28
29.24
25.64
25.56
29.30
36.80
47.91
62.13
78.97
98.18
119.55
142.38
165.53
187.54
202.96
208.97
204.99
192.68
175.37
156.79
139.80
125.76
114.59
105.43
97.91
91.60
85.85
79.82
72.58
63.55
52.86
41.44
30.64
21.93
15.72
11.22
6.99
1.68
-5.45
-14.37
-24.75
-36.25
-47.96
-58.22
-63.94
-61.02
-45.79
-17.23
21.35
62.20
95.35
112.46
110.22
91.81
65.37
40.33
23.39
16.14
15.50
16.20
13.78
6.05
-6.98
-24.93
-48.65
-80.09
-120.38
-167.50
-215.52
-256.19
-282.44
-291.36
-284.95
-268.18
-245.53
-218.01
-182.68
-134.83
-71.83
3.79
83.56
155.34
207.33
232.00
227.99
199.59
154.30
100.09
43.58
-10.63
-59.21
-99.41
-128.82
-146.29
-152.46
-149.68
-141.04
-128.89
-113.97
-95.62
-72.95
-45.94
-16.23
12.91
37.43
53.51
58.88
53.66
40.74
24.98
11.40
2.79
-1.84
-7.00
-18.37
-39.49
-69.09
-100.91
-125.90
-136.00
-127.28
-101.13
-63.09
-20.43
20.21
54.06
78.22
91.08
91.86
80.61
58.66
28.96
-4.19
-36.13
-63.09
-83.67
-99.41
-114.46
-133.59
-159.62
-191.18
-222.16
-243.24
-245.18
-222.70
-176.92
-115.54
-50.22
7.49
50.33
77.50
94.11
108.02
125.57
148.60
173.70
194.44
204.94
202.80
190.07
171.42
151.33
131.67
111.56
89.13
63.84
37.93
15.61
1.00
-4.14
-1.12
6.52
14.98
21.63
25.56
27.01
26.52
24.57
21.69
18.70
16.49
15.44
14.73
12.45
6.66
-3.26
-15.90
-28.14
-36.54
-38.85
-34.85
-26.14
-15.16
-4.26
4.84
11.14
14.06
13.13
7.99
-1.59
-15.64
-33.79
-55.17
-78.41
-101.82
-123.95
-144.39
-163.94
-184.06
-205.48
-226.67
-243.22
-248.67
-236.99
-205.60
-157.53
-101.06
-46.71
-3.05
26.84
46.03
61.33
79.11
101.64
126.15
146.85
158.72
160.55
155.61
149.56
147.03
149.08
152.86
153.73
148.21
136.18
120.91
107.20
98.71
96.03
96.63
96.40
91.98
82.45
69.53
56.38
45.84
39.26
36.49
36.60
38.56
41.17
42.43
39.25
28.05
6.52
-24.50
-60.33
-93.49
-116.15
-122.92
-112.54
-87.74
-53.89
-17.16
16.85
43.62
59.92
63.94
55.59
36.86
11.66
-14.84
-37.63
-53.66
-63.41
-71.28
-84.18
-108.45
-146.18
-192.95
-238.30
-269.16
-274.78
-251.25
-202.98
-140.89
-78.11
-25.27
12.36
35.14
47.17
53.57
58.35
63.68
70.32
78.62
89.23
102.97
120.02
139.00
156.53
168.18
170.21
161.46
144.05
122.58
102.12
86.16
75.46
68.45
62.72
56.55
49.67
43.08
38.28
36.63
39.05
45.62
55.14
64.58
69.09
63.17
42.88
8.13
-36.35
-82.08
-119.67
-142.00
-146.16
-133.56
-108.40
-75.82
-40.66
-7.27
20.31
38.42
44.41
37.47
19.26
-6.41
-34.76
-61.69
-85.40
-106.86
-129.18
-155.46
-186.38
-218.64
-245.19
-257.36
-248.14
-215.24
-162.64
-99.69
-38.04
12.36
46.59
66.10
77.38
88.64
105.89
130.37
158.30
183.10
198.74
202.53
195.78
182.36
166.13
149.05
130.99
111.14
89.71
68.78
51.39
40.07
35.23
35.01
36.22
36.06
33.34
28.64
23.81
21.00
22.00
27.89
38.59
52.18
64.40
69.07
60.00
33.91
-7.10
-55.20
-99.27
-129.18
-139.65
-131.74
-111.34
-85.81
-60.76
-38.77
-20.30
-5.54
4.19
6.58
-0.25
-16.32
-39.13
-64.36
-87.56
-105.99
-119.59
-130.97
-143.99
-161.59
-183.90
-207.29
-224.99
-229.38
-214.74
-179.64
-127.69
-66.41
-4.56
50.60
95.21
128.90
153.52
171.24
183.12
188.85
187.67
179.66
166.44
150.93
136.31
124.76
116.91
112.14
109.37
107.76
106.86
106.34
105.57
103.40
98.23
88.46
73.18
52.88
29.84
7.99
-8.14
-15.04
-11.89
-1.31
11.28
19.73
19.69
10.30
-5.62
-22.94
-36.52
-43.21
-42.68
-36.97
-29.20
-22.17
-17.64
-16.43
-19.01
-26.18
-39.12
-58.91
-85.53
-117.25
-150.64
-181.61
-206.92
-225.33
-237.62
-245.43
-249.55
-248.70
-239.38
-217.44
-180.37
-129.54
-70.91
-13.78
32.60
62.44
75.83
78.38
78.48
83.44
96.43
115.69
136.27
153.00
162.95
166.19
164.70
160.55
154.80
147.60
139.29
131.15
125.32
123.83
127.28
133.92
139.63
138.94
126.90
101.47
65.15
25.26
-8.12
-25.84
-23.84
-5.52
19.16
37.76
40.94
26.58
0.51
-26.64
-44.49
-47.26
-35.45
-14.31
9.30
29.95
44.96
53.96
57.26
54.55
44.52
25.63
-2.62
-38.77
-79.26
-119.29
-154.50
-182.83
-205.51
-226.37
-249.66
-277.00
-305.53
-328.12
-336.07
-322.85
-286.97
-232.61
-167.60
-100.31
-36.79
20.08
69.86
112.74
148.24
175.01
191.70
198.17
196.19
189.22
181.30
175.56
173.15
172.97
172.53
169.25
161.65
149.83
135.10
119.21
103.64
89.15
75.74
62.93
50.27
37.85
26.64
18.47
15.35
18.42
26.94
38.03
47.52
51.55
48.29
38.66
25.78
13.48
4.70
0.70
1.21
5.16
11.33
18.53
25.25
29.51
29.04
21.91
7.34
-13.95
-39.98
-68.20
-96.34
-123.04
-148.13
-172.61
-198.00
-225.31
-253.85
-280.37
-299.43
-304.72
-291.27
-257.35
-205.47
-141.86
-74.93
-13.06
37.40
73.44
95.78
108.05
115.14
121.28
128.65
137.02
144.56
149.13
149.28
144.47
134.61
119.82
100.58
78.40
56.12
37.48
25.81
22.75
27.58
37.31
47.73
54.58
54.76
47.23
33.56
17.66
4.71
-0.74
3.19
14.56
27.97
36.82
36.16
24.95
6.38
-13.71
-29.51
-37.45
-36.90
-29.43
-17.28
-2.22
14.57
31.88
47.59
58.67
61.93
55.41
39.35
16.19
-10.31
-36.53
-60.11
-80.43
-98.21
-114.74
-130.90
-146.36
-159.20
-166.09
-163.13
-147.29
-118.06
-78.42
-34.53
6.34
38.51
60.29
74.22
85.13
96.89
109.68
119.63
121.04
109.90
86.75
56.92
28.22
7.30
-3.03
-4.36
-0.74
4.05
8.52
13.54
20.92
31.49
44.12
56.01
63.98
65.94
61.68
52.76
41.82
31.73
24.91
22.98
26.41
33.98
42.48
47.15
43.17
27.76
1.94
-29.22
-58.26
-78.16
-84.94
-78.83
-63.39
-43.45
-23.13
-4.89
10.05
20.72
25.86
24.16
15.22
0.15
-18.56
-38.02
-56.23
-72.86
-89.23
-107.43
-129.08
-154.14
-180.39
-203.53
-218.06
-218.78
-202.60
-169.98
-125.32
-75.76
-28.72
10.75
41.55
66.08
88.10
109.87
130.66
147.14
155.68
154.80
146.37
134.50
123.15
113.86
105.29
94.70
80.38
63.44
47.60
37.35
35.48
41.60
52.17
62.02
66.37
62.44
50.31
32.80
14.64
1.18
-3.30
2.75
17.00
33.48
44.30
42.55
25.16
-5.63
-42.98
-77.96
-102.70
-112.83
-108.18
-91.81
-68.21
-41.67
-15.64
7.14
24.11
32.96
32.24
22.28
5.58
-13.82
-31.91
-46.51
-58.30
-70.65
-87.72
-112.01
-142.28
-172.98
-195.58
-201.23
-184.00
-143.57
-86.10
-22.74
33.84
74.02
94.73
100.26
99.67
101.95
111.34
125.48
137.28
139.37
128.37
106.54
79.81
54.08
32.02
12.67
-6.44
-26.35
-45.25
-59.45
-65.53
-62.33
-51.37
-35.91
-19.56
-5.27
5.05
10.74
12.67
13.24
15.78
22.97
34.95
48.34
57.19
55.61
40.98
15.72
-13.45
-38.34
-52.66
-54.15
-44.60
-28.07
-8.80
10.17
27.25
41.62
52.37
58.33
58.52
52.91
42.79
30.50
18.58
8.50
-0.30
-10.72
-27.14
-53.58
-91.22
-136.76
-182.27
-217.14
-231.56
-220.19
-184.52
-132.47
-75.44
-23.87
16.43
45.52
67.55
87.05
105.58
120.54
126.77
120.21
101.14
75.26
51.49
37.87
37.88
49.22
65.60
80.20
89.10
92.65
94.47
98.72
107.42
119.21
130.16
135.82
132.90
120.85
102.31
82.53
67.66
62.60
69.16
85.52
106.51
124.51
132.10
124.67
101.85
67.18
26.28
-14.99
-51.70
-80.49
-100.81
-114.52
-124.86
-135.17
-148.25
-166.32
-190.26
-218.50
-240.77
-244.23
-219.91
-169.89
-107.08
-48.15
-6.57
11.87
10.63
0.37
-6.29
-1.12
18.45
50.11
88.23
125.65
155.37
171.80
170.69
149.53
108.64
52.19
-11.47
-68.12
-103.83
-111.06
-91.81
-57.55
-23.75
-3.71
-4.48
-25.60
-61.48
-105.65
-152.85
-198.86
-239.44
-268.12
-277.52
-263.53
-227.56
-176.55
-120.61
-69.14
-22.94
15.21
43.98
64.85
79.25
87.56
89.31
84.99
77.18
69.88
66.32
69.27
81.14
100.78
125.13
149.84
170.12
181.57
181.06
167.25
138.38
101.19
65.16
38.09
22.84
17.28
16.69
17.17
18.06
22.89
36.81
60.58
91.31
122.76
148.65
166.35
178.59
191.88
212.35
241.04
271.36
292.29
293.96
272.79
233.13
184.28
134.83
92.08
58.18
30.06
2.65
-27.90
-62.19
-97.68
-130.28
-156.59
-175.56
-189.25
-201.61
-216.16
-234.43
-255.59
-277.78
-300.02
-323.31
-349.92
-381.75
-416.55
-446.45
-460.71
-450.52
-413.10
-352.82
-278.57
-199.39
-123.30
-54.06
7.65
61.61
106.49
140.50
163.34
176.97
184.47
185.35
178.15
161.81
136.66
104.22
66.95
27.29
-13.72
-57.04
-107.76
-167.73
-232.58
-292.87
-338.17
-361.30
-360.28
-338.71
-283.53
-198.16
-99.96
-10.32
58.20
104.58
133.33
150.05
159.05
163.71
163.70
159.89
154.82
151.26
150.72
153.14
158.42
166.79
179.35
195.35
215.14
239.48
267.40
294.84
309.26
302.26
271.76
223.25
166.27
112.52
72.37
48.25
39.02
40.97
50.47
64.07
79.00
92.54
103.26
111.17
117.08
121.80
124.56
123.45
115.56
98.73
72.74
40.01
4.59
-29.81
-60.80
-87.98
-111.81
-133.41
-154.01
-174.65
-195.91
-217.35
-236.95
-251.06
-255.97
-249.32
-231.41
-205.08
-174.42
-143.29
-114.37
-89.02
-67.72
-50.72
-38.03
-29.30
-23.39
-18.42
-12.79
-6.45
-1.34
-0.30
-4.76
-12.95
-20.05
-19.98
-9.11
10.21
28.91
34.67
18.13
-21.57
-75.36
-128.42
-165.31
-175.29
-155.49
-111.17
-52.51
8.97
63.48
104.08
125.71
127.31
112.68
89.70
67.33
53.05
50.67
59.63
74.80
85.84
82.35
58.52
15.47
-39.67
-95.69
-141.00
-167.07
-160.66
-121.37
-65.28
-14.85
17.64
35.41
50.67
72.70
105.22
144.15
178.97
199.99
203.04
190.61
165.18
131.09
91.91
49.57
4.44
-44.40
-95.74
-144.58
-183.41
-205.63
-207.89
-191.20
-160.05
-121.14
-82.32
-49.51
-24.70
-5.53
12.47
33.53
58.93
86.11
109.70
123.75
125.19
115.56
100.00
84.22
71.97
64.21
59.97
57.71
56.01
53.36
47.48
35.41
14.73
-14.29
-47.27
-76.12
-91.61
-87.05
-61.48
-20.43
26.09
67.40
96.06
109.88
111.65
107.07
102.25
101.61
106.78
116.46
127.11
134.01
132.64
120.16
96.62
65.32
31.69
1.41
-21.43
-35.89
-43.93
-48.91
-54.03
-61.26
-71.11
-83.28
-97.15
-111.72
-125.79
-137.43
-143.79
-141.41
-126.97
-98.24
-55.00
-0.04
61.53
122.20
173.85
210.08
227.96
228.46
215.42
193.95
167.69
140.08
112.18
84.35
57.33
32.67
11.92
-4.44
-17.48
-31.07
-46.24
-64.19
-83.71
-101.20
-111.51
-110.93
-98.89
-78.13
-56.32
-37.18
-25.86
-25.71
-36.64
-54.44
-73.96
-90.44
-100.29
-105.39
-104.34
-100.77
-99.99
-105.07
-114.07
-124.82
-135.20
-123.54
-111.14
-92.64
-67.43
-38.73
-10.70
14.99
33.12
38.18
28.88
4.81
-26.20
-59.86
-96.05
-134.02
-166.91
-190.73
-202.84
-200.52
-186.66
-164.21
-123.51
-67.16
-28.96
-17.36
-24.57
-45.42
-73.65
-103.93
-127.94
-139.80
-138.14
-123.07
-79.56
-10.83
65.71
131.95
177.55
202.26
209.08
200.18
179.26
154.49
130.73
112.02
102.69
104.07
114.75
128.26
135.27
130.02
114.24
91.87
69.49
54.41
50.30
54.82
60.70
58.83
43.28
13.01
-30.55
-82.03
-132.27
-170.66
-188.07
-178.92
-142.80
-84.00
-11.84
60.21
119.07
155.88
167.55
156.45
129.31
90.54
49.48
15.96
-5.73
-17.55
-23.65
-26.56
-27.13
-25.16
-21.59
-18.24
-17.52
-21.25
-29.52
-41.53
-55.54
-70.58
-84.94
-97.07
-104.85
-105.84
-98.28
-81.44
-56.26
-25.31
7.96
42.20
77.02
109.48
136.71
155.86
164.38
160.69
145.19
112.97
69.18
25.63
-6.86
-24.88
-32.11
-34.35
-35.32
-35.43
-32.20
-22.65
-6.63
12.95
32.15
48.03
60.04
70.03
81.43
94.39
110.35
128.41
144.86
155.00
155.36
145.39
127.82
107.54
89.78
79.22
77.18
81.48
88.33
94.29
97.67
98.14
95.44
87.37
69.78
37.04
-14.82
-84.48
-163.88
-240.22
-300.71
-337.28
-349.03
-340.84
-320.43
-294.83
-268.40
-243.08
-219.74
-199.34
-182.97
