1.593624975000000000e+09
-2.999999999999999889e-02
5.059999999999999609e+00
1.791000000000000014e+01
7.934000000000000341e+01
2.282500000000000000e+02
-4.865000000000000000e+02
-5.900000000000000355e+00
1.561500000000000057e+02
4.678000000000000114e+01
4.049999999999999822e+00
1.700000000000000122e-01
8.499999999999999778e-01
3.259999999999999787e+00
1.275000000000000000e+01
3.099999999999999978e-01
-5.296000000000000085e+01
2.521999999999999886e+01
-1.689999999999999947e+00
-1.139000000000000057e+01
5.280000000000000249e+00
-4.589999999999999858e+00
-5.021999999999999886e+01
-1.123000000000000043e+01
8.692000000000000171e+01
8.009999999999999787e+00
-2.596000000000000085e+01
1.623999999999999844e+01
1.898999999999999844e+01
-1.408000000000000007e+01
-1.841000000000000014e+01
-4.199999999999999845e-01
1.078999999999999915e+01
-7.250000000000000000e+00
5.860000000000000320e+00
1.016999999999999993e+01
3.270000000000000018e+00
-1.108999999999999986e+01
1.551999999999999957e+01
1.389999999999999902e+00
-1.673000000000000043e+01
-1.675000000000000000e+01
1.060999999999999943e+01
2.979999999999999982e+00
-2.012000000000000099e+01
7.809999999999999609e+00
6.620000000000000107e+00
2.587000000000000099e+01
8.490000000000000213e+00
1.030900000000000034e+02
2.010699999999999932e+02
-2.937300000000000182e+02
-2.993199999999999932e+02
4.612699999999999818e+02
-2.657999999999999829e+01
-4.278000000000000114e+01
-3.722999999999999687e+01
-1.987000000000000099e+01
-6.190000000000000391e+00
-1.944999999999999929e+01
1.860000000000000098e+00
-3.400000000000000244e-01
-1.411999999999999922e+01
2.220000000000000195e+00
7.200000000000000178e+00
-1.580000000000000071e+00
-1.468999999999999950e+01
1.844000000000000128e+01
1.417999999999999972e+01
-6.120000000000000107e+00
-1.449000000000000021e+01
3.810000000000000053e+00
4.059999999999999609e+00
-1.837000000000000099e+01
2.037999999999999901e+01
1.755000000000000071e+01
-1.590000000000000080e+00
-3.012000000000000099e+01
7.349999999999999645e+00
7.940000000000000391e+00
-8.179999999999999716e+00
-1.440000000000000036e+01
-3.109999999999999876e+00
5.999999999999999778e-02
-1.119999999999999929e+01
8.800000000000000711e+00
2.270000000000000018e+00
2.999999999999999889e-01
-5.919999999999999929e+00
1.900000000000000022e-01
2.600000000000000089e-01
-8.140000000000000568e+00
1.041999999999999993e+01
7.700000000000000178e+00
-1.746000000000000085e+01
5.129999999999999893e+00
1.100000000000000000e+01
1.489999999999999991e+00
-1.744000000000000128e+01
1.343999999999999950e+01
7.660000000000000142e+00
-9.509999999999999787e+00
-4.910000000000000142e+00
1.031000000000000050e+01
1.239999999999999991e+00
-1.016000000000000014e+01
8.320000000000000284e+00
1.327999999999999936e+01
1.040000000000000036e+00
-1.203999999999999915e+01
6.679999999999999716e+00
4.259999999999999787e+00
-5.429999999999999716e+00
-1.567999999999999972e+01
1.127999999999999936e+01
7.150000000000000355e+00
-7.110000000000000320e+00
1.169999999999999929e+00
1.451999999999999957e+01
5.240000000000000213e+00
-1.164000000000000057e+01
4.230000000000000426e+00
8.570000000000000284e+00
-4.030000000000000249e+00
-2.012999999999999901e+01
1.196000000000000085e+01
9.080000000000000071e+00
-1.919999999999999929e+00
-2.799999999999999822e+00
1.050000000000000000e+01
3.470000000000000195e+00
-1.248000000000000043e+01
4.349999999999999645e+00
6.009999999999999787e+00
-2.890000000000000124e+00
-2.287000000000000099e+01
1.222000000000000064e+01
7.049999999999999822e+00
-4.120000000000000107e+00
-3.640000000000000124e+00
1.357000000000000028e+01
3.189999999999999947e+00
-1.551999999999999957e+01
8.699999999999999289e+00
8.380000000000000782e+00
-1.323000000000000043e+01
-1.694000000000000128e+01
1.751000000000000156e+01
1.261999999999999922e+01
-1.134999999999999964e+01
2.700000000000000178e+00
1.810000000000000142e+01
3.549999999999999822e+00
-2.487999999999999901e+01
7.269999999999999574e+00
8.990000000000000213e+00
-5.080000000000000071e+00
-1.423000000000000043e+01
1.585999999999999943e+01
5.030000000000000249e+00
-7.950000000000000178e+00
2.220000000000000195e+00
1.365000000000000036e+01
1.929999999999999938e+00
-2.287000000000000099e+01
8.460000000000000853e+00
1.200000000000000000e+01
-5.629999999999999893e+00
-1.466000000000000014e+01
1.474000000000000021e+01
1.215000000000000036e+01
-9.400000000000000355e+00
-1.270000000000000018e+00
1.505000000000000071e+01
1.026999999999999957e+01
-1.232000000000000028e+01
-1.514000000000000057e+01
-4.128999999999999915e+01
-1.135300000000000011e+02
-2.729900000000000091e+02
2.771700000000000159e+02
4.660199999999999818e+02
1.760000000000000009e+00
-1.273499999999999943e+02
2.289099999999999966e+02
2.431999999999999886e+02
-2.921800000000000068e+02
3.832999999999999829e+01
-9.410000000000000142e+00
-7.071999999999999886e+01
2.298999999999999844e+01
1.465600000000000023e+02
-6.593999999999999773e+01
-1.352400000000000091e+02
2.907000000000000028e+01
1.709699999999999989e+02
-1.653400000000000034e+02
3.575999999999999801e+01
1.397100000000000080e+02
2.694000000000000128e+01
-1.062000000000000028e+02
5.882999999999999829e+01
-8.269999999999999574e+00
-1.839000000000000057e+01
2.500000000000000000e+00
-7.929999999999999716e+00
-1.241000000000000014e+01
-3.761999999999999744e+01
1.953999999999999915e+01
7.740000000000000213e+00
-1.258999999999999986e+01
-1.296000000000000085e+01
1.646000000000000085e+01
5.300000000000000266e-01
-2.203999999999999915e+01
1.525000000000000000e+01
7.089999999999999858e+00
-8.869999999999999218e+00
-5.790000000000000036e+00
1.121000000000000085e+01
2.600000000000000089e+00
-2.864999999999999858e+01
1.930000000000000071e+01
1.524000000000000021e+01
-4.000000000000000000e+00
-1.626999999999999957e+01
1.249000000000000021e+01
-2.700000000000000178e+00
-2.091000000000000014e+01
1.472000000000000064e+01
1.467999999999999972e+01
-1.090000000000000036e+01
-3.932000000000000028e+01
4.603000000000000114e+01
1.150000000000000000e+01
-8.400000000000000355e+00
-1.183999999999999986e+01
1.196000000000000085e+01
-4.990000000000000213e+00
-1.935999999999999943e+01
1.364000000000000057e+01
3.450000000000000178e+00
-7.969999999999999751e+00
-2.769999999999999929e+01
2.082000000000000028e+01
1.022000000000000064e+01
-8.070000000000000284e+00
9.230000000000000426e+00
7.469999999999999751e+00
8.000000000000000167e-02
-2.785000000000000142e+01
2.148000000000000043e+01
1.044999999999999929e+01
-8.359999999999999432e+00
-1.742000000000000171e+01
1.966000000000000014e+01
5.019999999999999574e+00
-1.601999999999999957e+01
1.466000000000000014e+01
1.115000000000000036e+01
-1.899999999999999911e+00
-3.175000000000000000e+01
1.830000000000000071e+01
1.108999999999999986e+01
-7.589999999999999858e+00
-1.178999999999999915e+01
1.903999999999999915e+01
5.639999999999999680e+00
-1.001999999999999957e+01
-8.599999999999999867e-01
-1.419999999999999929e+00
-4.469999999999999751e+00
-1.603000000000000114e+01
1.001999999999999957e+01
1.203999999999999915e+01
1.820000000000000062e+00
-1.299000000000000021e+01
2.391000000000000014e+01
6.889999999999999680e+00
-5.589999999999999858e+00
-2.455999999999999872e+01
5.950000000000000178e+00
-1.100000000000000006e-01
-1.148000000000000043e+01
9.269999999999999574e+00
1.193999999999999950e+01
-3.740000000000000213e+00
-2.053999999999999915e+01
9.160000000000000142e+00
2.466000000000000014e+01
-1.391999999999999993e+01
-1.814999999999999858e+01
5.250000000000000000e+00
1.439999999999999947e+00
-1.953000000000000114e+01
1.385999999999999943e+01
2.001999999999999957e+01
-9.699999999999999734e-01
-3.325000000000000000e+01
1.948000000000000043e+01
4.019999999999999574e+00
-8.400000000000000355e+00
2.240000000000000213e+00
9.660000000000000142e+00
-5.059999999999999609e+00
-4.153999999999999915e+01
1.832999999999999829e+01
1.286999999999999922e+01
-9.369999999999999218e+00
-1.100000000000000006e-01
1.534999999999999964e+01
4.370000000000000107e+00
-1.716000000000000014e+01
1.746000000000000085e+01
1.093999999999999950e+01
-1.630000000000000071e+01
-3.617000000000000171e+01
3.974000000000000199e+01
-6.330000000000000071e+00
-1.728000000000000114e+01
4.360000000000000320e+00
3.114000000000000057e+01
1.005000000000000071e+01
-1.396000000000000085e+01
-1.350000000000000089e+00
-4.629999999999999893e+00
-1.542999999999999972e+01
-2.855999999999999872e+01
1.198000000000000043e+01
8.859999999999999432e+00
-1.083999999999999986e+01
2.970000000000000195e+00
1.994000000000000128e+01
9.619999999999999218e+00
-1.932000000000000028e+01
1.268999999999999950e+01
7.330000000000000071e+00
-6.190000000000000391e+00
-1.792999999999999972e+01
1.355000000000000071e+01
6.519999999999999574e+00
-1.523000000000000043e+01
1.500000000000000000e+01
3.343999999999999773e+01
-4.780000000000000249e+00
-1.842999999999999972e+01
1.555000000000000071e+01
6.469999999999999751e+00
-1.330000000000000071e+01
-1.739999999999999858e+01
5.600000000000000533e-01
-4.349999999999999645e+00
-2.283999999999999986e+01
1.493999999999999950e+01
7.110000000000000320e+00
-2.689999999999999858e+01
-1.342599999999999909e+02
-1.349000000000000057e+02
2.214699999999999989e+02
9.546999999999999886e+01
7.921999999999999886e+01
-2.037899999999999920e+02
-2.768299999999999841e+02
3.185899999999999750e+02
1.290099999999999909e+02
3.108999999999999986e+01
-4.392999999999999972e+01
3.000000000000000000e+00
9.273999999999999488e+01
-2.115099999999999909e+02
1.570399999999999920e+02
6.730000000000000426e+00
-1.346999999999999886e+02
-2.248999999999999844e+01
-6.580000000000000071e+00
-8.669999999999999929e+00
-1.725300000000000011e+02
-5.568999999999999773e+01
1.715600000000000023e+02
9.490999999999999659e+01
1.457000000000000028e+01
6.606000000000000227e+01
4.181000000000000227e+01
-1.988899999999999864e+02
-1.028100000000000023e+02
2.878299999999999841e+02
8.765000000000000568e+01
-2.967099999999999795e+02
5.429999999999999716e+01
2.838899999999999864e+02
1.150900000000000034e+02
-9.528000000000000114e+01
-2.575299999999999727e+02
-1.641999999999999886e+02
1.676399999999999864e+02
1.193100000000000023e+02
1.919300000000000068e+02
-2.541800000000000068e+02
7.269999999999999574e+00
2.525500000000000114e+02
-1.371599999999999966e+02
-8.056999999999999318e+01
-2.114999999999999858e+01
8.119999999999999218e+00
2.030000000000000071e+01
-1.102999999999999936e+01
1.949999999999999956e+00
9.320000000000000284e+00
-3.359999999999999876e+00
-4.209999999999999964e+00
7.669999999999999929e+00
-8.699999999999999956e-01
-1.519999999999999929e+01
6.610000000000000320e+00
8.710000000000000853e+00
-4.150000000000000355e+00
-6.179999999999999716e+00
3.229999999999999982e+00
-3.089999999999999858e+00
-2.101999999999999957e+01
7.679999999999999716e+00
8.919999999999999929e+00
-5.259999999999999787e+00
-2.490000000000000213e+00
8.250000000000000000e+00
4.179999999999999716e+00
-1.168999999999999950e+01
7.290000000000000036e+00
5.110000000000000320e+00
-6.610000000000000320e+00
-8.019999999999999574e+00
5.830000000000000071e+00
1.060000000000000053e+00
-1.419999999999999929e+01
7.700000000000000178e+00
9.029999999999999361e+00
-9.000000000000000222e-01
-1.125999999999999979e+01
6.830000000000000071e+00
2.279999999999999805e+00
-8.740000000000000213e+00
-1.689999999999999947e+00
7.580000000000000071e+00
-1.219999999999999973e+00
-1.402999999999999936e+01
8.439999999999999503e+00
1.099000000000000021e+01
-1.290000000000000036e+00
-9.800000000000000711e+00
1.216999999999999993e+01
2.930000000000000160e+00
-3.289000000000000057e+01
-2.483999999999999986e+01
6.860000000000000320e+00
1.070000000000000062e+00
-6.200000000000000178e+00
8.089999999999999858e+00
6.870000000000000107e+00
-7.610000000000000320e+00
1.698999999999999844e+01
1.417999999999999972e+01
-4.419999999999999929e+00
1.800000000000000044e+00
1.326999999999999957e+01
7.349999999999999645e+00
-1.819000000000000128e+01
1.268999999999999950e+01
1.599000000000000021e+01
-4.240000000000000213e+00
-2.087999999999999901e+01
4.870000000000000107e+00
6.059999999999999609e+00
-7.549999999999999822e+00
7.879999999999999893e+00
9.429999999999999716e+00
3.060000000000000053e+00
-1.391000000000000014e+01
6.059999999999999609e+00
3.850000000000000089e+00
-7.269999999999999574e+00
-1.308000000000000007e+01
-2.069999999999999840e+00
-2.029999999999999805e+00
-1.083000000000000007e+01
6.669999999999999929e+00
5.019999999999999574e+00
-4.370000000000000107e+00
-1.388000000000000078e+01
-5.799999999999999600e-01
5.360000000000000320e+00
-4.440000000000000391e+00
-1.499999999999999944e-01
2.859999999999999876e+00
-7.700000000000000178e-01
-1.201999999999999957e+01
1.063000000000000078e+01
4.679999999999999716e+00
-3.540000000000000036e+00
-1.431000000000000050e+01
6.639999999999999680e+00
5.259999999999999787e+00
-5.629999999999999893e+00
-8.789999999999999147e+00
6.580000000000000071e+00
4.070000000000000284e+00
-4.309999999999999609e+00
3.629999999999999893e+00
7.190000000000000391e+00
-3.229999999999999982e+00
-1.644000000000000128e+01
8.250000000000000000e+00
6.650000000000000355e+00
-7.750000000000000000e+00
-1.850000000000000089e+00
9.240000000000000213e+00
5.919999999999999929e+00
-1.358000000000000007e+01
6.559999999999999609e+00
1.288000000000000078e+01
4.490000000000000213e+00
-1.830999999999999872e+01
8.429999999999999716e+00
5.450000000000000178e+00
-6.919999999999999929e+00
-3.370000000000000107e+00
1.316999999999999993e+01
9.019999999999999574e+00
-1.003999999999999915e+01
7.370000000000000107e+00
9.779999999999999361e+00
5.080000000000000071e+00
-1.964999999999999858e+01
4.799999999999999822e+00
5.089999999999999858e+00
-4.259999999999999787e+00
-7.849999999999999645e+00
1.253999999999999915e+01
6.679999999999999716e+00
-1.222000000000000064e+01
2.250000000000000000e+00
9.109999999999999432e+00
6.099999999999999867e-01
-1.632999999999999829e+01
1.110000000000000098e+00
2.589999999999999858e+00
-4.120000000000000107e+00
-8.820000000000000284e+00
2.870000000000000107e+00
1.600000000000000089e+00
-1.251999999999999957e+01
3.779999999999999805e+00
9.099999999999999645e+00
1.229999999999999982e+00
-1.358999999999999986e+01
6.580000000000000071e+00
5.669999999999999929e+00
-6.629999999999999893e+00
-1.600000000000000089e+00
8.910000000000000142e+00
2.350000000000000089e+00
-1.626999999999999957e+01
1.150999999999999979e+01
1.310999999999999943e+01
1.010000000000000009e+00
-1.493999999999999950e+01
4.860000000000000320e+00
1.006000000000000050e+01
-2.682999999999999829e+01
7.009999999999999787e+00
1.099000000000000021e+01
-3.020000000000000018e+00
-2.580000000000000071e+00
4.830000000000000071e+00
1.850000000000000089e+00
-1.265000000000000036e+01
7.139999999999999680e+00
8.119999999999999218e+00
-6.400000000000000355e+00
-6.410000000000000142e+00
8.740000000000000213e+00
2.589999999999999858e+00
-1.892000000000000171e+01
8.740000000000000213e+00
1.156000000000000050e+01
-7.600000000000000089e-01
-1.549000000000000021e+01
7.559999999999999609e+00
4.290000000000000036e+00
-1.251999999999999957e+01
3.620000000000000107e+00
1.085999999999999943e+01
1.000999999999999979e+01
-6.500000000000000000e+00
2.673000000000000043e+01
1.744999999999999929e+01
-2.480999999999999872e+01
-9.939999999999999503e+00
1.400000000000000133e-01
-7.910000000000000142e+00
-3.342000000000000171e+01
1.116999999999999993e+01
1.233999999999999986e+01
-3.919999999999999929e+00
-4.830000000000000071e+00
1.149000000000000021e+01
1.399999999999999911e+00
-1.525999999999999979e+01
6.030000000000000249e+00
9.679999999999999716e+00
-4.959999999999999964e+00
-1.728999999999999915e+01
8.810000000000000497e+00
-4.179999999999999716e+00
-1.297000000000000064e+01
2.000000000000000000e+00
1.801999999999999957e+01
6.389999999999999680e+00
-1.689999999999999858e+01
1.228999999999999915e+01
3.229999999999999982e+00
-1.451999999999999957e+01
5.759999999999999787e+00
1.208999999999999986e+01
-6.599999999999999645e+00
-1.441000000000000014e+01
1.864999999999999858e+01
8.789999999999999147e+00
-1.525000000000000000e+01
2.850000000000000089e+00
1.041999999999999993e+01
-2.250000000000000000e+00
-2.692999999999999972e+01
1.333000000000000007e+01
1.081000000000000050e+01
-8.179999999999999716e+00
1.250000000000000000e+00
1.372000000000000064e+01
2.000000000000000111e-01
-2.623000000000000043e+01
1.725000000000000000e+01
8.410000000000000142e+00
-1.053999999999999915e+01
-9.130000000000000782e+00
1.135999999999999943e+01
-8.000000000000000444e-01
-2.567000000000000171e+01
1.485999999999999943e+01
1.561999999999999922e+01
-4.330000000000000071e+00
-1.864000000000000057e+01
1.860000000000000142e+01
5.799999999999999822e+00
-1.538000000000000078e+01
4.519999999999999574e+00
9.859999999999999432e+00
-1.959999999999999964e+00
-2.610000000000000142e+01
2.235999999999999943e+01
1.096000000000000085e+01
-6.969999999999999751e+00
-1.283000000000000007e+01
1.826999999999999957e+01
3.459999999999999964e+00
-1.547000000000000064e+01
-6.259999999999999787e+00
-2.612999999999999901e+01
-3.215999999999999659e+01
-1.080300000000000011e+02
1.923199999999999932e+02
6.320000000000000284e+01
5.242000000000000171e+01
-1.110400000000000063e+02
-3.336999999999999744e+01
-3.928000000000000114e+01
1.035000000000000000e+02
1.996899999999999977e+02
-1.400699999999999932e+02
-2.354000000000000057e+02
3.330000000000000071e+00
5.688300000000000409e+02
-1.606899999999999977e+02
-2.055000000000000071e+01
-3.169999999999999929e+00
-2.088799999999999955e+02
-4.940000000000000391e+00
2.679200000000000159e+02
-1.292400000000000091e+02
-2.841000000000000014e+01
-3.081100000000000136e+02
7.301999999999999602e+01
9.337999999999999545e+01
5.471000000000000085e+01
2.592000000000000171e+01
3.734000000000000341e+01
-1.081299999999999955e+02
1.871000000000000085e+01
5.982999999999999829e+01
3.489999999999999858e+01
-1.461200000000000045e+02
7.053000000000000114e+01
1.317400000000000091e+02
3.189999999999999947e+00
-1.369300000000000068e+02
-1.505000000000000000e+02
-1.319099999999999966e+02
1.162399999999999949e+02
4.810000000000000142e+01
-9.018999999999999773e+01
-1.878000000000000114e+02
-2.623600000000000136e+02
2.280600000000000023e+02
1.086299999999999955e+02
-2.103999999999999915e+01
-1.899099999999999966e+02
1.681500000000000057e+02
1.751500000000000057e+02
1.409900000000000091e+02
-3.339999999999999858e+00
-1.680900000000000034e+02
-3.222300000000000182e+02
-1.116899999999999977e+02
1.411800000000000068e+02
7.384000000000000341e+01
-7.987999999999999545e+01
-9.606999999999999318e+01
-3.474000000000000199e+01
9.789999999999999147e+00
1.632999999999999829e+01
5.579999999999999716e+01
-1.324199999999999875e+02
1.676200000000000045e+02
-1.134300000000000068e+02
4.521000000000000085e+01
-9.795999999999999375e+01
2.388400000000000034e+02
9.026000000000000512e+01
-7.329000000000000625e+01
-4.457999999999999829e+01
4.490000000000000213e+00
1.792000000000000171e+01
-2.455000000000000071e+01
6.660000000000000142e+00
-1.778000000000000114e+01
-1.075999999999999979e+01
4.526800000000000068e+02
-2.174600000000000080e+02
-4.059000000000000341e+01
2.055000000000000071e+01
-4.920000000000000284e+01
2.689999999999999858e+01
-4.778000000000000114e+01
1.492999999999999972e+01
-3.435000000000000142e+01
-5.878000000000000114e+01
1.337100000000000080e+02
1.055100000000000051e+02
2.000000000000000000e+01
-8.290000000000000568e+01
-2.580799999999999841e+02
-2.589999999999999858e+00
1.150799999999999983e+02
7.650000000000000355e+00
-7.848000000000000398e+01
7.329000000000000625e+01
8.185999999999999943e+01
-1.102500000000000000e+02
1.982999999999999829e+01
-5.964000000000000057e+01
-1.187699999999999960e+02
3.284900000000000091e+02
-6.367000000000000171e+01
1.019999999999999929e+01
-9.975000000000000000e+01
4.190999999999999659e+01
1.863300000000000125e+02
-1.085999999999999943e+02
6.335000000000000142e+01
-1.851899999999999977e+02
-1.312199999999999989e+02
-1.725000000000000000e+01
6.179999999999999716e+01
9.540000000000000568e+01
-6.034000000000000341e+01
5.061999999999999744e+01
2.332000000000000028e+01
-1.711899999999999977e+02
-1.371999999999999886e+02
7.343000000000000682e+01
5.946000000000000085e+01
-3.187000000000000099e+01
4.996999999999999886e+01
-2.565799999999999841e+02
6.293999999999999773e+01
-7.179999999999999716e+01
8.078000000000000114e+01
3.429999999999999716e+01
2.689999999999999947e+00
-3.413000000000000256e+01
-8.050000000000000711e+00
-3.203999999999999915e+01
1.567999999999999972e+01
3.592000000000000171e+01
5.339000000000000057e+01
2.069000000000000128e+01
-2.203999999999999915e+01
-6.953000000000000114e+01
-2.908999999999999986e+01
-9.045999999999999375e+01
9.515999999999999659e+01
3.835999999999999943e+01
-9.068000000000000682e+01
3.376299999999999955e+02
-2.955899999999999750e+02
-3.180799999999999841e+02
2.857599999999999909e+02
-3.317699999999999818e+02
3.672400000000000091e+02
3.756200000000000045e+02
-1.762000000000000099e+01
-3.217500000000000000e+02
-8.739199999999999591e+02
-1.318400000000000034e+02
3.978999999999999915e+01
1.202300000000000040e+02
4.226499999999999773e+02
2.420900000000000034e+02
-3.086600000000000250e+02
3.832999999999999829e+01
1.362199999999999989e+02
-7.985999999999999943e+01
3.944399999999999977e+02
2.719300000000000068e+02
-4.904900000000000091e+02
-8.000000000000000000e+00
-1.491000000000000014e+01
1.966299999999999955e+02
-4.832999999999999829e+01
1.537599999999999909e+02
5.480000000000000426e+00
-1.060499999999999972e+02
-3.301399999999999864e+02
-9.787000000000000455e+01
2.000099999999999909e+02
2.171899999999999977e+02
-1.379099999999999966e+02
2.619000000000000128e+01
-8.245999999999999375e+01
2.575500000000000114e+02
2.839000000000000057e+01
-4.638700000000000045e+02
3.417000000000000171e+01
1.272500000000000000e+02
3.625000000000000000e+01
-1.955000000000000071e+01
-2.503999999999999915e+01
1.072000000000000028e+02
1.026099999999999994e+02
-9.354000000000000625e+01
2.889999999999999858e+01
-9.171999999999999886e+01
1.659199999999999875e+02
-1.660000000000000000e+02
-1.683600000000000136e+02
2.626999999999999957e+01
-1.231299999999999955e+02
1.234399999999999977e+02
-7.359000000000000341e+01
7.945000000000000284e+01
5.864000000000000057e+01
4.317000000000000171e+01
-9.448999999999999488e+01
-1.677599999999999909e+02
-9.006000000000000227e+01
1.586699999999999875e+02
2.511500000000000057e+02
4.607999999999999829e+01
-1.907999999999999829e+01
-2.535000000000000142e+01
2.355000000000000071e+01
-1.520000000000000018e+00
1.469099999999999966e+02
-5.625000000000000000e+01
-2.335000000000000142e+01
9.257999999999999829e+01
1.721800000000000068e+02
-9.029999999999999361e+00
-3.244200000000000159e+02
2.493499999999999943e+02
-1.989999999999999858e+01
-5.331000000000000227e+01
-3.746999999999999886e+01
-5.349000000000000199e+01
3.345000000000000284e+01
1.978899999999999864e+02
8.223999999999999488e+01
-2.541000000000000014e+01
-3.601600000000000250e+02
1.897500000000000000e+02
-3.767999999999999972e+01
-1.229699999999999989e+02
2.213700000000000045e+02
1.053199999999999932e+02
-2.505000000000000000e+02
-2.063499999999999943e+02
1.278700000000000045e+02
-5.503000000000000114e+01
-8.046999999999999886e+01
3.682000000000000028e+01
1.295399999999999920e+02
-2.077700000000000102e+02
4.725000000000000000e+01
1.641899999999999977e+02
-1.005699999999999932e+02
4.692999999999999972e+01
2.005600000000000023e+02
1.261999999999999922e+01
-1.930000000000000000e+02
-8.289000000000000057e+01
-5.407999999999999829e+01
9.454999999999999716e+01
5.817000000000000171e+01
2.533100000000000023e+02
4.736999999999999744e+01
-2.317400000000000091e+02
2.361399999999999864e+02
-5.095000000000000284e+01
-8.323999999999999488e+01
-1.709399999999999977e+02
-2.342000000000000171e+01
2.539499999999999886e+02
4.019999999999999574e+00
-6.336999999999999744e+01
8.337000000000000455e+01
1.684799999999999898e+02
-4.082099999999999795e+02
2.015600000000000023e+02
2.079199999999999875e+02
1.153700000000000045e+02
-3.688999999999999773e+02
4.946999999999999886e+01
1.853999999999999915e+01
2.544499999999999886e+02
5.289999999999999858e+01
-1.297800000000000011e+02
-2.039099999999999966e+02
1.628700000000000045e+02
2.870699999999999932e+02
-4.486499999999999773e+02
2.845199999999999818e+02
1.543300000000000125e+02
-1.086200000000000045e+02
-1.678300000000000125e+02
3.385999999999999943e+01
4.211999999999999744e+01
-6.028999999999999915e+01
7.360000000000000320e+00
2.366899999999999977e+02
-2.256899999999999977e+02
5.957000000000000028e+01
-6.795000000000000284e+01
-1.415200000000000102e+02
1.015799999999999983e+02
-1.835399999999999920e+02
-5.004999999999999716e+01
-6.281000000000000227e+01
3.519900000000000091e+02
3.121000000000000085e+01
4.280000000000000249e+00
-1.194800000000000040e+02
-5.721999999999999886e+01
-1.996999999999999886e+01
5.417000000000000171e+01
-2.270200000000000102e+02
7.270000000000000284e+01
1.892899999999999920e+02
-3.941999999999999886e+02
1.706500000000000057e+02
9.192000000000000171e+01
2.085000000000000142e+01
1.160999999999999943e+02
-2.881999999999999886e+02
3.775999999999999801e+01
1.279099999999999966e+02
1.400999999999999979e+01
-1.651999999999999957e+01
-2.580999999999999872e+01
-1.968700000000000045e+02
1.094899999999999949e+02
1.643199999999999932e+02
1.190699999999999932e+02
-1.566200000000000045e+02
-4.596999999999999886e+01
3.518799999999999955e+02
-3.088199999999999932e+02
3.959000000000000341e+01
-8.815000000000000568e+01
-1.083299999999999983e+02
-5.660000000000000142e+01
1.588400000000000034e+02
2.496999999999999886e+01
-1.229500000000000028e+02
-1.044999999999999929e+01
-1.056000000000000050e+01
-8.431999999999999318e+01
-4.753000000000000114e+01
-1.531200000000000045e+02
2.012400000000000091e+02
7.303000000000000114e+01
6.437000000000000455e+01
-5.738000000000000256e+01
-2.006500000000000057e+02
1.445999999999999943e+02
6.768000000000000682e+01
8.640000000000000568e+00
-8.604000000000000625e+01
1.491000000000000014e+01
1.969399999999999977e+02
-9.159999999999999432e+01
-7.973999999999999488e+01
-1.609199999999999875e+02
6.321999999999999886e+01
1.285200000000000102e+02
-5.053000000000000114e+01
-2.869999999999999929e+01
-7.126999999999999602e+01
1.840300000000000011e+02
-2.901999999999999957e+01
-5.207000000000000028e+01
-2.464900000000000091e+02
9.581999999999999318e+01
1.385699999999999932e+02
-7.859000000000000341e+01
-6.756000000000000227e+01
1.047000000000000064e+01
1.598899999999999864e+02
4.179999999999999716e+01
-2.355999999999999872e+01
-1.479600000000000080e+02
1.603600000000000136e+02
7.079000000000000625e+01
-8.907999999999999829e+01
-2.307899999999999920e+02
6.395000000000000284e+01
1.501699999999999875e+02
-1.084099999999999966e+02
-1.213400000000000034e+02
-1.025999999999999979e+01
1.376200000000000045e+02
3.422999999999999687e+01
-3.496000000000000085e+01
-6.385999999999999943e+01
2.063700000000000045e+02
-1.980000000000000071e+01
-8.271999999999999886e+01
-1.602800000000000011e+02
1.674799999999999898e+02
7.512999999999999545e+01
3.035000000000000142e+01
-2.005200000000000102e+02
-2.644599999999999795e+02
1.001700000000000017e+02
2.966399999999999864e+02
1.173799999999999955e+02
-6.968000000000000682e+01
-2.835000000000000142e+01
-1.024899999999999949e+02
7.159999999999999432e+01
-1.390699999999999932e+02
1.037699999999999960e+02
3.349399999999999977e+02
-3.695000000000000284e+01
-3.764200000000000159e+02
-2.169699999999999989e+02
5.985000000000000142e+01
1.274000000000000057e+02
1.846800000000000068e+02
7.896999999999999886e+01
9.790999999999999659e+01
-2.475000000000000000e+01
2.339000000000000057e+01
-2.849499999999999886e+02
4.357999999999999829e+01
3.742999999999999972e+01
-1.272800000000000011e+02
-9.940999999999999659e+01
1.080199999999999960e+02
1.000000000000000000e+00
6.660000000000000142e+00
-1.564000000000000057e+01
-1.010600000000000023e+02
1.528600000000000136e+02
3.649000000000000199e+01
-1.716000000000000014e+01
-1.929499999999999886e+02
7.862000000000000455e+01
5.654999999999999716e+01
-1.420000000000000000e+02
-1.068599999999999994e+02
8.864000000000000057e+01
4.007000000000000028e+01
3.390999999999999659e+01
-1.632000000000000028e+01
-6.640999999999999659e+01
1.121400000000000006e+02
-1.310000000000000053e+00
-2.617999999999999972e+01
-1.295399999999999920e+02
1.605500000000000114e+02
-2.583999999999999986e+01
5.396000000000000085e+01
-3.281200000000000045e+02
1.892199999999999989e+02
3.785000000000000142e+01
5.160000000000000142e+00
-2.253100000000000023e+02
1.212800000000000011e+02
3.731000000000000227e+01
-1.371000000000000085e+01
-3.653000000000000114e+01
6.028999999999999915e+01
8.519999999999999574e+00
4.247999999999999687e+01
2.585999999999999943e+01
-2.025999999999999943e+02
1.231500000000000057e+02
1.464000000000000057e+01
-6.820999999999999375e+01
-1.422800000000000011e+02
1.372800000000000011e+02
-1.955999999999999872e+01
-5.265999999999999659e+01
-2.999999999999999889e-01
6.754999999999999716e+01
9.446999999999999886e+01
1.320999999999999943e+02
-2.407700000000000102e+02
1.553700000000000045e+02
-6.147999999999999687e+01
7.925000000000000000e+01
1.383799999999999955e+02
1.785900000000000034e+02
-6.218999999999999773e+01
-4.464499999999999886e+02
1.853499999999999943e+02
-3.387099999999999795e+02
1.531399999999999864e+02
4.825000000000000000e+01
4.000999999999999801e+01
-2.050800000000000125e+02
-1.294999999999999929e+01
8.970000000000000639e+00
-3.967000000000000171e+01
2.030399999999999920e+02
-8.231999999999999318e+01
5.996999999999999886e+01
9.606000000000000227e+01
-2.142999999999999972e+01
-5.500000000000000000e+01
1.191999999999999993e+01
-3.664000000000000057e+01
-6.743000000000000682e+01
-1.866599999999999966e+02
6.570999999999999375e+01
1.142399999999999949e+02
-1.428000000000000114e+02
-2.712999999999999901e+01
-5.625999999999999801e+01
-3.210999999999999943e+01
1.448600000000000136e+02
6.978000000000000114e+01
-1.829699999999999989e+02
-3.536999999999999744e+01
1.532000000000000028e+01
2.549399999999999977e+02
-1.690099999999999909e+02
-3.188700000000000045e+02
1.721299999999999955e+02
2.511999999999999886e+02
-1.592899999999999920e+02
-1.568400000000000034e+02
-3.703000000000000114e+01
1.972500000000000000e+02
8.684999999999999432e+01
3.756000000000000227e+01
-3.220000000000000000e+02
2.497599999999999909e+02
1.021200000000000045e+02
-2.228799999999999955e+02
-1.473199999999999932e+02
2.262000000000000099e+01
2.050200000000000102e+02
8.104000000000000625e+01
-4.375000000000000000e+01
-2.763999999999999773e+02
2.199399999999999977e+02
1.079899999999999949e+02
-2.579800000000000182e+02
-1.359799999999999898e+02
2.407599999999999909e+02
1.259099999999999966e+02
6.840000000000000568e+01
2.651999999999999957e+01
-2.431100000000000136e+02
1.411599999999999966e+02
6.925000000000000000e+01
-1.764099999999999966e+02
-1.134500000000000028e+02
5.174000000000000199e+01
1.096500000000000057e+02
-2.182000000000000028e+01
1.302999999999999936e+01
-2.139099999999999966e+02
9.590999999999999659e+01
7.809999999999999432e+01
-1.279200000000000017e+02
-7.700000000000000000e+01
-1.418999999999999950e+01
1.615399999999999920e+02
2.632999999999999829e+01
1.219200000000000017e+02
-3.908000000000000114e+02
2.085000000000000000e+02
1.194099999999999966e+02
1.005000000000000071e+01
-7.459000000000000341e+01
5.139000000000000057e+01
1.745800000000000125e+02
1.299000000000000021e+01
-9.129000000000000625e+01
-2.041800000000000068e+02
1.208900000000000006e+02
1.614600000000000080e+02
2.594999999999999929e+01
-6.895999999999999375e+01
-2.226100000000000136e+02
1.734099999999999966e+02
2.790000000000000036e+00
9.019999999999999574e+00
-1.883100000000000023e+02
1.645000000000000000e+02
1.285900000000000034e+02
1.782999999999999829e+01
-7.200000000000000178e+00
-1.544699999999999989e+02
1.723499999999999943e+02
-5.332999999999999829e+01
-4.696999999999999886e+01
-1.545200000000000102e+02
1.490500000000000114e+02
1.412800000000000011e+02
-1.295999999999999943e+02
3.228999999999999915e+01
-7.515000000000000568e+01
1.485699999999999932e+02
-4.052000000000000313e+01
-2.339000000000000057e+01
-1.808799999999999955e+02
1.746000000000000085e+01
1.187900000000000063e+02
5.089999999999999858e+00
-1.721800000000000068e+02
6.556000000000000227e+01
1.552599999999999909e+02
-7.365000000000000568e+01
9.668999999999999773e+01
-1.267699999999999960e+02
6.259000000000000341e+01
3.229999999999999982e+00
-7.150000000000000000e+01
-1.155199999999999960e+02
8.718000000000000682e+01
8.928000000000000114e+01
-1.768300000000000125e+02
-3.696000000000000085e+01
-6.256000000000000227e+01
1.013499999999999943e+02
3.021999999999999886e+01
3.509000000000000341e+01
-4.740000000000000213e+00
1.889000000000000057e+01
9.509999999999999787e+00
-1.302700000000000102e+02
-1.517400000000000091e+02
9.750000000000000000e+01
1.494900000000000091e+02
-1.161400000000000006e+02
-9.085999999999999943e+01
3.471999999999999886e+01
9.820000000000000284e+01
-2.455000000000000071e+01
1.003400000000000034e+02
-2.743700000000000045e+02
1.180999999999999943e+02
6.293999999999999773e+01
-1.356500000000000057e+02
-1.360999999999999943e+02
3.981000000000000227e+01
7.043999999999999773e+01
1.967999999999999972e+01
-6.568999999999999773e+01
-3.682999999999999829e+01
1.263900000000000006e+02
9.460000000000000853e+00
-5.118999999999999773e+01
-1.647199999999999989e+02
1.057099999999999937e+02
1.067300000000000040e+02
-8.248999999999999488e+01
-1.231400000000000006e+02
9.464000000000000057e+01
9.251999999999999602e+01
1.735000000000000142e+01
2.935999999999999943e+01
-1.591299999999999955e+02
9.318999999999999773e+01
-3.410000000000000142e+00
-7.962999999999999545e+01
-4.704999999999999716e+01
2.155999999999999872e+01
1.001500000000000057e+02
-9.768999999999999773e+01
-2.830000000000000071e+00
-8.599999999999999645e+00
9.804000000000000625e+01
-1.369999999999999929e+01
1.210900000000000034e+02
-1.199899999999999949e+02
-4.196999999999999886e+01
-1.091299999999999955e+02
1.620099999999999909e+02
5.996999999999999886e+01
-3.238000000000000256e+01
1.023799999999999955e+02
-5.092000000000000171e+01
9.479999999999999716e+01
-1.798000000000000114e+02
1.101200000000000045e+02
2.080000000000000071e+00
-1.014899999999999949e+02
-2.258999999999999986e+01
7.668000000000000682e+01
8.428000000000000114e+01
-4.009999999999999787e+00
6.999999999999999556e-01
-6.657999999999999829e+01
9.979999999999999716e+01
-2.676000000000000156e+01
1.760999999999999943e+01
-1.508100000000000023e+02
1.980000000000000000e+02
1.150000000000000000e+02
-1.602899999999999920e+02
8.368999999999999773e+01
-7.530000000000000249e+00
-1.614199999999999875e+02
7.954999999999999716e+01
5.202000000000000313e+01
-3.098999999999999844e+01
-8.743000000000000682e+01
9.500000000000000000e+01
9.992000000000000171e+01
-3.485500000000000114e+02
8.201000000000000512e+01
2.348000000000000043e+01
-3.715999999999999659e+01
-1.817299999999999898e+02
-1.010999999999999943e+01
6.879000000000000625e+01
1.053400000000000034e+02
2.224300000000000068e+02
-2.821600000000000250e+02
-1.134599999999999937e+02
-3.058999999999999986e+01
-1.507000000000000028e+01
5.920000000000000284e+01
2.778999999999999915e+01
1.633700000000000045e+02
-1.366299999999999955e+02
-1.257800000000000011e+02
-2.323999999999999844e+01
-3.553999999999999915e+01
4.453000000000000114e+01
1.571000000000000085e+01
5.778999999999999915e+01
4.760999999999999943e+01
-5.799999999999999600e-01
-3.078999999999999915e+01
2.226999999999999957e+01
-1.018599999999999994e+02
-7.549999999999999822e+00
2.500000000000000000e+01
1.113799999999999955e+02
-1.057999999999999972e+02
-6.820999999999999375e+01
2.845400000000000205e+02
3.496000000000000085e+01
-1.611800000000000068e+02
1.412299999999999898e+02
1.092800000000000011e+02
-1.136400000000000006e+02
1.052199999999999989e+02
-1.613700000000000045e+02
3.656000000000000227e+01
2.155000000000000071e+01
4.169999999999999929e+00
-1.069699999999999989e+02
3.073000000000000043e+01
2.031500000000000057e+02
-1.130799999999999983e+02
-3.335000000000000142e+01
-1.461999999999999922e+01
1.093599999999999994e+02
-1.558000000000000007e+01
1.730000000000000071e+01
-1.677100000000000080e+02
7.465000000000000568e+01
3.757000000000000028e+01
-1.236200000000000045e+02
-1.662999999999999901e+01
1.177099999999999937e+02
9.371999999999999886e+01
-9.439000000000000057e+01
-2.180000000000000160e+00
3.257000000000000028e+01
6.953000000000000114e+01
-2.407000000000000028e+01
5.996999999999999886e+01
-2.038799999999999955e+02
8.950000000000000000e+01
1.339000000000000057e+01
-4.340999999999999659e+01
-8.696999999999999886e+01
6.543000000000000682e+01
8.671999999999999886e+01
-1.117999999999999972e+01
1.712000000000000099e+01
-3.139999999999999858e+01
8.415000000000000568e+01
1.080000000000000071e+00
4.919999999999999929e+00
-1.372100000000000080e+02
1.227000000000000028e+02
4.174000000000000199e+01
-8.512000000000000455e+01
-6.721999999999999886e+01
1.042099999999999937e+02
5.614000000000000057e+01
5.089999999999999858e+00
-1.559999999999999964e+01
-2.523999999999999844e+01
5.028000000000000114e+01
3.091000000000000014e+01
-5.642000000000000171e+01
-1.818899999999999864e+02
9.501999999999999602e+01
2.637999999999999901e+01
-1.062699999999999960e+02
-1.145600000000000023e+02
4.464000000000000057e+01
1.423300000000000125e+02
9.580000000000000071e+00
-9.019999999999999574e+00
-8.109999999999999432e+00
1.008499999999999943e+02
1.411999999999999922e+01
-5.892000000000000171e+01
-1.413799999999999955e+02
5.959000000000000341e+01
8.225000000000000000e+01
-1.279399999999999977e+02
1.064000000000000057e+01
-2.541000000000000014e+01
5.575999999999999801e+01
-2.842000000000000171e+01
2.082999999999999829e+01
-1.491699999999999875e+02
1.083700000000000045e+02
3.725999999999999801e+01
-1.928999999999999915e+01
-1.707199999999999989e+02
5.806000000000000227e+01
7.978000000000000114e+01
-4.240999999999999659e+01
-4.161999999999999744e+01
9.419999999999999929e+00
1.354900000000000091e+02
1.919999999999999929e+01
-6.139999999999999680e+00
-1.029000000000000057e+02
1.332700000000000102e+02
3.800000000000000044e-01
-1.117500000000000000e+02
-9.412000000000000455e+01
9.229999999999999716e+01
5.786999999999999744e+01
-1.119699999999999989e+02
-1.803000000000000114e+01
9.501000000000000512e+01
5.385000000000000142e+01
1.379999999999999893e+00
4.142000000000000171e+01
-8.404000000000000625e+01
2.807000000000000028e+01
1.143999999999999950e+01
-1.016099999999999994e+02
-4.015999999999999659e+01
-7.700000000000000178e-01
1.000199999999999960e+02
-5.140999999999999659e+01
-1.526200000000000045e+02
3.459800000000000182e+02
-4.913000000000000256e+01
4.264999999999999858e+01
-2.650000000000000000e+01
-2.910899999999999750e+02
-2.166000000000000014e+01
1.427500000000000000e+02
2.514999999999999858e+01
-5.267999999999999972e+01
1.504600000000000080e+02
3.427000000000000313e+01
-1.379600000000000080e+02
1.535699999999999932e+02
-1.526399999999999864e+02
4.527000000000000313e+01
7.500000000000000000e-01
3.714000000000000057e+01
1.700000000000000000e+01
1.538000000000000078e+01
-1.060000000000000053e+00
-4.496000000000000085e+01
-6.459999999999999964e+00
-5.129999999999999893e+00
2.039999999999999858e+01
9.300000000000000488e-01
-1.476999999999999957e+01
1.619000000000000128e+01
-2.341000000000000014e+01
1.607999999999999829e+01
-3.535999999999999943e+01
1.198000000000000043e+01
7.679999999999999716e+00
3.141000000000000014e+01
-2.955000000000000071e+01
-4.863000000000000256e+01
2.351999999999999957e+01
3.904999999999999716e+01
-9.669999999999999929e+00
-2.151999999999999957e+01
-1.692999999999999972e+01
2.417999999999999972e+01
2.155999999999999872e+01
-2.910999999999999943e+01
-1.721000000000000085e+01
1.642999999999999972e+01
1.630000000000000071e+01
3.540999999999999659e+01
-6.252000000000000313e+01
2.567000000000000171e+01
-2.212000000000000099e+01
2.041000000000000014e+01
3.697999999999999687e+01
-2.262999999999999901e+01
4.629999999999999893e+00
-3.051999999999999957e+01
2.899999999999999911e+00
9.051000000000000512e+01
2.620000000000000107e+00
-3.554100000000000250e+02
6.789000000000000057e+01
2.063400000000000034e+02
3.614000000000000057e+01
-2.623000000000000043e+01
3.392000000000000171e+01
1.414300000000000068e+02
-1.265100000000000051e+02
-4.727000000000000313e+01
-6.509999999999999787e+00
-6.919999999999999929e+00
-2.892999999999999972e+01
-1.407000000000000028e+01
-1.459999999999999964e+01
4.195000000000000284e+01
4.378000000000000114e+01
-8.140000000000000568e+00
1.805000000000000071e+01
-1.032199999999999989e+02
1.907400000000000091e+02
-3.423199999999999932e+02
1.939099999999999966e+02
-1.978000000000000114e+01
1.303400000000000034e+02
-2.583299999999999841e+02
-4.410999999999999943e+01
1.754000000000000057e+02
-1.955699999999999932e+02
1.343899999999999864e+02
-3.500000000000000000e+00
-2.825899999999999750e+02
3.392999999999999972e+01
-8.535999999999999943e+01
3.230099999999999909e+02
9.876000000000000512e+01
-2.987300000000000182e+02
1.323000000000000114e+02
-6.970000000000000284e+01
3.245000000000000284e+01
-9.060000000000000497e+00
1.018900000000000006e+02
-4.000000000000000000e+01
5.200000000000000178e+00
3.731000000000000227e+01
7.968999999999999773e+01
1.597000000000000064e+01
-3.332000000000000028e+01
1.118499999999999943e+02
-7.592000000000000171e+01
-3.639000000000000057e+01
1.544799999999999898e+02
1.286399999999999864e+02
-1.402500000000000000e+02
5.015999999999999659e+01
-7.553000000000000114e+01
1.504199999999999875e+02
1.762500000000000000e+02
-1.810500000000000114e+02
1.453199999999999932e+02
-1.691299999999999955e+02
-6.550000000000000000e+01
5.267000000000000171e+01
-4.925999999999999801e+01
-7.462000000000000455e+01
5.700999999999999801e+01
-1.603400000000000034e+02
9.310999999999999943e+01
1.165000000000000036e+01
-1.140499999999999972e+02
1.702100000000000080e+02
2.064099999999999966e+02
-1.488700000000000045e+02
6.186999999999999744e+01
-2.828700000000000045e+02
5.059000000000000341e+01
1.617700000000000102e+02
-1.940099999999999909e+02
9.650000000000000355e+00
-1.017900000000000063e+02
2.350399999999999920e+02
2.205000000000000071e+01
1.710000000000000142e+01
-2.447500000000000000e+02
1.156899999999999977e+02
1.644499999999999886e+02
-5.057999999999999829e+01
1.003999999999999915e+01
-5.786999999999999744e+01
2.011899999999999977e+02
-3.087999999999999901e+01
-2.992999999999999972e+01
-2.800400000000000205e+02
7.150000000000000000e+01
1.143599999999999994e+02
-8.953000000000000114e+01
3.982999999999999829e+01
-1.731599999999999966e+02
1.275000000000000000e+01
7.356999999999999318e+01
-1.271000000000000085e+01
1.520000000000000018e+00
-8.403000000000000114e+01
-1.203199999999999932e+02
3.243999999999999773e+01
1.547000000000000064e+01
-4.535000000000000142e+01
-7.665000000000000568e+01
4.729999999999999716e+01
-2.177400000000000091e+02
3.029100000000000250e+02
4.889999999999999858e+01
1.498000000000000114e+02
-1.099899999999999949e+02
-7.684000000000000341e+01
3.620000000000000107e+00
-6.350000000000000000e+01
-9.443000000000000682e+01
5.463000000000000256e+01
-2.565600000000000023e+02
7.034999999999999432e+01
-5.536999999999999744e+01
1.370099999999999909e+02
-1.660300000000000011e+02
-8.889000000000000057e+01
2.673000000000000114e+02
-8.771999999999999886e+01
-1.108700000000000045e+02
1.328899999999999864e+02
-3.780500000000000114e+02
2.590799999999999841e+02
2.075500000000000114e+02
-7.009999999999999432e+01
6.853000000000000114e+01
-2.661899999999999977e+02
3.159200000000000159e+02
-7.809000000000000341e+01
8.515999999999999659e+01
-3.543700000000000045e+02
9.426000000000000512e+01
1.951800000000000068e+02
-2.334900000000000091e+02
1.124099999999999966e+02
2.145600000000000023e+02
-5.550000000000000000e+01
-1.614099999999999966e+02
1.699499999999999886e+02
-2.237199999999999989e+02
9.070000000000000284e+00
7.868999999999999773e+01
-1.846200000000000045e+02
3.569999999999999840e+00
-4.960999999999999943e+01
2.157700000000000102e+02
-2.348999999999999844e+01
5.867999999999999972e+01
-7.317000000000000171e+01
1.297199999999999989e+02
5.717999999999999972e+01
-1.207099999999999937e+02
5.957999999999999829e+01
1.297800000000000011e+02
2.816000000000000227e+02
-1.628700000000000045e+02
-7.098000000000000398e+01
9.500000000000000000e+00
1.819000000000000128e+01
2.317000000000000171e+01
-8.048000000000000398e+01
1.095400000000000063e+02
-5.365999999999999659e+01
-3.260000000000000142e+01
3.770000000000000018e+00
2.180000000000000071e+01
-1.077600000000000051e+02
-3.946000000000000085e+01
1.871999999999999886e+01
1.184699999999999989e+02
-1.210999999999999943e+02
2.616000000000000014e+01
-1.143900000000000006e+02
-5.500000000000000000e+00
4.496000000000000085e+01
1.294799999999999898e+02
-2.354199999999999875e+02
2.161800000000000068e+02
4.360000000000000320e+00
-1.181099999999999994e+02
1.093799999999999955e+02
-4.236999999999999744e+01
1.004000000000000057e+02
-5.775000000000000000e+01
-7.396999999999999886e+01
-1.079699999999999989e+02
2.048799999999999955e+02
-2.857999999999999829e+01
-1.086299999999999955e+02
-1.271599999999999966e+02
1.380600000000000023e+02
2.246699999999999875e+02
-1.168400000000000034e+02
4.127000000000000313e+01
-1.801200000000000045e+02
-5.696000000000000085e+01
-8.231999999999999318e+01
-7.248999999999999488e+01
-1.077300000000000040e+02
1.329099999999999966e+02
1.758999999999999986e+01
-8.250000000000000000e+00
-1.645500000000000114e+02
-4.389999999999999680e+00
4.120000000000000284e+01
-1.447000000000000064e+01
1.160999999999999943e+01
9.018000000000000682e+01
2.558700000000000045e+02
-3.375500000000000114e+02
-1.267800000000000011e+02
3.230400000000000205e+02
1.924499999999999886e+02
9.715000000000000568e+01
-5.984000000000000341e+01
-5.450999999999999801e+01
-8.754000000000000625e+01
1.485000000000000000e+02
2.071399999999999864e+02
-1.412899999999999920e+02
-3.092999999999999972e+01
-3.392000000000000171e+01
6.545000000000000284e+01
7.995999999999999375e+01
-3.856000000000000227e+01
1.075000000000000000e+02
2.508999999999999986e+01
-8.448000000000000398e+01
3.902000000000000313e+01
-3.542999999999999972e+01
8.850000000000000000e+01
1.389900000000000091e+02
1.812400000000000091e+02
4.957999999999999829e+01
1.375800000000000125e+02
-4.463000000000000114e+02
4.552000000000000313e+01
2.560000000000000142e+01
9.959999999999999432e+01
1.607599999999999909e+02
-2.217199999999999989e+02
-9.942000000000000171e+01
-2.629499999999999886e+02
-2.087999999999999901e+01
2.933999999999999773e+02
3.791000000000000227e+02
-1.431899999999999977e+02
-1.916399999999999864e+02
-1.231400000000000006e+02
-3.579999999999999716e+01
-2.242000000000000171e+01
1.155000000000000071e+01
-2.089000000000000057e+01
-2.283999999999999986e+01
-2.139000000000000057e+01
-4.046000000000000085e+01
-1.213000000000000078e+01
-1.694999999999999929e+01
6.580000000000000071e+00
4.870000000000000107e+00
4.224000000000000199e+01
6.078000000000000114e+01
2.496000000000000085e+01
2.580000000000000071e+00
-1.000000000000000056e-01
4.889999999999999680e+00
-1.141000000000000014e+01
1.723000000000000043e+01
-6.780000000000000249e+00
1.560000000000000053e+00
1.217399999999999949e+02
-4.528000000000000114e+01
-3.583500000000000227e+02
-4.482999999999999829e+01
4.969999999999999751e+00
5.300000000000000266e-01
2.516000000000000014e+01
-4.003999999999999915e+01
6.242000000000000171e+01
-6.793999999999999773e+01
-3.815999999999999659e+01
-1.066200000000000045e+02
-3.902000000000000313e+01
-9.584000000000000341e+01
5.911999999999999744e+01
-1.481000000000000050e+01
-4.838000000000000256e+01
-5.669999999999999929e+00
9.832999999999999829e+01
2.862000000000000099e+01
2.176000000000000156e+01
-8.970000000000000639e+00
-1.110100000000000051e+02
-1.493999999999999950e+01
-3.709000000000000341e+01
2.405999999999999872e+01
1.038700000000000045e+02
2.891000000000000014e+01
-4.035999999999999943e+01
2.860999999999999943e+01
3.706899999999999977e+02
3.950000000000000000e+01
-1.274200000000000017e+02
-2.027899999999999920e+02
1.620900000000000034e+02
1.220400000000000063e+02
3.902000000000000313e+01
-3.553999999999999915e+01
-1.485999999999999943e+01
-3.295000000000000284e+01
8.956000000000000227e+01
-1.563000000000000078e+01
-2.221200000000000045e+02
7.656000000000000227e+01
3.578000000000000114e+02
1.260199999999999960e+02
5.527000000000000313e+01
-3.900400000000000205e+02
-1.716299999999999955e+02
2.369300000000000068e+02
5.910999999999999943e+01
3.496800000000000068e+02
-1.001899999999999977e+02
-2.199300000000000068e+02
-7.875000000000000000e+01
1.257600000000000051e+02
-3.479999999999999982e+00
-1.403000000000000114e+02
-2.850600000000000023e+02
1.717500000000000000e+02
3.777099999999999795e+02
8.079999999999999716e+01
-2.196899999999999977e+02
1.821999999999999886e+01
1.700000000000000000e+01
-5.313600000000000136e+02
2.281100000000000136e+02
7.253000000000000114e+01
-2.690500000000000114e+02
5.199199999999999591e+02
-4.582000000000000028e+01
-3.867999999999999972e+01
-2.132599999999999909e+02
5.107999999999999829e+01
2.369300000000000068e+02
-3.746499999999999773e+02
-4.857999999999999829e+01
-2.310000000000000142e+01
4.600000000000000000e+01
2.648999999999999844e+01
-1.541999999999999993e+01
-1.533899999999999864e+02
1.164000000000000057e+01
1.430000000000000071e+01
1.703000000000000114e+01
-6.804999999999999716e+01
2.851000000000000156e+01
-3.531000000000000227e+01
1.564000000000000057e+01
4.080000000000000071e+00
8.645999999999999375e+01
2.164999999999999858e+01
-1.597100000000000080e+02
-3.690999999999999659e+01
-2.460000000000000142e+01
2.992000000000000171e+01
8.290000000000000568e+01
1.101999999999999957e+01
3.903999999999999915e+01
-5.531000000000000227e+01
-1.887000000000000099e+01
-1.648000000000000043e+01
-1.035999999999999943e+01
2.290000000000000036e+00
2.669999999999999929e+00
1.467999999999999972e+01
-1.260999999999999943e+01
-1.215100000000000051e+02
-1.539099999999999966e+02
4.048999999999999773e+02
3.299000000000000199e+01
-9.432999999999999829e+01
-1.582000000000000028e+01
4.961999999999999744e+01
1.008000000000000007e+01
-3.339999999999999858e+01
2.000000000000000000e+00
1.502999999999999936e+01
-2.044999999999999929e+01
1.410999999999999943e+01
2.370000000000000107e+00
-2.017999999999999972e+01
3.155999999999999872e+01
-2.600000000000000089e-01
-1.150999999999999979e+01
9.609999999999999432e+00
1.628999999999999915e+01
5.792000000000000171e+01
1.033100000000000023e+02
-2.210300000000000011e+02
6.209000000000000341e+01
3.027400000000000091e+02
-2.410000000000000000e+02
1.188000000000000078e+01
9.604000000000000625e+01
-8.420000000000000284e+01
1.040000000000000036e+01
-1.219999999999999973e+00
7.809000000000000341e+01
-8.203000000000000114e+01
-3.096999999999999886e+01
-3.105000000000000071e+01
2.532000000000000028e+01
-3.553000000000000114e+01
-6.412000000000000455e+01
3.200000000000000067e-01
6.482999999999999829e+01
-2.269999999999999929e+01
-3.003999999999999915e+01
5.734000000000000341e+01
1.566500000000000057e+02
-2.055999999999999872e+01
-3.888000000000000256e+01
-3.429999999999999716e+01
3.146999999999999886e+01
7.070000000000000284e+00
-1.257000000000000028e+01
1.275999999999999979e+01
9.330000000000000071e+00
-5.750000000000000000e+00
1.067999999999999972e+01
6.349999999999999645e+00
-1.716000000000000014e+01
8.429999999999999716e+00
2.037999999999999901e+01
-2.005000000000000071e+01
7.349999999999999645e+00
2.576000000000000156e+01
-3.377000000000000313e+01
-2.669999999999999929e+01
3.660000000000000142e+01
5.990999999999999659e+01
-2.962999999999999901e+01
-1.955000000000000071e+01
6.735999999999999943e+01
3.435299999999999727e+02
-1.014200000000000017e+02
-8.012999999999999545e+01
-9.220000000000000284e+01
5.315999999999999659e+01
2.405000000000000071e+01
2.221999999999999886e+01
2.141000000000000014e+01
-6.156000000000000227e+01
-2.385999999999999943e+01
2.919999999999999929e+00
3.010000000000000142e+01
1.942500000000000000e+02
-7.884000000000000341e+01
2.601999999999999957e+01
-5.067000000000000171e+01
-5.967000000000000171e+01
-6.448000000000000398e+01
4.413000000000000256e+01
3.346000000000000085e+01
-3.512599999999999909e+02
1.921599999999999966e+02
1.653000000000000114e+02
-3.235000000000000142e+01
2.549999999999999822e+00
-1.760999999999999943e+01
-2.433999999999999986e+01
7.330000000000000071e+00
-1.429999999999999938e+00
1.467999999999999972e+01
2.705999999999999872e+01
7.730000000000000426e+00
-1.155000000000000071e+01
2.689999999999999947e+00
1.120000000000000107e+00
-5.660000000000000142e+00
8.220000000000000639e+00
-9.599999999999999645e-01
-1.451999999999999957e+01
6.910000000000000142e+00
-2.000000000000000111e-01
-1.351999999999999957e+01
1.130000000000000071e+01
6.570000000000000284e+00
-7.429999999999999716e+00
5.089999999999999858e+00
1.266999999999999993e+01
4.361999999999999744e+01
2.095200000000000102e+02
7.429999999999999716e+00
-4.987200000000000273e+02
-1.078199999999999932e+02
6.626999999999999602e+01
1.216599999999999966e+02
4.992000000000000171e+01
1.200600000000000023e+02
-1.800399999999999920e+02
7.490000000000000213e+00
-9.080000000000000071e+00
8.957999999999999829e+01
-1.801000000000000156e+01
1.024000000000000021e+01
-8.750000000000000000e+00
-2.030999999999999872e+01
-1.500000000000000000e+01
-4.090999999999999659e+01
-1.794999999999999929e+01
1.200699999999999932e+02
5.346999999999999886e+01
6.576999999999999602e+01
-3.670000000000000284e+01
-3.378999999999999915e+01
-4.532999999999999829e+01
-5.072999999999999687e+01
-3.008999999999999986e+01
-2.007000000000000028e+01
-7.660000000000000142e+00
-4.310999999999999943e+01
-1.240600000000000023e+02
-2.126500000000000057e+02
2.681700000000000159e+02
9.915000000000000568e+01
1.130000000000000071e+01
-1.694999999999999929e+01
-5.759000000000000341e+01
1.001999999999999957e+01
-1.581000000000000050e+01
1.482000000000000028e+01
-2.200000000000000011e-01
-1.821000000000000085e+01
8.900000000000000355e+00
-4.019999999999999574e+00
-8.140000000000000568e+00
1.789999999999999858e+01
1.679999999999999938e+00
-2.901000000000000156e+01
1.773000000000000043e+01
-6.309999999999999609e+00
-9.679999999999999716e+00
1.946000000000000085e+01
5.169999999999999929e+00
4.030000000000000249e+00
-5.100000000000000089e-01
2.660000000000000142e+00
-2.428000000000000114e+01
-4.099999999999999645e+00
-1.723999999999999844e+01
2.544999999999999929e+01
3.796000000000000085e+01
2.859999999999999876e+00
-3.517999999999999972e+01
-3.924000000000000199e+01
-7.590000000000000568e+01
-1.467899999999999920e+02
2.554099999999999966e+02
-3.253000000000000114e+01
-6.564000000000000057e+01
5.190000000000000391e+00
-2.542999999999999972e+01
1.889999999999999902e+00
-6.639999999999999680e+00
3.625999999999999801e+01
-2.355000000000000071e+01
-2.044000000000000128e+01
1.610000000000000098e+00
-9.200000000000000400e-01
-1.081000000000000050e+01
-2.882000000000000028e+01
-4.299999999999999933e-01
-5.419999999999999929e+00
1.075000000000000000e+01
4.600000000000000200e-01
3.802000000000000313e+01
2.818199999999999932e+02
-1.514699999999999989e+02
-1.315900000000000034e+02
-9.454999999999999716e+01
-1.828999999999999915e+01
-6.551999999999999602e+01
3.060999999999999943e+01
2.596999999999999886e+01
-4.917000000000000171e+01
1.003999999999999915e+01
-4.410000000000000142e+00
1.383999999999999986e+01
3.867999999999999972e+01
-8.970000000000000639e+00
-6.309999999999999609e+00
5.370000000000000107e+00
-3.053999999999999915e+01
4.060000000000000142e+01
1.424000000000000021e+01
-3.246000000000000085e+01
2.060999999999999943e+01
4.839999999999999858e+00
-3.319999999999999840e+00
-1.459999999999999964e+00
-5.990000000000000213e+00
-1.191999999999999993e+01
2.344000000000000128e+01
-5.480000000000000426e+00
1.215000000000000036e+01
-1.898000000000000043e+01
-2.187999999999999901e+01
9.699999999999999734e-01
-3.850000000000000089e+00
-1.550999999999999979e+01
-3.607000000000000028e+01
1.696800000000000068e+02
1.025999999999999979e+01
-4.796999999999999886e+01
-2.791000000000000014e+01
2.560999999999999943e+01
7.299999999999999822e+00
1.585999999999999943e+01
2.308999999999999986e+01
9.756000000000000227e+01
-5.509000000000000341e+01
-3.082099999999999795e+02
-1.753999999999999915e+01
5.680800000000000409e+02
-6.526999999999999602e+01
-1.304000000000000057e+02
8.926000000000000512e+01
-1.074200000000000017e+02
2.939000000000000057e+01
-3.134599999999999795e+02
1.095999999999999943e+02
2.045500000000000114e+02
4.282999999999999829e+01
-3.843999999999999773e+01
-7.415000000000000568e+01
-1.377999999999999936e+01
3.053000000000000114e+01
4.824000000000000199e+01
-2.812000000000000099e+01
5.239999999999999858e+01
-5.310999999999999943e+01
9.448000000000000398e+01
1.865399999999999920e+02
-4.550999999999999801e+01
3.768999999999999773e+01
-2.094799999999999898e+02
-1.012199999999999989e+02
2.566499999999999773e+02
1.383100000000000023e+02
1.654000000000000057e+02
-1.014399999999999977e+02
-2.958999999999999986e+01
-6.067000000000000171e+01
5.524000000000000199e+01
4.560000000000000142e+01
2.115399999999999920e+02
1.855999999999999943e+02
-1.832100000000000080e+02
1.091899999999999977e+02
-3.909900000000000091e+02
3.229800000000000182e+02
1.846999999999999886e+01
2.710999999999999943e+01
1.114200000000000017e+02
-3.544399999999999977e+02
3.371299999999999955e+02
-2.180699999999999932e+02
2.254300000000000068e+02
-3.560500000000000114e+02
1.683700000000000045e+02
1.662800000000000011e+02
-1.457299999999999898e+02
1.136999999999999922e+01
-1.324499999999999886e+02
6.310999999999999943e+01
-9.151999999999999602e+01
7.143000000000000682e+01
9.475000000000000000e+01
5.413000000000000256e+01
3.416000000000000227e+02
-2.293400000000000034e+02
-1.583000000000000114e+02
3.400000000000000244e-01
1.784099999999999966e+02
-1.324799999999999898e+02
6.021000000000000085e+01
-5.936999999999999744e+01
1.162600000000000051e+02
6.419999999999999929e+00
4.214000000000000057e+01
2.867000000000000171e+01
2.523999999999999844e+01
4.017000000000000171e+01
5.881000000000000227e+01
-3.867999999999999972e+01
6.925000000000000000e+01
1.780999999999999872e+01
5.681000000000000227e+01
7.030000000000000249e+00
8.606999999999999318e+01
3.302900000000000205e+02
-3.656000000000000227e+01
-1.474399999999999977e+02
2.116699999999999875e+02
4.496999999999999886e+01
-2.850000000000000089e+00
3.085000000000000142e+01
-1.441100000000000136e+02
1.260100000000000051e+02
-1.065300000000000011e+02
-1.360999999999999943e+01
-1.656399999999999864e+02
-3.134300000000000068e+02
2.061500000000000057e+02
4.067699999999999818e+02
1.780200000000000102e+02
8.304000000000000625e+01
-3.073500000000000227e+02
-1.105999999999999943e+02
1.425999999999999979e+01
2.700000000000000178e+00
1.233000000000000007e+01
-1.199999999999999956e-01
-1.371000000000000085e+01
4.200000000000000178e+00
4.259999999999999787e+00
-7.889999999999999680e+00
-1.630999999999999872e+01
-2.939000000000000057e+01
5.031000000000000227e+01
1.647500000000000000e+02
-9.206000000000000227e+01
8.121999999999999886e+01
-1.695800000000000125e+02
-1.560399999999999920e+02
-4.403000000000000114e+01
1.300000000000000044e+00
1.049200000000000017e+02
-7.326999999999999602e+01
-1.452500000000000000e+02
1.160699999999999932e+02
8.167000000000000171e+01
1.092099999999999937e+02
-1.218599999999999994e+02
3.613000000000000256e+01
-2.117999999999999972e+01
-1.389799999999999898e+02
1.170300000000000011e+02
3.393000000000000114e+02
1.431200000000000045e+02
-4.178500000000000227e+02
-1.345699999999999932e+02
1.701000000000000156e+01
-1.316999999999999993e+01
8.150000000000000355e+00
-9.184000000000000341e+01
1.012099999999999937e+02
7.776000000000000512e+01
-9.984999999999999432e+01
-1.540000000000000036e+01
-1.328999999999999915e+01
2.119000000000000128e+01
-7.306000000000000227e+01
-2.205000000000000071e+01
-1.283400000000000034e+02
2.462500000000000000e+02
5.888600000000000136e+02
-3.759700000000000273e+02
-1.436899999999999977e+02
2.112000000000000099e+01
1.000300000000000011e+02
-5.302000000000000313e+01
5.125999999999999801e+01
9.556999999999999318e+01
2.103400000000000034e+02
-3.068299999999999841e+02
-3.155000000000000071e+01
-9.584999999999999432e+01
3.146299999999999955e+02
1.896299999999999955e+02
-3.596700000000000159e+02
-6.687000000000000455e+01
1.418400000000000034e+02
8.573999999999999488e+01
-1.429900000000000091e+02
-2.730000000000000071e+01
-1.621999999999999886e+01
2.485900000000000034e+02
-4.571999999999999886e+01
4.559999999999999609e+00
8.873000000000000398e+01
-1.875500000000000114e+02
2.006699999999999875e+02
1.272000000000000064e+01
-1.580800000000000125e+02
2.125000000000000000e+01
1.732000000000000028e+01
-1.746999999999999886e+01
-4.059999999999999609e+00
-8.212999999999999545e+01
-3.580400000000000205e+02
1.592299999999999898e+02
