1593101633.00
64.000000
-0.00
-0.00
-0.00
-0.00
-0.00
-0.00
-0.00
-0.00
-0.00
-0.00
0.00
0.01
0.01
-0.00
-0.03
-0.05
-0.05
0.00
0.13
0.36
0.66
1.01
1.37
1.72
2.06
2.40
2.79
3.24
3.80
4.42
5.06
5.66
6.20
6.68
7.15
7.68
8.31
9.14
10.09
11.04
11.88
12.56
13.14
13.76
14.65
15.96
17.91
20.32
22.90
25.38
27.58
29.57
31.68
34.32
37.81
42.54
48.15
54.10
59.83
64.97
69.58
74.14
79.34
85.71
93.76
103.00
112.62
121.73
129.77
136.75
143.30
150.75
157.77
166.64
177.95
191.79
206.97
220.57
228.25
225.36
208.53
176.87
132.76
80.05
23.07
-34.94
-92.44
-149.16
-205.23
-260.37
-313.74
-363.87
-409.83
-450.91
-486.50
-515.74
-537.23
-549.22
-549.96
-538.37
-514.21
-478.67
-433.88
-382.45
-327.02
-269.84
-212.63
-156.66
-102.95
-52.37
-5.90
35.58
71.43
101.35
125.50
144.38
158.69
169.15
176.37
180.75
182.57
182.07
179.51
175.23
169.65
163.18
156.15
148.81
141.30
133.69
126.02
118.33
110.69
103.16
95.80
88.68
81.83
75.25
68.95
62.95
57.25
51.86
46.78
42.03
37.59
33.45
29.61
26.07
22.81
19.83
17.11
14.67
12.48
10.54
8.83
7.35
6.07
4.97
4.04
3.27
2.62
2.10
1.67
1.32
1.02
0.76
0.54
0.35
0.21
0.11
0.05
0.02
-0.01
-0.08
-0.20
-0.34
-0.49
-0.61
-0.65
-0.63
-0.57
-0.53
-0.55
-0.68
-0.88
-1.09
-1.24
-1.26
-1.15
-1.00
-0.91
-0.99
-1.31
-1.82
-2.35
-2.74
-2.84
-2.65
-2.33
-2.16
-2.41
-3.18
-4.37
-5.64
-6.58
-6.89
-6.55
-5.90
-5.48
-5.82
-7.15
-9.24
-11.47
-13.10
-13.63
-13.01
-11.78
-10.80
-10.85
-12.33
-15.10
-18.50
-21.63
-23.58
-23.66
-21.50
-17.18
-11.32
-5.05
0.23
3.41
4.22
3.61
3.61
6.50
13.81
25.38
39.16
51.94
60.74
64.03
62.29
57.59
52.44
48.49
45.89
43.73
40.48
35.39
28.76
21.58
14.98
9.45
4.76
0.34
-4.21
-8.83
-13.02
-16.21
-18.17
-19.04
-19.28
-19.35
-19.46
-19.48
-18.99
-17.49
-14.57
-10.24
-5.11
-0.34
2.69
2.83
-0.24
-5.82
-12.29
-17.80
-20.89
-21.00
-18.60
-14.86
-11.13
-8.46
-7.15
-6.79
-6.41
-4.94
-1.77
3.00
8.48
13.40
16.69
18.03
17.82
17.08
16.91
18.04
20.53
23.86
27.29
30.06
31.61
31.51
29.51
25.58
20.00
13.50
7.22
2.56
0.60
2.26
7.19
13.69
19.17
21.11
18.12
10.58
0.49
-9.34
-16.54
-20.08
-20.45
-19.10
-17.64
-17.16
-18.05
-20.07
-22.69
-25.33
-27.52
-28.91
-29.32
-28.77
-27.48
-25.72
-23.59
-20.93
-17.47
-13.13
-8.20
-3.33
0.71
3.38
4.59
4.81
4.88
5.86
8.80
14.63
23.88
36.47
51.50
67.18
81.03
90.24
92.35
85.75
70.33
47.70
21.25
-4.52
-25.00
-36.76
-38.60
-31.90
-20.05
-7.22
3.00
8.57
9.23
5.99
0.44
-5.88
-11.72
-16.09
-18.11
-17.20
-13.17
-6.47
1.80
10.13
16.98
21.10
21.78
18.89
12.83
4.44
-5.25
-15.34
-25.33
-35.35
-45.85
-57.10
-68.46
-78.09
-83.22
-81.16
-70.49
-52.04
-28.86
-5.46
13.69
25.55
29.29
26.22
19.03
10.68
3.60
-0.78
-2.04
-0.40
3.43
8.56
13.85
18.01
19.74
18.11
12.98
5.32
-2.80
-8.71
-9.96
-5.26
4.90
18.22
31.24
40.39
43.05
38.30
27.07
11.81
-4.20
-17.58
-25.74
-27.46
-23.25
-15.22
-6.42
0.19
2.79
1.30
-2.77
-7.05
-9.24
-7.84
-2.33
6.99
19.43
34.08
49.81
65.22
78.70
88.60
93.67
93.26
87.58
77.65
65.11
51.86
39.50
28.76
19.19
9.32
-2.53
-17.16
-33.79
-50.14
-63.38
-71.45
-74.02
-72.55
-69.43
-66.80
-65.75
-66.17
-67.28
-68.27
-68.65
-68.16
-66.51
-63.26
-57.97
-50.53
-41.39
-31.53
-22.13
-14.27
-8.72
-5.82
-5.46
-7.01
-9.34
-11.00
-10.78
-8.22
-3.99
0.35
2.98
2.74
-0.27
-4.64
-8.30
-9.42
-7.16
-2.06
4.17
9.20
10.89
7.98
0.61
-9.68
-20.45
-29.27
-34.62
-36.52
-36.36
-36.05
-36.90
-38.76
-40.01
-38.28
-31.79
-20.47
-6.24
7.66
18.06
23.22
23.46
20.89
18.21
17.37
18.65
20.73
21.54
19.31
13.35
4.17
-6.83
-17.67
-25.93
-28.95
-24.39
-11.27
9.03
32.49
53.41
66.45
68.89
61.86
49.81
38.44
32.23
32.87
39.22
48.58
58.38
67.33
75.43
83.08
89.97
94.50
93.90
85.51
68.15
43.16
14.37
-13.24
-35.30
-49.46
-55.91
-56.78
-54.88
-52.47
-50.56
-48.91
-46.68
-43.02
-37.82
-31.90
-26.88
-24.59
-26.20
-31.46
-38.47
-44.12
-45.31
-40.29
-29.45
-15.21
-0.85
10.86
18.70
23.15
25.67
27.71
29.82
31.52
31.87
30.30
27.07
23.23
19.95
17.62
15.54
12.19
6.30
-2.22
-11.90
-20.19
-24.74
-24.64
-20.77
-15.28
-10.22
-6.41
-3.11
1.22
7.66
15.85
24.09
30.51
34.60
37.92
43.59
54.32
70.34
88.50
103.43
110.32
107.72
98.35
87.37
79.05
74.02
69.18
60.38
46.28
30.20
18.76
17.62
27.51
42.91
54.80
55.56
43.07
21.54
-1.35
-18.79
-28.26
-31.89
-34.25
-39.12
-47.31
-56.62
-63.54
-65.64
-62.97
-57.97
-54.04
-53.60
-56.80
-61.46
-64.40
-63.24
-57.80
-50.17
-43.63
-40.82
-42.37
-46.80
-51.54
-54.52
-55.33
-55.30
-56.53
-60.61
-67.73
-76.57
-85.12
-91.60
-95.09
-95.65
-93.97
-90.80
-86.70
-81.92
-76.50
-70.48
-64.04
-57.59
-51.59
-46.48
-42.40
-39.12
-36.16
-33.12
-30.01
-27.39
-26.09
-26.77
-29.29
-32.66
-35.30
-35.72
-33.14
-27.72
-20.42
-12.61
-5.59
-0.39
2.29
2.07
-1.06
-6.53
-13.12
-19.06
-22.49
-22.11
-17.84
-10.99
-4.00
0.39
0.01
-5.87
-16.34
-29.20
-41.75
-51.60
-57.25
-58.17
-54.43
-46.26
-34.00
-18.28
-0.59
16.53
29.89
36.67
35.52
27.11
13.86
-1.17
-15.29
-26.87
-35.29
-40.45
-42.37
-41.15
-37.24
-31.69
-26.09
-22.05
-20.58
-21.70
-24.48
-27.50
-29.22
-28.17
-22.90
-12.15
4.72
26.96
51.96
75.71
94.02
104.09
105.53
100.04
89.74
75.42
55.87
29.17
-4.85
-42.60
-76.62
-97.72
-98.30
-75.23
-30.86
27.61
90.06
145.70
185.19
202.34
195.22
166.51
122.66
72.06
23.05
-17.80
-46.15
-59.49
-56.35
-36.19
-0.22
47.58
100.23
148.80
184.79
202.63
201.09
183.12
154.31
120.85
88.19
60.42
40.19
28.79
26.07
30.26
38.31
46.46
51.07
49.01
37.82
16.16
-15.40
-53.08
-89.59
-115.47
-122.40
-107.16
-74.10
-34.66
-3.61
6.41
-10.76
-53.12
-111.89
-175.05
-231.15
-272.16
-294.79
-300.19
-292.77
-278.74
-264.37
-254.41
-251.20
-254.20
-260.35
-265.06
-263.59
-252.46
-230.68
-200.05
-164.47
-128.49
-95.77
-68.21
-46.18
-29.70
-19.31
-16.14
-20.77
-31.70
-44.74
-53.86
-53.75
-42.47
-22.57
0.00
19.19
31.73
38.66
44.43
54.24
71.68
97.76
131.75
172.51
218.98
269.40
319.85
363.81
393.85
404.92
397.33
377.30
354.13
335.52
323.66
314.70
301.57
278.47
243.79
200.19
152.25
103.78
57.00
13.58
-23.83
-51.47
-66.25
-68.30
-62.50
-57.16
-60.49
-76.74
-104.20
-136.10
-163.68
-179.54
-179.61
-163.36
-132.63
-90.66
-41.49
9.96
58.07
97.33
124.00
137.64
141.56
141.82
144.74
154.19
169.79
186.86
198.06
196.17
176.73
139.34
87.64
27.95
-32.28
-85.64
-125.37
-145.83
-143.61
-119.17
-78.10
-30.44
12.16
40.93
53.71
55.88
57.83
70.11
98.71
142.73
195.24
246.56
287.99
314.10
323.21
316.36
296.03
265.17
226.99
185.15
143.68
106.62
77.06
56.40
43.31
33.86
22.72
5.18
-21.31
-56.27
-96.37
-136.39
-170.52
-194.45
-207.01
-210.88
-211.78
-216.52
-230.46
-255.38
-288.52
-322.96
-350.61
-365.42
-365.66
-354.07
-336.42
-319.05
-306.50
-299.90
-295.70
-289.01
-276.63
-258.98
-239.02
-219.89
-202.68
-185.84
-165.35
-134.37
-89.71
-35.36
18.01
58.23
77.93
77.81
65.58
53.07
55.29
80.54
126.42
181.46
232.52
271.54
297.82
315.31
330.62
355.79
399.73
464.67
545.45
633.25
718.59
792.53
846.13
832.08
722.80
529.11
299.57
87.59
-77.22
-192.21
-265.93
-320.18
-368.24
-409.05
-437.11
-448.76
-445.19
-426.25
-391.74
-342.05
-281.79
-218.88
-160.27
-114.53
-90.56
-94.93
-127.12
-178.08
-232.74
-276.38
-298.26
-292.30
-259.97
-208.86
-149.19
-89.11
-32.51
20.23
69.18
113.92
154.03
188.56
216.56
237.25
250.24
254.95
250.39
234.97
207.86
170.14
124.61
74.58
22.20
-32.18
-89.41
-149.59
-210.33
-265.94
-308.76
-331.77
-331.25
-308.26
-267.85
-216.63
-159.94
-100.35
-38.18
26.29
90.65
149.48
195.56
223.06
230.66
222.88
208.40
196.40
192.70
197.76
207.92
218.18
226.07
233.07
242.96
257.94
275.61
288.90
289.10
270.25
230.95
175.38
111.16
46.19
-14.02
-67.24
-113.20
-151.99
-183.43
-209.23
-231.92
-253.97
-275.80
-295.14
-307.48
-307.38
-290.61
-256.66
-212.27
-168.21
-135.65
-121.25
-125.84
-145.56
-174.03
-204.64
-219.46
-205.75
-162.48
-102.17
-40.04
14.88
60.09
95.84
122.56
140.39
146.63
142.14
129.48
113.69
99.70
89.65
82.28
73.97
60.55
37.19
5.73
-29.62
-61.22
-81.09
-84.43
-71.61
-47.92
-21.79
-2.96
1.63
-10.58
-36.20
-67.77
-96.97
-117.34
-126.00
-123.98
-115.89
-107.20
-102.52
-103.07
-106.54
-108.42
-103.89
-89.80
-65.72
-34.25
-0.00
30.98
52.61
59.47
47.99
17.77
-27.23
-78.95
-127.07
-162.00
-177.93
-173.94
-153.32
-121.50
-83.77
-43.98
-4.58
32.66
66.11
94.40
117.41
137.00
156.96
182.09
216.27
260.28
310.35
358.42
394.57
410.89
404.72
379.83
344.66
308.21
276.10
248.32
219.98
184.26
136.29
75.27
5.77
-62.69
-118.05
-149.39
-151.23
-126.63
-87.16
-48.67
-26.70
-31.05
-62.85
-115.27
-176.87
-235.82
-283.45
-315.29
-329.31
-326.39
-309.40
-282.21
-249.06
-213.14
-175.71
-136.26
-92.94
-42.75
14.54
74.96
131.25
175.09
200.85
208.04
200.33
176.26
139.94
98.48
57.52
18.11
-20.95
-61.33
-100.77
-135.33
-161.99
-174.99
-171.91
-154.29
-122.84
-85.38
-52.54
-31.30
-21.94
-20.19
-20.44
-20.26
-20.19
-20.65
-22.23
-23.42
-21.65
-15.40
-5.08
8.43
23.67
40.57
57.97
76.63
98.26
123.72
151.32
176.85
195.72
204.71
203.89
196.70
188.45
184.21
186.69
195.27
206.73
217.32
224.19
226.20
223.55
217.26
208.67
199.20
190.04
181.55
172.76
161.16
143.19
115.28
75.45
24.27
-35.04
-97.52
-157.66
-210.65
-252.93
-282.47
-299.01
-304.08
-301.04
-294.56
-289.39
-288.74
-293.15
-300.32
-305.98
-305.39
-294.82
-272.51
-238.73
-195.38
-145.43
-92.62
-41.25
4.35
40.58
65.39
78.74
82.17
77.75
66.98
50.34
27.99
0.84
-28.60
-56.37
-78.22
-91.06
-93.89
-87.79
-75.01
-58.02
-38.94
-19.58
-1.71
12.92
22.85
27.46
27.24
23.54
17.93
11.58
4.90
-2.33
-10.60
-20.09
-30.65
-41.77
-52.76
-62.67
-70.61
-76.16
-79.76
-82.81
-87.16
-94.56
-106.02
-121.19
-138.24
-154.13
-165.51
-169.55
-164.95
-152.26
-134.58
-116.83
-103.82
-97.79
-96.72
-94.93
-85.25
-62.02
-22.42
30.86
89.91
144.42
185.69
209.98
219.40
220.18
219.26
223.35
233.61
245.22
250.94
246.45
233.68
220.10
215.08
225.97
259.42
314.91
384.16
453.75
510.30
544.81
554.60
543.57
520.45
500.54
494.70
504.17
521.22
535.27
538.92
530.31
512.24
455.76
350.44
208.75
59.31
-72.54
-175.41
-248.41
-294.70
-318.85
-326.81
-321.40
-305.90
-285.91
-268.03
-256.83
-253.53
-257.66
-269.12
-284.80
-298.52
-305.50
-304.68
-298.73
-291.67
-286.19
-282.62
-279.08
-272.85
-260.26
-241.30
-220.67
-204.87
-198.75
-203.34
-216.45
-234.25
-252.93
-268.20
-276.37
-274.43
-259.00
-228.81
-187.22
-142.81
-106.87
-89.29
-94.17
-118.94
-155.01
-188.63
-207.13
-204.31
-182.33
-148.56
-111.28
-75.26
-41.49
-7.46
33.64
87.79
155.60
231.17
305.10
367.56
411.52
432.09
411.18
342.11
239.93
135.68
57.14
18.88
14.88
37.22
77.47
127.33
177.76
220.45
248.88
260.16
256.37
242.78
225.59
207.29
186.06
159.97
127.10
85.41
33.33
-29.13
-99.64
-171.84
-236.44
-282.44
-298.86
-280.66
-232.63
-168.80
-107.65
-65.35
-49.50
-57.36
-78.51
-97.18
-102.50
-94.40
-79.59
-64.54
-51.84
-40.66
-29.73
-19.33
-11.41
-9.28
-15.20
-28.61
-45.14
-58.37
-60.79
-47.58
-19.49
16.41
48.97
68.14
70.10
58.90
43.43
32.45
30.07
34.35
39.60
40.12
34.00
22.47
10.27
2.12
0.39
4.40
11.53
18.61
23.20
24.18
21.84
18.03
14.96
14.15
15.75
18.60
21.05
21.89
20.95
19.05
17.50
16.67
15.69
13.12
8.22
1.70
-4.73
-9.37
-11.50
-11.20
-9.71
-9.04
-10.77
-15.12
-21.03
-26.97
-31.63
-34.14
-33.18
-28.51
-21.84
-16.16
-14.02
-16.34
-22.14
-28.83
-32.89
-29.86
-18.26
-1.78
12.44
17.89
12.00
-2.89
-20.39
-32.28
-29.03
-5.22
37.50
91.53
146.83
192.88
219.42
217.66
171.63
82.26
-24.70
-112.78
-158.59
-160.35
-131.94
-92.58
-58.07
-35.41
-21.14
-8.35
6.54
21.82
33.30
37.35
33.53
23.57
11.50
2.91
0.72
2.96
4.17
-0.91
-14.59
-35.49
-59.42
-80.29
-91.63
-89.71
-75.27
-52.55
-25.21
2.89
28.63
49.60
64.88
75.43
83.21
90.22
97.84
106.79
116.61
125.82
128.73
120.98
101.87
75.28
47.67
24.56
8.81
0.03
-4.50
-10.01
-20.24
-36.45
-56.91
-76.85
-89.36
-87.48
-67.48
-31.34
15.91
61.92
91.93
94.39
65.39
10.10
-59.17
-127.40
-181.36
-212.46
-217.67
-198.51
-160.21
-110.81
-60.11
-17.83
8.51
15.74
6.11
-13.64
-34.15
-46.68
-46.26
-33.05
-11.67
11.18
29.58
40.28
42.75
38.88
31.59
23.78
17.66
14.56
14.98
18.48
23.79
28.98
32.22
32.54
30.08
25.94
21.57
17.91
14.94
11.65
6.73
-0.35
-8.68
-15.84
-18.73
-15.07
-4.85
9.15
22.09
29.11
27.50
17.98
4.41
-8.12
-15.74
-17.44
-15.07
-11.85
-10.28
-10.82
-11.97
-11.65
-8.72
-3.83
1.08
4.18
4.92
4.37
4.44
6.69
11.21
16.60
20.78
22.22
20.70
17.36
13.88
11.55
10.66
10.52
10.10
8.71
6.39
3.83
1.86
1.07
1.50
2.69
4.01
4.87
4.93
4.04
2.26
-0.20
-3.08
-6.07
-9.00
-11.70
-14.06
-15.86
-16.89
-16.95
-16.17
-15.10
-14.58
-15.21
-16.92
-18.81
-19.45
-17.64
-13.11
-6.70
-0.09
5.12
8.02
8.75
8.21
7.59
7.75
8.85
10.44
11.72
11.97
10.83
8.40
5.29
2.30
0.20
-0.62
-0.25
0.82
1.95
2.60
2.51
1.69
0.26
-1.66
-3.93
-6.34
-8.56
-10.28
-11.38
-12.22
-13.61
-16.38
-20.69
-25.62
-29.29
-29.49
-24.74
-15.32
-3.46
7.18
12.74
10.62
0.51
-15.25
-32.22
-45.13
-49.40
-42.70
-25.65
-1.89
23.10
43.67
55.80
58.16
52.10
40.80
27.87
16.19
7.29
1.52
-1.44
-2.10
-1.00
1.16
3.38
4.50
3.48
-0.13
-5.81
-12.40
-18.53
-23.28
-26.49
-28.65
-30.49
-32.60
-35.24
-38.45
-42.37
-47.37
-53.86
-61.94
-71.14
-80.40
-88.47
-94.53
-98.70
-102.15
-106.83
-114.77
-127.22
-143.75
-162.03
-178.04
-187.28
-186.33
-174.14
-152.53
-125.35
-96.61
-68.32
-39.48
-7.05
31.85
77.50
126.78
173.96
212.79
238.66
249.54
245.61
228.57
201.56
169.72
140.44
121.69
118.96
132.06
154.26
174.52
182.14
171.34
143.31
105.49
66.80
33.62
7.82
-12.15
-28.74
-43.21
-55.00
-62.20
-61.28
-50.05
-29.12
-2.08
25.85
49.74
66.55
75.94
80.06
84.44
93.17
106.20
119.48
127.81
128.24
121.65
112.25
105.28
107.45
121.35
144.31
170.17
193.13
210.45
222.37
230.16
217.19
174.01
103.35
20.06
-59.50
-125.51
-174.29
-205.08
-218.27
-216.44
-199.79
-170.61
-134.68
-99.79
-72.28
-54.50
-44.97
-40.35
-38.84
-36.69
-32.04
-25.00
-16.63
-7.56
2.33
13.17
24.42
35.10
46.28
58.70
72.89
88.56
104.09
116.40
121.73
117.05
101.42
77.10
46.43
12.47
-21.26
-51.52
-76.51
-96.03
-111.34
-124.64
-138.14
-156.02
-180.83
-212.10
-247.23
-282.90
-314.93
-337.84
-345.76
-335.69
-313.02
-287.44
-268.36
-260.98
-264.48
-272.25
-274.62
-263.53
-219.74
-143.93
-56.89
16.04
63.71
90.94
108.71
125.26
144.17
163.39
175.83
176.85
167.07
151.13
134.65
122.18
114.03
110.89
111.96
113.01
110.61
104.22
95.98
88.51
83.33
80.51
79.31
77.94
73.47
64.60
52.44
39.51
27.60
16.87
6.68
-2.64
-9.71
-12.92
-10.39
-1.14
13.45
29.00
39.43
39.52
27.72
7.05
-15.60
-31.76
-34.68
-22.55
0.33
25.21
42.62
46.49
36.25
16.35
-6.50
-26.53
-41.08
-50.44
-55.88
-57.83
-55.41
-47.36
-33.64
-16.48
0.32
12.74
18.08
16.23
9.78
2.80
-1.07
-0.16
4.73
11.84
19.03
24.53
27.82
29.62
31.11
32.88
34.49
34.96
34.80
35.43
37.99
42.94
49.71
56.79
62.16
64.28
63.08
61.69
64.19
72.76
87.50
106.39
125.92
141.57
149.07
137.74
103.98
54.75
3.43
-37.63
-63.45
-75.84
-80.29
-82.49
-86.42
-93.36
-102.03
-112.67
-124.95
-137.01
-144.91
-144.53
-132.98
-110.02
-76.44
-30.14
20.39
64.39
95.42
114.33
125.55
135.56
145.36
154.92
163.89
171.05
176.78
179.33
179.29
177.19
172.84
165.16
153.71
138.65
119.57
96.82
70.67
40.80
5.34
-38.19
-91.25
-151.88
-214.15
-269.33
-307.42
-321.58
-311.90
-287.34
-262.59
-251.63
-260.53
-284.65
-311.13
-324.93
-315.90
-282.65
-232.16
-175.78
-124.61
-86.27
-64.05
-57.73
-64.27
-78.70
-95.16
-108.16
-113.70
-109.78
-95.77
-72.15
-40.49
-4.05
32.18
62.25
81.07
86.62
81.27
70.99
62.87
62.05
69.57
82.29
94.74
101.78
100.76
92.22
78.75
63.04
46.62
29.93
13.30
-1.97
-13.09
-16.81
-10.99
3.97
25.09
48.25
69.71
87.06
99.20
105.61
105.61
98.66
85.63
69.63
55.58
48.48
51.15
62.91
80.16
98.50
114.90
128.65
140.60
151.29
159.61
163.24
160.14
150.31
136.14
121.25
108.68
99.69
94.09
91.46
91.75
94.93
99.60
102.33
98.21
83.07
56.41
22.73
-9.76
-32.72
-41.80
-39.05
-31.92
-29.32
-36.92
-54.28
-75.04
-90.30
-93.21
-82.45
-62.56
-41.41
-26.32
-21.30
-26.90
-41.99
-65.58
-96.83
-133.73
-171.20
-201.02
-214.26
-205.61
-176.60
-135.78
-94.98
-64.06
-46.93
-40.93
-39.51
-36.16
-26.78
-10.13
13.04
40.84
70.50
98.15
118.88
127.98
122.89
104.63
77.83
49.02
24.31
7.70
-0.02
-1.09
0.50
0.75
-2.62
-9.45
-17.29
-22.49
-21.27
-12.11
2.99
18.95
29.95
32.25
25.66
13.33
0.02
-9.33
-12.17
-9.16
-3.25
2.69
7.63
12.67
19.71
29.75
43.44
59.93
77.49
94.43
110.30
125.75
141.17
155.29
157.16
138.47
100.04
53.47
13.30
-11.42
-19.69
-16.76
-9.88
-4.45
-0.84
3.50
11.37
23.37
37.37
49.56
55.43
51.82
38.24
18.32
-2.45
-19.29
-30.35
-36.65
-40.33
-43.07
-45.33
-46.78
-46.91
-46.77
-49.06
-56.98
-71.77
-91.26
-110.44
-123.58
-126.44
-116.79
-94.27
-59.72
-15.08
36.14
88.24
133.37
163.28
172.07
158.51
125.93
80.35
27.85
-26.42
-77.54
-119.20
-143.78
-144.53
-119.11
-71.87
-12.72
47.09
100.22
145.74
187.63
230.28
273.86
312.92
338.89
344.44
326.97
289.55
239.44
185.73
137.27
100.91
79.94
73.06
74.13
73.98
64.18
40.79
6.17
-32.70
-67.97
-95.46
-116.08
-134.02
-153.64
-176.67
-202.18
-228.13
-253.36
-278.09
-302.63
-325.65
-343.31
-350.19
-341.31
-314.56
-271.23
-215.00
-149.81
-78.71
-4.00
71.32
141.70
199.25
235.99
247.00
232.72
198.77
152.98
102.81
53.87
10.40
-22.77
-40.33
-38.44
-18.24
12.33
40.39
54.59
51.10
35.63
19.72
13.68
20.54
34.32
43.74
37.64
11.52
-31.05
-81.83
-133.46
-182.97
-231.39
-280.12
-327.85
-371.52
-404.98
-422.69
-424.23
-416.96
-413.98
-427.68
-463.40
-516.20
-575.75
-626.55
-653.75
-648.75
-612.75
-554.68
-485.71
-414.83
-347.01
-288.02
-239.45
-198.71
-161.26
-123.61
-83.14
-36.31
21.10
116.99
252.82
400.94
519.70
580.99
581.73
538.88
479.44
429.26
404.30
402.20
410.72
416.61
412.71
397.35
373.54
347.90
326.78
313.04
301.92
287.67
267.69
243.94
220.91
200.58
184.74
173.25
163.69
150.42
129.62
101.97
72.16
45.69
26.12
14.16
7.52
2.77
-3.60
-12.17
-20.67
-26.01
-27.03
-25.11
-22.59
-21.40
-22.35
-26.01
-33.22
-45.44
-63.95
-88.54
-116.29
-141.65
-159.16
-166.52
-166.09
-163.49
-163.92
-168.92
-175.43
-178.12
-172.65
-158.29
-137.44
-113.17
-86.21
-53.92
-12.73
37.50
90.32
133.94
156.20
150.71
120.13
75.56
32.47
4.47
-1.98
10.42
33.00
55.79
71.67
77.64
75.37
71.00
73.10
89.03
120.97
164.82
210.96
247.32
262.58
250.32
211.93
155.27
90.43
25.54
-33.06
-79.91
-104.67
-98.63
-66.97
-28.82
-4.41
-4.03
-26.23
-61.63
-99.16
-130.16
-151.27
-164.19
-172.23
-177.81
-176.85
-168.00
-151.01
-127.21
-99.70
-73.19
-52.30
-39.07
-32.18
-28.30
-24.20
-18.40
-12.32
-9.38
-12.81
-23.19
-37.14
-48.27
-50.16
-38.71
-15.33
12.49
34.25
41.90
33.90
15.63
-3.18
-12.13
-2.08
30.55
82.18
143.85
204.85
255.99
290.16
303.08
280.95
221.92
141.02
61.70
0.28
-40.09
-63.64
-76.58
-83.93
-88.46
-90.32
-90.99
-94.04
-102.43
-115.79
-127.71
-130.71
-120.31
-96.58
-62.95
-26.33
5.07
25.09
28.62
19.67
8.93
1.64
0.67
7.99
23.87
46.65
73.47
96.92
111.68
113.60
100.90
76.64
48.26
24.50
12.12
13.93
28.88
54.98
89.45
129.18
171.21
211.04
241.91
255.97
247.14
214.22
162.72
102.00
41.33
-13.07
-59.43
-99.02
-133.06
-160.27
-177.18
-180.25
-169.60
-150.27
-129.89
-114.90
-107.19
-103.63
-98.56
-87.58
-69.74
-47.17
-22.31
5.09
38.22
80.17
129.92
180.04
218.00
231.04
212.34
164.89
100.49
34.87
-19.01
-55.29
-75.88
-86.90
-93.83
-98.18
-98.03
-90.62
-75.84
-57.39
-41.32
-32.82
-33.65
-41.49
-51.47
-58.82
-61.03
-58.52
-53.70
-49.71
-48.97
-52.36
-59.11
-67.33
-74.83
-79.57
-79.96
-75.12
-65.02
-50.87
-35.67
-23.96
-20.50
-28.05
-45.69
-68.71
-90.42
-105.24
-111.11
-110.11
-106.72
-104.79
-105.16
-105.42
-101.71
-91.63
-75.86
-57.64
-41.50
-30.88
-26.12
-24.29
-20.78
-12.13
1.92
18.23
32.48
40.28
38.82
28.49
13.39
0.34
-3.57
6.04
28.56
58.86
86.72
100.38
92.47
64.45
26.70
-6.01
-20.95
-11.52
22.76
75.42
135.85
193.23
239.37
269.34
280.79
273.32
239.53
182.85
117.29
59.03
16.55
-10.68
-27.16
-37.11
-43.75
-48.89
-50.99
-49.40
-45.32
-41.04
-38.49
-38.60
-39.42
-41.25
-42.89
-41.16
-34.77
-25.60
-17.23
-12.55
-12.42
-16.26
-24.68
-36.15
-48.42
-59.49
-67.57
-70.45
-65.99
-53.02
-28.98
0.25
28.72
53.10
72.05
84.15
86.90
77.56
55.27
23.12
-14.78
-51.17
-79.16
-95.04
-99.36
-95.57
-88.03
-80.30
-74.57
-71.97
-71.42
-71.50
-69.08
-63.10
-53.30
-39.23
-20.39
3.43
31.18
60.82
88.21
107.64
114.01
104.71
81.21
47.66
9.41
-28.42
-60.87
-83.85
-94.65
-92.11
-78.97
-61.25
-47.57
-45.64
-58.97
-84.75
-114.40
-135.33
-135.60
-117.44
-88.50
-56.72
-25.91
2.85
31.49
62.89
99.10
143.05
194.64
250.78
305.56
352.05
383.63
395.39
385.46
337.48
253.27
153.16
63.17
-2.89
-46.74
-76.98
-99.93
-116.42
-124.24
-120.26
-105.45
-85.96
-69.64
-61.11
-60.20
-63.91
-69.52
-76.22
-82.18
-85.49
-83.38
-71.79
-47.28
-10.95
29.23
60.35
70.65
57.45
27.68
-5.59
-28.79
-33.19
-17.52
12.78
48.78
81.97
107.43
122.94
127.60
121.03
103.44
76.26
42.57
6.90
-25.58
-50.11
-64.15
-68.14
-65.02
-58.79
-53.23
-50.83
-52.65
-58.73
-68.72
-81.91
-96.84
-111.02
-121.20
-124.43
-119.07
-105.22
-84.44
-59.14
-32.30
-7.59
10.86
19.60
17.96
9.59
2.01
3.73
19.89
49.11
83.53
112.70
128.89
130.77
122.87
111.86
101.98
93.11
82.03
65.94
45.20
23.47
5.32
-6.65
-13.21
-17.65
-23.43
-31.91
-41.65
-49.43
-52.52
-50.26
-44.60
-39.04
-36.92
-39.79
-46.73
-55.08
-61.91
-65.52
-66.10
-65.21
-64.61
-65.03
-65.81
-65.53
-63.15
-58.77
-53.52
-48.75
-45.06
-41.90
-37.80
-31.40
-22.43
-12.08
-2.43
4.64
8.45
9.83
10.59
12.31
15.40
18.84
20.88
20.18
16.62
11.43
6.60
3.69
3.03
3.63
3.85
2.41
-0.94
-5.23
-8.91
-10.72
-10.51
-9.36
-8.99
-10.73
-14.80
-20.22
-25.38
-29.06
-31.08
-32.22
-33.41
-34.97
-36.26
-36.03
-33.26
-27.90
-21.10
-14.61
-9.78
-6.75
-4.35
-0.80
5.29
13.91
23.50
31.51
35.64
34.98
30.43
24.27
19.19
17.04
18.06
20.94
23.61
24.32
22.57
19.19
15.86
14.10
14.41
16.00
17.25
16.65
13.61
8.78
3.55
-0.80
-3.82
-5.92
-7.92
-10.43
-13.53
-16.95
-20.10
-22.99
-26.57
-32.17
-40.45
-50.37
-59.14
-63.28
-60.14
-48.73
-30.93
-10.83
7.28
21.13
31.39
40.82
52.31
66.74
83.06
97.70
106.04
104.86
94.24
77.71
60.78
48.56
43.98
48.60
61.37
79.15
98.00
114.74
128.26
139.33
150.14
153.84
145.97
125.67
95.31
57.91
16.54
-24.33
-59.53
-85.21
-100.52
-106.58
-106.24
-102.11
-95.45
-87.49
-78.72
-71.43
-68.88
-72.63
-80.72
-88.94
-92.74
-89.09
-77.61
-59.98
-38.89
-16.56
6.73
30.26
52.47
70.82
82.80
86.76
83.08
74.43
60.65
45.39
34.26
30.90
33.85
37.84
36.54
25.67
4.77
-21.96
-45.64
-57.07
-51.28
-31.81
-6.64
13.81
21.28
13.81
-3.58
-21.57
-32.90
-36.22
-35.84
-37.47
-44.40
-55.19
-63.54
-64.02
-54.47
-38.26
-22.54
-14.07
-15.34
-23.91
-34.28
-40.87
-41.20
-36.25
-29.37
-23.95
-21.67
-21.90
-22.71
-22.14
-19.19
-14.21
-8.22
-2.41
2.39
6.11
9.45
13.33
18.24
23.85
28.91
32.02
32.33
30.14
26.87
24.31
23.45
23.99
24.59
23.65
20.42
15.50
10.56
7.56
7.61
10.40
14.46
17.97
19.69
19.53
18.45
17.59
17.33
17.00
15.20
10.83
3.97
-3.92
-10.65
-14.44
-14.96
-13.45
-11.99
-12.22
-14.52
-17.97
-21.10
-22.87
-23.43
-23.92
-25.67
-29.18
-33.73
-37.66
-39.14
-37.19
-32.15
-25.57
-19.36
-14.88
-12.39
-11.12
-9.78
-7.43
-3.97
-0.16
2.72
3.56
2.00
-1.34
-5.13
-7.96
-9.06
-8.47
-6.76
-4.65
-2.64
-0.94
0.51
1.76
2.80
3.60
4.21
4.99
6.34
8.33
10.57
12.28
12.53
10.44
5.39
-2.68
-12.56
-22.16
-28.86
-30.55
-26.57
-18.40
-9.60
-4.20
-4.57
-8.91
-12.74
-11.74
-4.49
6.94
18.45
26.50
30.28
31.95
36.50
47.15
62.60
77.60
86.42
86.50
79.49
69.88
62.68
63.36
74.85
96.47
124.66
155.05
183.88
207.95
224.53
219.76
186.28
129.48
65.43
9.67
-30.69
-56.25
-71.04
-79.20
-83.53
-83.42
-78.10
-69.13
-60.04
-54.24
-53.22
-56.38
-61.98
-68.08
-72.08
-72.08
-69.07
-65.75
-64.74
-67.00
-71.89
-77.88
-83.34
-85.84
-84.28
-80.62
-78.38
-80.91
-89.69
-103.81
-120.34
-135.31
-144.31
-140.25
-121.52
-90.47
-52.19
-12.56
23.41
51.98
68.56
72.62
68.02
59.78
51.36
43.65
36.34
29.45
23.72
20.27
21.26
26.29
33.42
40.21
44.10
43.56
38.53
29.79
18.48
6.50
-4.68
-13.86
-18.62
-17.18
-8.83
6.13
25.68
45.49
65.24
88.27
118.25
158.00
206.35
257.62
303.40
334.94
346.37
337.21
300.66
242.62
179.60
128.21
95.32
78.08
69.66
64.04
59.60
56.76
57.41
61.30
65.15
64.23
58.27
47.97
35.19
21.90
9.08
-1.75
-10.15
-17.09
-23.92
-31.21
-39.08
-47.41
-56.68
-67.52
-79.07
-90.11
-99.88
-108.04
-114.44
-119.61
-124.56
-132.45
-146.26
-167.39
-196.14
-231.78
-271.34
-308.27
-333.39
-337.59
-318.73
-279.44
-225.79
-166.30
-110.49
-66.09
-36.88
-22.77
-21.70
-36.33
-66.73
-108.09
-152.55
-193.41
-227.10
-253.06
-272.78
-289.43
-313.52
-350.76
-398.16
-446.16
-484.32
-504.81
-503.85
-481.93
-404.18
-269.96
-113.02
23.53
118.17
173.97
204.75
224.13
241.33
262.27
281.29
293.06
295.79
289.32
272.22
243.18
199.89
148.93
102.92
70.13
56.99
66.60
97.36
142.84
194.64
245.71
291.47
327.41
344.74
336.89
303.46
250.71
189.01
129.62
81.36
49.44
34.46
32.16
38.04
48.88
61.62
71.29
70.75
53.25
16.20
-36.75
-96.47
-150.27
-186.08
-196.64
-181.53
-146.46
-100.88
-55.57
-20.76
-4.31
-9.58
-33.85
-68.56
-102.15
-124.68
-131.76
-125.33
-111.44
-96.08
-81.95
-68.41
-53.60
-37.25
-21.72
-10.55
-6.03
-7.78
-13.07
-18.92
-23.63
-27.44
-31.50
-36.63
-42.26
-46.68
-47.66
-43.27
-32.51
-15.64
5.84
29.46
52.31
71.62
85.48
93.40
96.57
97.64
99.98
106.56
118.84
135.81
154.21
169.66
178.80
180.90
178.37
175.63
176.93
183.88
194.70
205.09
210.57
208.49
198.98
184.39
167.92
152.17
138.42
126.89
117.40
109.63
102.95
95.78
85.25
67.44
38.56
-3.28
-56.52
-115.94
-173.90
-222.70
-256.97
-275.18
-279.45
-273.96
-262.68
-247.90
-229.97
-208.12
-181.80
-151.72
-120.03
-89.65
-63.27
-42.63
-28.25
-19.65
-15.67
-14.77
-15.25
-15.25
-12.88
-6.78
3.37
16.48
30.26
41.81
48.43
48.41
41.49
28.90
13.00
-3.18
-16.65
-25.41
-29.29
-30.30
-32.04
-37.99
-49.30
-63.38
-74.19
-74.83
-60.89
-33.11
2.43
36.65
61.21
71.83
69.33
58.34
44.62
32.55
23.93
18.43
14.78
11.94
9.58
7.79
6.46
4.94
2.18
-2.68
-9.63
-17.37
-23.66
-26.36
-24.52
-18.86
-11.31
-3.75
3.18
10.43
19.80
32.55
48.17
64.33
77.75
85.67
86.78
81.49
71.22
57.63
42.04
25.53
9.45
-4.35
-13.66
-16.63
-12.72
-3.36
8.10
17.44
21.12
17.76
8.72
-2.47
-11.61
-15.59
-13.16
-4.96
7.20
20.82
32.66
38.84
35.89
22.44
0.97
-22.20
-39.10
-43.77
-35.33
-18.51
-1.17
9.68
11.15
5.13
-3.51
-9.92
-11.39
-7.67
0.12
10.80
23.21
35.83
46.57
53.20
54.20
49.38
40.03
28.19
16.17
5.58
-2.82
-8.83
-12.61
-14.66
-16.26
-19.39
-26.18
-37.16
-51.02
-64.55
-73.44
-73.67
-63.29
-43.70
-19.45
3.39
21.10
32.06
36.52
36.05
32.83
28.92
25.76
24.68
27.44
39.43
63.94
99.39
139.45
176.08
202.78
216.14
215.90
204.05
188.41
174.23
161.71
147.84
130.70
112.07
96.56
89.52
95.20
121.90
171.68
237.78
307.39
368.53
414.89
445.98
465.04
434.26
339.51
197.59
44.99
-88.68
-190.80
-259.77
-299.31
-317.08
-323.87
-325.44
-328.02
-337.10
-353.44
-372.94
-386.33
-385.11
-366.66
-334.91
-293.10
-246.50
-200.83
-159.76
-122.86
-86.07
-44.70
0.25
45.76
89.37
125.66
146.81
146.17
123.06
85.10
45.42
17.16
8.49
20.74
47.22
76.71
98.54
106.50
99.76
80.95
54.02
23.73
-4.29
-24.90
-35.22
-36.47
-33.86
-34.13
-42.02
-57.53
-75.70
-89.52
-93.92
-88.16
-75.65
-61.58
-50.07
-42.59
-38.25
-35.20
-31.97
-27.65
-21.65
-13.56
-3.40
7.69
17.01
20.04
11.31
-13.32
-53.88
-104.79
-155.54
-193.73
-209.28
-198.03
-163.52
-115.99
-68.39
-31.58
-11.91
-10.51
-23.80
-44.32
-61.78
-65.89
-50.52
-16.38
29.09
73.88
105.98
118.24
109.91
87.76
65.08
52.58
51.20
55.10
58.24
58.74
58.83
61.35
67.79
76.72
83.88
83.56
74.19
57.65
38.28
20.87
8.06
0.55
-3.39
-7.64
-17.03
-34.31
-60.35
-95.46
-134.52
-174.79
-212.91
-244.33
-264.06
-268.56
-255.87
-227.21
-187.14
-141.81
-97.36
-56.69
-19.90
17.61
53.59
82.37
98.80
101.71
94.20
80.95
67.31
57.59
54.22
56.50
61.93
66.19
63.51
49.51
21.04
-20.76
-70.61
-120.93
-164.81
-196.71
-213.14
-213.00
-197.28
-168.90
-131.35
-88.03
-41.31
7.66
57.80
110.01
166.11
226.74
289.33
347.89
394.31
420.84
422.73
400.17
358.17
304.10
244.58
183.37
121.58
59.42
-1.63
-57.75
-103.41
-133.35
-145.33
-141.37
-127.17
-109.77
-95.09
-86.36
-83.87
-86.17
-91.30
-97.82
-104.89
-111.70
-116.94
-119.07
-117.32
-112.57
-107.56
-105.63
-108.67
-115.59
-122.23
-123.05
-113.96
-94.45
-67.85
-39.51
-13.88
7.91
28.46
52.53
84.08
123.80
168.13
210.24
242.19
257.28
251.56
224.06
176.63
113.55
41.32
-32.02
-98.40
-151.76
-190.02
-215.30
-232.19
-244.52
-252.58
-252.25
-236.87
-201.04
-144.48
-73.41
0.68
64.97
109.71
131.21
132.17
119.54
101.22
83.11
67.81
55.20
44.27
35.09
29.50
30.35
39.63
56.80
78.29
98.82
113.47
119.71
118.34
113.06
108.35
106.96
108.33
108.71
103.32
88.70
64.69
34.80
4.72
-20.17
-36.73
-44.91
-47.21
-46.88
-47.47
-51.63
-60.13
-71.14
-80.56
-83.21
-74.91
-53.91
-20.31
23.69
75.22
131.70
190.69
248.35
298.38
332.61
343.89
330.50
295.91
247.66
194.20
142.60
96.80
57.78
24.52
-10.15
-46.41
-79.54
-104.45
-120.53
-130.64
-139.69
-149.62
-159.86
-169.08
-176.00
-182.27
-189.43
-201.70
-223.22
-256.44
-300.55
-351.02
-399.65
-435.44
-449.16
-436.70
-401.12
-350.80
-296.16
-245.44
-202.30
-165.52
-130.81
-94.56
-55.83
-16.66
19.64
49.80
71.39
82.98
84.83
79.95
73.69
72.16
79.69
96.92
120.33
144.07
162.80
173.99
178.43
178.46
176.04
171.86
166.17
160.36
157.71
162.52
178.06
204.60
238.65
273.91
303.57
322.74
329.73
325.79
313.70
295.66
271.95
240.81
199.87
148.20
87.35
20.71
-48.47
-118.74
-190.36
-263.36
-334.84
-397.88
-443.30
-463.44
-455.73
-423.97
-376.40
-321.73
-265.69
-209.69
-152.21
-91.78
-29.46
30.98
84.60
127.64
159.16
181.14
197.25
211.19
224.83
237.48
246.91
250.80
247.99
239.21
226.33
211.81
198.47
187.75
179.31
172.08
165.20
158.72
153.86
151.60
152.07
155.03
157.42
153.58
137.87
106.97
61.35
5.36
-55.06
-112.85
-158.52
-184.42
-187.04
-166.86
-129.40
-84.84
-45.70
-24.59
-29.12
-56.55
-98.82
-147.17
-193.67
-233.76
-266.45
-283.91
-280.80
-274.38
-275.22
-283.17
-300.01
-325.14
-354.05
-378.50
-389.04
-380.12
-351.72
-306.50
-251.59
-196.14
-145.84
-101.69
-60.89
-19.38
24.63
70.67
119.36
170.22
221.83
273.53
324.78
374.92
423.32
469.09
512.13
554.13
595.11
631.49
656.85
663.42
645.13
600.47
533.11
450.89
363.79
279.88
203.57
136.36
77.41
25.25
-21.67
-65.41
-108.73
-153.84
-201.73
-250.53
-295.19
-330.27
-351.26
-356.70
-349.45
-336.61
-326.79
-327.91
-343.37
-370.57
-403.57
-433.93
-452.79
-453.47
-433.38
-393.56
-339.34
-277.49
-215.00
-160.39
-120.84
-99.66
-95.85
-105.20
-121.20
-138.97
-155.08
-155.05
-132.45
-92.31
-47.28
-8.28
14.33
26.42
34.44
43.58
57.64
79.33
107.92
141.79
178.60
214.39
244.59
262.95
265.12
250.51
221.17
182.55
143.04
111.37
93.52
91.86
103.58
123.57
146.25
165.58
176.44
175.79
162.88
138.84
107.16
72.42
40.38
16.72
4.33
2.22
5.92
8.59
2.89
-16.76
-53.09
-104.53
-164.90
-225.04
-274.78
-305.37
-311.98
-295.17
-260.37
-216.00
-169.91
-126.01
-84.42
-43.19
-1.11
39.86
74.16
95.00
97.67
82.59
57.03
30.77
12.36
6.70
15.14
36.76
69.82
111.04
154.43
192.56
215.01
212.23
181.13
128.69
70.53
25.41
7.87
23.85
72.26
143.37
221.99
291.94
340.46
360.47
351.90
320.21
260.93
182.47
102.20
36.98
-7.30
-34.56
-56.80
-82.46
-115.89
-157.99
-201.51
-237.71
-258.84
-260.31
-242.15
-209.67
-171.97
-139.50
-119.93
-113.46
-115.95
-121.55
-125.30
-124.42
-118.84
-110.34
-102.07
-97.26
-96.94
-101.51
-110.83
-124.05
-139.30
-153.82
-164.24
-167.51
-161.66
-146.04
-123.19
-98.68
-79.06
-69.09
-69.26
-75.12
-79.22
-74.24
-55.65
-23.39
18.63
64.48
107.97
143.70
167.70
178.06
175.70
164.57
150.44
138.53
131.05
126.13
119.08
105.29
83.15
55.41
28.04
7.46
-2.34
-1.37
6.71
16.43
22.70
22.36
15.02
2.58
-11.72
-24.37
-32.40
-33.80
-27.52
-13.51
7.32
32.81
59.51
82.95
98.51
102.92
95.73
79.98
61.53
46.96
41.12
45.31
57.10
71.71
83.83
88.90
83.65
66.14
36.45
-2.34
-43.58
-78.00
-96.72
-94.98
-74.64
-43.90
-13.94
5.79
11.12
3.92
-9.80
-23.28
-31.73
-33.44
-29.28
-21.39
-12.17
-3.64
2.71
6.01
6.01
3.27
-0.96
-4.82
-6.11
-2.94
5.28
16.61
26.29
27.90
16.35
-8.71
-41.17
-69.80
-82.85
-73.40
-42.87
-0.56
40.47
68.90
79.17
72.18
53.21
28.73
4.20
-16.52
-30.65
-36.31
-32.96
-22.20
-7.94
4.73
11.38
10.11
2.33
-7.98
-16.03
-18.13
-13.08
-2.53
9.62
18.54
20.14
12.81
-1.51
-17.42
-27.80
-26.71
-12.34
11.72
37.47
55.71
59.80
48.16
24.51
-4.16
-30.51
-49.35
-58.58
-58.69
-51.53
-39.26
-23.87
-7.33
8.07
19.87
25.92
25.23
18.64
8.76
-0.82
-6.85
-7.48
-2.76
5.64
15.02
22.44
25.10
20.86
8.84
-9.86
-31.85
-52.01
-65.01
-67.32
-58.61
-41.87
-22.04
-4.10
8.55
14.55
13.97
7.44
-4.24
-19.73
-36.32
-49.76
-55.18
-49.07
-31.17
-5.21
22.23
44.14
55.90
56.81
49.94
40.28
32.44
28.91
29.64
32.86
36.42
38.82
39.48
38.37
35.44
30.54
23.75
15.88
8.53
3.35
1.00
0.44
-0.56
-3.92
-9.68
-15.68
-18.73
-16.75
-10.44
-3.20
0.66
-1.63
-9.76
-20.62
-30.04
-34.86
-34.06
-28.50
-19.88
-9.64
1.35
12.51
23.06
31.85
37.63
39.67
38.14
34.22
29.62
25.97
24.10
23.82
24.12
23.88
22.54
20.37
18.31
17.37
17.94
19.46
20.52
19.40
14.81
6.49
-4.55
-16.10
-25.48
-30.37
-29.84
-24.95
-18.55
-14.37
-15.48
-23.03
-35.64
-49.96
-61.90
-68.08
-66.81
-58.31
-44.37
-27.50
-10.24
5.30
17.76
26.59
31.94
34.53
35.29
35.14
34.73
34.34
33.98
33.50
32.81
32.07
31.63
31.81
32.38
32.41
30.48
25.50
17.59
8.45
0.86
-2.66
-1.25
3.65
8.86
10.80
7.05
-2.68
-16.62
-31.75
-44.97
-54.01
-57.86
-56.71
-51.65
-44.13
-35.53
-26.82
-18.46
-10.58
-3.20
3.49
9.04
12.95
14.94
15.19
14.38
13.56
13.78
15.71
19.33
24.02
28.83
32.92
35.88
37.71
38.57
38.46
37.02
33.84
28.84
22.59
16.22
10.98
7.61
5.88
4.78
3.00
-0.27
-4.89
-9.88
-13.92
-16.13
-16.49
-15.78
-14.98
-14.75
-14.99
-15.08
-14.34
-12.56
-10.22
-8.23
-7.42
-8.09
-9.90
-12.09
-13.89
-14.82
-14.85
-14.26
-13.44
-12.70
-12.16
-11.70
-11.06
-9.99
-8.40
-6.44
-4.51
-3.02
-2.23
-2.01
-1.94
-1.49
-0.43
1.02
2.28
2.71
1.94
0.08
-2.35
-4.69
-6.51
-7.74
-8.61
-9.45
-10.40
-11.39
-12.13
-12.41
-12.22
-11.80
-11.51
-11.55
-11.88
-12.16
-11.96
-10.98
-9.20
-6.91
-4.54
-2.44
-0.83
0.34
1.21
2.00
2.88
3.98
5.40
7.17
9.28
11.63
14.05
16.35
18.32
19.80
20.73
21.14
21.12
20.80
20.25
19.51
18.53
17.20
15.47
13.42
11.27
9.31
7.80
6.83
6.27
5.80
5.04
3.71
1.79
-0.51
-2.77
-4.58
-5.73
-6.27
-6.47
-6.65
-7.05
-7.65
-8.26
-8.69
-8.89
-9.05
-9.52
-10.51
-11.95
-13.39
-14.21
-13.89
-12.41
-10.19
-7.90
-6.05
-4.71
-3.52
-1.92
0.42
3.44
6.68
9.54
11.63
12.87
13.43
13.59
13.53
13.27
12.75
11.93
10.90
9.79
8.75
7.83
7.02
6.22
5.35
4.42
3.47
2.60
1.91
1.41
1.03
0.63
0.02
-0.93
-2.23
-3.75
-5.25
-6.48
-7.36
-8.00
-8.70
-9.80
-11.49
-13.64
-15.88
-17.70
-18.64
-18.50
-17.37
-15.44
-12.97
-10.14
-7.05
-3.78
-0.45
2.76
5.64
8.02
9.84
11.20
12.25
13.18
14.09
14.92
15.56
15.83
15.59
14.88
13.87
12.82
11.99
11.45
11.11
10.73
10.12
9.22
8.18
7.25
6.61
6.27
5.98
5.44
4.46
3.08
1.56
0.25
-0.63
-1.12
-1.50
-2.15
-3.35
-5.15
-7.35
-9.54
-11.26
-12.18
-12.21
-11.43
-10.09
-8.40
-6.52
-4.48
-2.27
0.05
2.30
4.20
5.53
6.23
6.40
6.33
6.25
6.26
6.24
5.99
5.34
4.31
3.10
2.04
1.36
1.13
1.16
1.16
0.82
0.01
-1.18
-2.49
-3.62
-4.44
-5.04
-5.66
-6.55
-7.80
-9.32
-10.84
-12.14
-13.11
-13.88
-14.67
-15.64
-16.85
-18.18
-19.49
-20.68
-21.81
-23.01
-24.41
-25.93
-27.32
-28.20
-28.28
-27.51
-26.09
-24.37
-22.58
-20.75
-18.68
-16.19
-13.38
-10.68
-8.74
-8.03
-8.60
-10.03
-11.62
-12.81
-13.39
-13.49
-13.23
-12.49
-10.83
-7.71
-2.83
3.76
11.88
21.54
32.87
45.66
58.72
69.57
75.19
73.39
64.22
50.14
34.99
22.07
12.76
6.33
1.07
-4.15
-8.95
-11.83
-11.41
-7.73
-2.51
1.64
2.61
-0.21
-5.70
-11.70
-16.06
-17.51
-15.99
-12.52
-8.53
-5.28
-3.33
-2.51
-2.10
-1.28
0.60
3.86
8.54
14.45
21.22
28.09
33.81
36.91
36.23
31.72
24.66
17.26
11.64
8.62
7.18
4.85
-1.03
-11.92
-27.26
-44.72
-61.41
-75.15
-85.31
-92.63
-98.29
-102.97
-106.23
-106.56
-101.93
-90.45
-71.12
-44.41
-12.43
21.14
51.83
75.38
88.99
92.30
87.38
77.96
68.06
60.57
56.46
54.77
53.40
50.17
43.63
33.47
20.42
5.81
-8.98
-22.90
-35.42
-46.44
-56.07
-64.35
-71.15
-76.25
-79.61
-81.64
-83.17
-84.99
-87.26
-89.00
-88.03
-81.69
-67.89
-46.25
-18.46
12.13
41.54
66.31
84.30
94.95
99.10
98.51
95.29
91.44
88.37
86.74
86.70
88.49
92.89
101.20
114.36
131.82
150.74
166.34
173.29
167.66
148.31
117.36
79.49
40.58
6.08
-20.17
-36.57
-43.80
-44.12
-40.32
-34.71
-28.38
-21.34
-13.24
-4.13
5.18
13.44
19.68
23.62
25.40
24.96
21.49
13.50
-0.27
-19.88
-43.56
-68.11
-90.00
-106.67
-117.36
-122.99
-125.41
-126.49
-127.48
-128.83
-130.22
-130.82
-129.40
-124.55
-115.09
-100.51
-81.45
-59.73
-37.92
-18.43
-2.85
8.51
16.32
21.76
25.88
29.26
31.95
33.70
34.28
33.75
32.55
31.45
31.31
32.68
35.50
38.98
41.84
42.77
40.97
36.32
29.42
21.32
13.25
6.42
1.78
-0.17
0.43
2.95
6.61
10.92
16.13
23.01
32.30
44.00
57.12
70.06
81.37
90.48
97.74
103.81
109.06
113.11
115.15
114.50
111.12
105.67
99.12
92.32
85.81
79.96
75.09
71.47
69.05
67.24
65.05
61.77
57.67
54.14
53.08
55.58
60.94
66.54
69.00
66.16
58.89
51.33
49.24
57.24
76.21
102.63
129.63
149.62
156.66
147.60
122.14
82.58
33.75
-17.26
-62.25
-94.44
-111.56
-117.76
-122.57
-136.71
-166.74
-211.45
-262.23
-307.08
-336.29
-346.35
-340.48
-326.23
-311.98
-304.13
-306.11
-318.50
-339.24
-363.85
-386.06
-398.92
-396.85
-377.58
-343.05
-298.58
-250.58
-203.99
-160.85
-120.50
-80.81
-39.92
2.77
46.25
87.96
123.86
148.62
156.91
145.70
116.86
78.59
44.35
28.71
41.69
84.32
147.66
216.20
273.87
309.72
320.75
311.00
288.34
260.68
233.66
210.09
190.39
173.26
156.40
137.11
113.36
84.78
52.93
21.02
-7.42
-29.86
-45.31
-53.95
-56.13
-52.05
-41.98
-27.07
-9.73
6.83
20.02
29.06
35.20
40.74
47.35
54.67
60.45
61.84
57.35
48.72
41.37
42.86
59.91
95.15
145.21
201.38
252.60
289.74
308.98
312.50
306.31
296.31
285.27
271.70
251.59
221.06
178.63
126.19
68.92
14.34
-29.10
-54.25
-57.81
-42.40
-16.73
7.00
17.59
8.82
-18.69
-59.29
-106.54
-157.01
-210.87
-269.36
-330.68
-387.48
-428.14
-441.38
-421.72
-372.32
-303.96
-230.45
-163.45
-109.35
-69.29
-42.10
-27.31
-26.14
-39.96
-67.39
-102.43
-135.50
-156.89
-160.91
-148.04
-124.06
-96.93
-73.19
-56.10
-45.95
-41.63
-41.81
-45.09
-49.27
-50.76
-45.37
-30.39
-6.47
22.09
49.02
68.93
79.82
83.64
84.78
87.57
94.04
103.27
112.15
116.98
115.10
105.69
89.66
68.99
45.87
22.24
-0.40
-20.81
-37.87
-50.60
-58.44
-61.65
-61.37
-59.26
-56.79
-54.55
-52.03
-48.00
-41.42
-32.16
-21.23
-10.31
-1.02
5.62
9.46
11.00
10.98
10.15
9.01
7.77
6.34
4.38
1.61
-1.85
-5.20
-7.24
-6.79
-3.49
1.89
7.53
11.62
13.08
12.13
10.04
8.29
7.69
8.16
9.39
11.53
15.25
20.83
27.07
31.17
30.00
22.26
10.11
-1.22
-5.93
-0.92
12.24
27.87
39.10
41.25
33.82
20.05
4.84
-7.67
-15.34
-18.00
-16.50
-12.09
-6.21
-0.29
4.22
6.15
5.02
1.33
-3.49
-7.49
-8.81
-6.29
0.10
9.06
18.32
25.24
27.82
25.36
18.69
9.83
1.33
-4.59
-6.58
-4.49
0.68
7.14
12.80
15.85
15.35
11.38
5.08
-1.98
-8.29
-12.94
-15.82
-17.45
-18.64
-19.98
-21.65
-23.29
-24.24
-23.84
-21.78
-18.35
-14.30
-10.52
-7.51
-5.22
-3.05
-0.36
3.06
6.73
9.71
11.06
10.41
8.20
5.47
3.41
2.87
4.06
6.48
9.13
10.91
10.87
8.51
3.91
-2.37
-9.44
-16.51
-23.12
-29.28
-35.33
-41.82
-49.46
-59.18
-72.11
-89.38
-111.59
-138.19
-167.19
-195.25
-218.30
-232.41
-234.55
-223.04
-197.69
-159.78
-111.81
-57.28
-0.37
54.56
103.52
143.49
172.68
190.68
198.35
197.57
190.73
180.23
167.95
155.01
141.84
128.63
115.75
103.87
93.83
86.19
80.90
77.09
73.25
67.58
58.48
45.01
27.27
6.65
-14.43
-33.20
-47.52
-56.90
-62.84
-68.25
-76.00
-87.55
-102.18
-117.33
-129.67
-136.41
-135.86
-127.40
-111.17
-88.00
-59.63
-28.88
1.04
27.78
50.92
71.79
92.07
112.05
129.81
142.33
147.68
147.00
144.54
145.63
153.60
167.76
183.46
194.34
195.21
183.97
161.98
133.12
102.48
75.11
55.02
44.29
42.31
45.61
48.79
46.22
33.99
11.43
-18.85
-52.04
-82.81
-106.84
-121.50
-126.01
-121.03
-108.42
-90.87
-71.64
-53.96
-40.27
-31.75
-28.08
-27.67
-28.29
-27.87
-25.13
-19.88
-12.86
-5.18
2.07
8.14
12.90
16.85
20.84
25.61
31.20
36.79
41.21
43.05
41.36
36.20
29.09
22.63
19.51
21.30
27.36
35.58
42.00
42.17
33.14
15.31
-7.39
-29.07
-44.39
-50.71
-46.57
-33.54
-15.06
5.19
25.03
44.16
63.16
82.17
100.38
119.31
139.58
160.37
179.88
197.07
212.46
227.05
240.90
252.72
264.45
277.54
292.02
306.37
318.60
326.70
328.18
320.18
276.95
189.08
68.86
-55.24
-157.50
-227.43
-267.87
-287.67
-295.87
-298.73
-296.03
-286.46
-270.49
-251.23
-232.21
-215.83
-203.12
-194.40
-190.51
-189.00
-188.14
-188.21
-190.78
-195.88
-200.49
-199.19
-186.76
-157.51
-113.67
-62.61
-13.53
26.06
53.39
70.10
81.29
89.87
96.46
101.52
106.73
114.54
126.31
140.96
153.92
158.63
149.39
122.48
78.48
22.35
-39.06
-99.92
-152.82
-191.69
-212.33
-212.65
-196.07
-170.48
-145.69
-130.38
-129.47
-142.71
-165.79
-192.79
-208.25
-202.70
-176.24
-137.82
-97.90
-62.50
-33.06
-9.86
3.11
6.07
-2.01
-19.97
-43.02
-63.66
-74.79
-72.70
-54.00
-21.59
19.38
62.01
101.72
137.59
171.61
206.18
241.82
276.28
304.65
322.18
324.33
308.96
276.97
231.81
178.21
120.60
62.74
7.29
-42.91
-85.66
-119.01
-141.75
-153.96
-157.32
-154.85
-149.97
-145.70
-143.43
-143.46
-145.18
-147.47
-149.29
-149.81
-148.69
-146.13
-142.51
-138.11
-133.39
-128.80
-124.73
-121.72
-120.00
-119.87
-121.53
-124.02
-125.49
-124.06
-118.39
-107.77
-92.30
-71.55
-45.46
-15.08
18.24
51.96
82.22
105.08
118.53
122.80
121.37
117.63
112.87
107.83
103.15
99.72
99.24
104.01
114.96
132.69
155.43
169.74
164.59
138.03
98.47
58.06
31.84
18.20
13.31
14.28
20.44
31.17
49.08
76.49
113.63
158.01
203.61
244.01
272.16
282.37
273.90
251.33
221.96
192.76
168.19
148.69
133.36
120.32
107.71
94.95
81.99
67.54
48.86
23.07
-11.49
-53.05
-97.56
-140.39
-177.60
-206.87
-228.01
-242.27
-251.40
-257.10
-260.04
-260.32
-257.88
-252.71
-245.17
-236.10
-226.59
-217.23
-207.80
-197.19
-184.33
-169.21
-153.30
-138.77
-127.16
-117.77
-107.20
-90.49
-63.43
-24.98
21.71
70.05
112.30
142.30
157.38
158.60
149.68
135.22
119.11
103.84
90.60
79.77
71.33
65.04
60.33
56.29
51.96
46.82
41.06
35.70
32.05
31.21
33.60
38.70
45.19
51.21
54.99
55.36
52.28
46.88
41.03
36.51
34.21
33.76
33.75
32.50
28.77
22.24
13.38
3.08
-7.77
-18.54
-28.77
-38.01
-45.66
-51.05
-53.62
-53.24
-50.43
-46.36
-42.64
-40.69
-41.16
-43.65
-46.89
-49.40
-50.21
-49.25
-47.27
-45.24
-43.82
-43.06
-42.59
-42.01
-41.19
-40.30
-39.52
-38.84
-37.98
-36.65
-34.89
-33.23
-32.53
-33.60
-36.74
-41.58
-47.07
-51.87
-54.62
-54.24
-50.13
-42.40
-32.02
-20.80
-10.96
-4.39
-1.68
-1.78
-2.30
-0.71
4.29
12.03
20.11
25.76
27.17
24.46
19.44
14.52
11.47
10.65
11.22
11.95
12.08
11.70
11.45
11.88
13.01
14.30
15.06
14.91
14.01
12.98
12.50
13.04
14.69
17.18
20.10
22.90
25.04
25.90
25.06
22.47
18.70
14.85
12.18
11.62
13.39
16.93
21.10
24.67
26.78
27.24
26.57
25.67
25.33
25.80
26.58
26.71
25.35
22.21
17.77
13.03
8.94
6.04
4.27
3.22
2.51
2.09
2.14
2.90
4.38
6.26
8.08
9.44
10.32
11.02
12.03
13.71
16.11
18.86
21.38
23.12
23.79
23.42
22.30
20.71
18.78
16.51
13.87
11.03
8.34
6.13
4.46
3.07
1.49
-0.51
-2.65
-4.16
-4.14
-2.02
2.12
7.64
13.59
19.03
22.95
24.30
22.00
15.42
4.87
-8.09
-21.04
-31.48
-37.78
-39.69
-38.03
-34.01
-28.36
-21.09
-11.76
-0.13
13.30
27.27
40.17
50.71
58.39
63.70
67.79
71.99
77.26
83.81
91.03
97.87
103.32
106.92
109.02
110.67
113.16
117.44
123.73
131.29
138.76
144.49
147.02
145.54
140.12
131.86
122.60
114.48
109.18
107.17
107.18
106.39
101.17
88.28
66.10
35.34
-1.04
-38.72
-73.36
-102.05
-124.12
-141.09
-155.68
-170.42
-186.29
-202.27
-215.75
-223.78
-224.43
-217.66
-205.27
-190.10
-174.81
-160.83
-148.17
-135.89
-123.02
-109.45
-96.32
-85.58
-78.84
-76.11
-75.04
-71.53
-61.31
-41.98
-14.38
17.39
47.49
70.55
83.45
85.93
79.91
68.15
53.13
36.70
20.45
6.14
-4.27
-9.29
-8.84
-4.78
-0.45
0.78
-2.80
-10.25
-18.33
-23.32
-23.08
-18.39
-12.68
-10.25
-14.04
-24.17
-37.99
-51.48
-61.21
-65.73
-65.74
-63.42
-61.20
-60.67
-62.29
-65.58
-69.71
-73.98
-78.27
-83.16
-89.52
-97.87
-107.73
-117.49
-124.81
-127.45
-123.98
-114.33
-99.81
-82.77
-65.98
-51.87
-42.30
-38.31
-39.69
-44.76
-50.74
-54.66
-54.71
-51.19
-46.05
-42.69
-44.24
-51.22
-60.03
-63.55
-53.26
-22.39
31.60
106.73
194.84
282.49
354.26
397.64
407.38
387.64
351.04
314.57
295.04
300.39
326.01
357.64
378.62
377.13
350.29
304.25
250.98
205.73
178.63
170.62
174.99
182.19
184.36
177.63
162.21
126.13
69.22
3.22
-57.16
-105.01
-141.27
-168.17
-185.33
-191.11
-185.56
-170.69
-150.69
-132.18
-121.15
-119.21
-123.25
-128.38
-131.35
-131.94
-130.38
-126.35
-122.18
-121.49
-126.78
-138.27
-154.56
-173.22
-190.05
-197.58
-189.89
-165.90
-131.82
-98.06
-74.39
-66.95
-77.08
-100.81
-129.72
-156.75
-168.34
-157.07
-126.41
-88.35
-55.09
-33.06
-26.55
-28.51
-33.43
-38.20
-42.54
-46.84
-44.64
-26.34
7.96
49.76
90.01
123.24
148.03
164.61
169.10
157.70
129.12
85.48
32.79
-20.83
-65.29
-90.82
-95.54
-87.04
-76.20
-70.78
-72.68
-80.19
-85.42
-82.76
-70.64
-51.55
-29.34
-5.83
19.78
46.88
72.75
92.53
99.49
88.51
59.73
20.39
-16.49
-36.90
-32.39
-2.79
44.85
99.64
151.12
191.37
214.87
218.42
201.92
168.54
125.14
81.21
46.50
28.43
29.70
47.86
72.17
90.53
95.31
87.12
71.23
52.34
33.54
17.18
5.29
-0.47
1.17
9.54
21.52
31.92
35.36
28.39
10.35
-16.26
-47.45
-77.12
-99.11
-109.71
-109.72
-104.27
-100.49
-103.82
-115.03
-128.53
-134.58
-124.71
-96.81
-57.02
-16.87
12.39
25.93
23.09
8.77
-9.46
-25.37
-36.05
-41.63
-43.33
-42.02
-37.86
-31.43
-23.83
-16.61
-11.02
-7.24
-4.35
-1.12
2.95
7.29
10.64
12.50
13.54
15.34
19.52
26.73
36.05
45.30
52.01
54.46
52.72
48.42
43.74
40.25
38.11
35.94
31.60
23.43
11.30
-2.93
-16.24
-26.02
-31.50
-34.25
-37.35
-43.58
-53.76
-66.19
-77.50
-84.61
-86.56
-84.91
-82.65
-82.30
-84.30
-86.83
-87.05
-82.93
-74.50
-63.81
-53.68
-45.99
-40.69
-35.84
-28.95
-18.45
-4.81
9.55
21.35
27.86
28.11
23.12
15.32
7.34
1.01
-3.19
-5.99
-8.63
-12.09
-16.66
-21.98
-27.42
-32.44
-36.87
-40.75
-44.16
-47.05
-49.31
-51.04
-52.70
-54.83
-57.76
-61.30
-64.34
-65.00
-61.10
-50.92
-33.72
-9.83
19.66
52.91
87.26
119.32
145.54
163.29
171.84
172.88
169.77
166.32
164.68
164.20
162.05
155.00
141.36
121.73
98.66
75.16
54.46
38.19
25.79
15.40
5.41
-4.64
-14.47
-23.34
-31.12
-36.00
-36.83
-34.42
-31.29
-30.17
-33.04
-41.54
-55.99
-75.97
-95.95
-109.32
-111.99
-103.86
-87.40
-65.96
-43.12
-20.03
3.41
33.76
78.13
139.15
213.20
292.77
368.76
431.61
475.07
466.02
387.46
253.62
102.86
-29.78
-126.76
-182.51
-204.43
-195.95
-162.57
-109.57
-45.48
15.42
57.25
70.77
56.50
15.27
-39.36
-89.92
-121.18
-129.97
-125.06
-120.25
-125.05
-140.21
-160.51
-177.47
-186.66
-186.94
-181.24
-171.89
-163.08
-156.63
-151.03
-142.41
-126.50
-102.74
-72.38
-37.86
-2.28
30.39
56.83
75.11
86.56
94.20
99.94
104.45
106.68
104.46
96.04
83.21
72.12
72.79
91.62
126.17
165.45
194.96
203.29
186.53
149.86
95.52
36.01
-12.87
-42.76
-57.41
-66.43
-76.99
-90.58
-104.10
-114.37
-116.31
-108.25
-92.44
-72.64
-51.76
-30.78
-9.31
13.45
34.90
53.61
68.89
80.36
87.95
91.86
92.08
88.01
78.77
65.66
50.39
35.71
24.54
19.38
21.70
30.94
44.17
56.61
63.19
60.74
48.16
26.67
-0.28
-28.27
-53.80
-75.42
-93.45
-108.59
-120.33
-126.76
-125.88
-116.87
-100.82
-80.29
-58.21
-37.14
-19.29
-7.14
-3.58
-11.08
-30.02
-57.19
-85.93
-108.31
-118.36
-114.67
-100.75
-82.93
-67.27
-57.05
-51.92
-49.04
-45.06
-37.86
-27.17
-14.04
0.08
14.07
27.29
39.15
48.64
54.31
54.74
49.30
38.85
25.75
13.11
3.61
-1.70
-3.85
-5.58
-10.06
-19.77
-35.81
-57.94
-85.03
-115.17
-145.53
-172.27
-190.73
-196.61
-187.48
-163.87
-129.08
-87.93
-45.00
-3.56
34.37
67.23
93.21
110.30
117.17
114.17
103.59
89.03
74.22
61.89
53.39
48.84
47.77
49.53
53.45
58.80
64.63
69.83
73.27
74.06
71.79
66.63
59.34
50.89
42.12
33.36
24.45
15.05
5.22
-4.26
-11.76
-15.33
-13.59
-6.48
4.36
16.16
26.01
31.99
33.80
32.76
31.00
30.36
31.53
33.93
36.38
37.84
37.93
37.04
36.06
35.86
36.80
38.29
39.29
39.07
37.66
35.87
34.99
36.13
39.60
44.64
49.32
51.76
51.53
50.10
50.07
53.73
61.65
72.07
81.33
84.70
78.56
62.08
37.28
7.80
-22.67
-51.57
-77.24
-95.77
-104.14
-102.98
-95.79
-86.14
-75.99
-65.66
-54.92
-43.53
-31.97
-21.88
-15.29
-13.19
-15.24
-20.39
-27.41
-35.88
-43.91
-48.85
-48.24
-40.84
-27.70
-12.63
-1.22
1.52
-6.89
-24.41
-45.97
-66.31
-82.76
-96.40
-111.43
-133.33
-161.74
-194.48
-225.28
-245.65
-248.26
-229.88
-192.49
-142.28
-87.08
-33.48
13.29
49.85
73.28
81.08
72.76
51.88
26.79
8.36
5.70
21.28
49.95
80.76
101.67
104.45
87.72
56.88
21.43
-8.19
-24.24
-22.93
-4.63
27.46
69.12
116.61
167.20
218.65
268.55
313.58
349.74
373.45
382.92
379.08
365.11
345.09
321.90
297.00
270.25
240.33
205.56
165.02
119.03
68.84
15.82
-39.70
-96.21
-150.50
-198.23
-235.47
-260.65
-275.48
-284.54
-292.99
-304.73
-317.29
-322.72
-312.02
-280.55
-230.78
-172.19
-118.30
-82.14
-73.29
-91.58
-127.92
-168.71
-201.22
-216.88
-212.97
-192.13
-149.63
-92.91
-35.29
14.43
55.92
89.76
113.00
120.35
109.45
84.90
53.26
27.70
20.03
33.36
59.96
86.30
100.60
98.99
85.99
69.36
57.50
55.16
62.32
76.19
94.50
116.56
142.13
169.31
192.92
207.57
209.47
197.72
174.40
144.18
112.67
85.38
66.45
57.09
56.19
60.49
65.66
68.01
66.08
59.99
52.41
46.95
45.51
46.86
46.64
39.12
19.31
-15.27
-65.58
-127.24
-190.25
-241.77
-270.28
-268.68
-235.65
-176.01
-99.70
-23.31
38.54
77.43
91.30
82.06
54.03
12.95
-35.51
-87.27
-144.88
-209.32
-276.34
-337.72
-385.37
-414.25
-423.07
-414.28
-364.03
-270.54
-157.14
-53.86
24.96
81.01
121.05
150.06
169.64
179.67
175.80
158.03
133.33
110.38
95.66
91.39
96.47
107.60
120.70
128.66
127.84
119.98
109.80
101.16
94.33
88.66
83.23
77.67
70.18
60.74
51.11
42.88
35.80
28.25
19.39
10.21
3.12
-0.74
-1.63
-1.28
-2.30
-7.30
-18.01
-34.92
-58.11
-87.30
-120.98
-153.97
-176.85
-178.69
-152.24
-99.04
-30.50
35.15
79.88
92.60
72.49
27.61
-29.67
-87.28
-136.20
-170.44
-186.28
-181.81
-157.27
-115.74
-63.04
-6.19
48.95
99.58
146.93
193.94
242.93
293.12
339.93
376.40
395.90
395.08
374.54
340.10
298.32
254.64
212.01
171.21
132.12
95.06
60.95
28.92
-1.34
-34.28
-75.55
-128.89
-193.07
-261.07
-321.41
-361.83
-375.97
-360.03
-319.36
-262.91
-199.48
-134.82
-72.83
-17.08
28.16
55.25
62.73
48.50
14.71
-33.30
-88.08
-144.34
-199.58
-234.97
-267.23
-287.35
-288.88
-267.22
-223.36
-164.04
-101.72
-49.10
-12.55
8.26
30.94
65.22
107.56
137.93
144.77
126.28
88.89
46.96
15.34
7.75
24.25
58.17
93.08
112.75
111.20
95.56
78.65
67.98
65.88
66.56
63.02
51.13
33.47
15.78
3.70
0.24
4.17
12.42
19.62
21.39
15.76
5.37
-4.78
-9.77
-6.32
5.15
21.93
39.18
52.75
60.66
64.63
67.80
72.31
78.03
82.68
83.56
78.97
69.41
56.96
44.87
35.79
31.56
33.86
44.25
63.40
89.28
117.02
136.75
139.68
120.29
79.55
26.37
-24.36
-55.84
-56.47
-22.83
39.05
115.68
189.58
245.07
273.50
275.43
259.09
233.29
205.67
180.36
157.45
133.75
105.61
71.74
33.70
-5.89
-49.59
-101.11
-162.25
-231.39
-304.04
-373.49
-431.99
-473.37
-495.57
-506.29
-514.83
-526.24
-540.14
-553.06
-561.06
-561.59
-554.85
-511.69
-425.16
-312.93
-201.95
-107.07
-27.17
45.27
115.15
181.90
243.01
292.92
326.22
341.56
340.39
323.88
293.09
251.90
209.13
171.37
146.23
138.51
147.92
167.92
187.14
194.05
182.07
151.81
109.82
64.00
22.62
-6.08
-16.47
-8.61
10.96
32.04
45.92
49.63
46.42
43.43
47.56
60.99
79.79
96.76
105.85
105.01
95.94
81.45
63.06
41.08
15.79
-11.15
-36.43
-56.26
-68.15
-71.88
-68.97
-61.96
-53.16
-44.21
-36.37
-30.64
-27.55
-26.58
-26.09
-23.81
-18.38
-10.18
-1.37
5.38
8.40
8.12
6.71
6.68
9.33
14.12
19.31
23.25
25.50
26.89
28.85
32.36
37.27
42.66
47.48
51.36
54.83
58.95
64.82
73.06
83.43
95.07
106.64
116.35
122.07
121.47
112.64
95.08
70.73
43.97
20.37
4.32
-3.32
-5.83
-9.04
-18.14
-34.65
-55.13
-72.45
-78.97
-70.16
-46.92
-15.49
14.52
33.15
32.95
10.88
-30.91
-85.32
-141.74
-188.31
-214.80
-215.46
-190.76
-147.38
-96.33
-49.62
-16.79
-2.52
-6.16
-22.78
-45.43
-67.26
-82.95
-89.72
-87.40
-78.29
-66.45
-56.57
-52.38
-55.28
-63.56
-73.09
-78.95
-77.12
-65.89
-46.34
-21.95
2.69
23.43
37.81
45.18
46.27
43.08
38.39
35.09
35.12
38.87
45.17
51.78
55.33
52.31
41.33
24.71
8.13
-1.61
0.56
15.91
41.02
66.93
80.95
72.02
35.62
-23.90
-94.60
-160.70
-206.65
-220.85
-199.35
-146.43
-71.18
16.05
104.98
185.54
244.19
263.79
240.77
190.92
136.67
94.25
70.42
64.21
70.07
81.03
91.78
99.69
103.75
103.06
97.39
88.30
78.32
69.65
63.15
59.07
56.87
55.48
52.93
47.79
40.32
31.97
24.11
16.11
10.61
6.02
-0.75
-12.82
-31.15
-53.78
-77.17
-97.80
-114.22
-127.22
-139.53
-153.67
-171.88
-195.99
-227.29
-265.86
-308.70
-349.62
-380.12
-392.30
-380.91
-346.00
-293.08
-230.92
-168.10
-109.46
-56.10
-7.17
37.97
79.35
116.16
147.49
173.31
189.36
193.68
189.23
180.74
170.99
160.58
149.12
136.45
122.95
109.63
98.50
91.12
87.51
86.28
85.65
84.06
80.82
75.84
69.48
62.95
57.30
52.95
50.23
49.88
52.50
57.49
61.88
60.98
50.73
29.67
-0.08
-33.45
-64.33
-88.44
-102.93
-106.85
-100.31
-83.95
-59.65
-31.18
-3.84
17.13
28.92
32.47
31.47
30.27
31.26
33.73
34.83
31.48
22.23
8.13
-7.72
-21.72
-30.97
-34.03
-31.11
-23.70
-14.21
-5.37
0.58
2.48
0.22
-5.57
-13.86
-23.55
-33.71
-42.15
-47.55
-49.27
-47.45
-43.07
-37.69
-33.06
-30.42
-29.77
-29.55
-27.21
-20.09
-6.73
11.94
32.59
50.68
62.25
65.51
61.26
52.09
41.26
31.48
24.40
20.68
20.21
22.19
24.95
26.16
23.49
15.82
4.19
-8.22
-17.31
-19.85
-15.13
-5.45
4.77
10.79
9.60
1.04
-12.34
-26.54
-37.77
-43.69
-43.87
-39.34
-31.73
-22.40
-12.06
-0.84
11.03
22.92
33.65
41.81
46.35
47.03
44.62
40.66
36.77
33.96
32.29
30.92
28.68
24.72
19.00
12.49
6.74
3.02
1.65
1.75
1.70
-0.11
-4.49
-11.17
-18.56
-24.50
-27.40
-27.12
-24.91
-22.72
-22.30
-24.50
-29.05
-34.20
-37.63
-38.01
-35.89
-33.31
-32.42
-34.38
-39.00
-45.12
-50.27
-52.04
-49.51
-44.13
-38.68
-35.28
-34.65
-36.13
-38.36
-38.53
-33.49
-20.84
0.27
29.88
68.17
114.92
168.19
214.95
238.13
227.24
187.23
133.82
83.09
45.49
24.34
16.62
15.08
13.14
7.38
-2.00
-12.59
-21.26
-25.32
-23.98
-18.66
-12.41
-7.09
-2.37
3.01
9.44
15.62
19.81
19.58
14.19
4.88
-4.88
-10.77
-9.72
-1.67
10.46
22.30
29.73
30.78
26.26
19.62
15.31
16.76
25.04
38.79
55.31
71.46
85.21
95.73
102.87
106.34
104.96
97.51
83.34
63.18
38.51
12.65
-10.29
-27.37
-38.19
-44.56
-49.15
-53.92
-59.41
-66.54
-74.47
-81.42
-86.20
-88.86
-89.82
-89.15
-86.93
-84.10
-85.72
-95.38
-113.75
-139.18
-169.30
-201.47
-233.06
-261.90
-286.35
-308.44
-326.99
-337.45
-335.13
-318.70
-290.23
-253.77
-213.67
-151.75
-71.40
8.26
69.62
108.53
129.17
137.23
137.34
133.09
127.33
118.79
108.34
98.88
93.37
91.99
93.56
96.47
100.37
105.97
111.63
117.67
126.05
139.10
156.09
174.05
189.36
199.41
203.38
200.99
195.27
184.48
171.35
157.88
144.99
133.07
122.87
115.67
112.39
114.60
123.82
141.13
164.47
188.91
207.87
215.23
207.42
184.58
150.95
113.15
78.35
50.75
31.14
17.79
7.97
-0.78
-10.28
-21.92
-37.05
-56.48
-81.24
-112.13
-149.06
-190.17
-230.89
-264.27
-282.93
-282.41
-263.67
-234.15
-205.15
-186.77
-183.41
-192.37
-206.17
-217.08
-220.93
-217.87
-210.36
-200.07
-186.44
-167.56
-142.46
-112.95
-83.39
-58.45
-40.48
-28.07
-16.96
-2.74
16.32
37.95
56.85
67.50
67.10
56.87
41.35
26.01
14.48
7.00
0.94
-7.03
-18.66
-32.95
-46.54
-55.23
-55.28
-44.14
-20.69
13.98
55.81
97.81
131.44
149.41
148.63
131.25
103.30
71.82
42.05
16.50
-4.29
-20.39
-31.75
-38.71
-42.97
-47.66
-55.88
-68.96
-85.43
-101.68
-113.94
-120.14
-120.48
-116.49
-109.42
-99.46
-85.88
-67.75
-44.85
-18.12
10.59
38.85
64.05
83.96
97.11
103.20
103.09
98.28
89.95
78.59
64.28
47.95
32.57
22.90
23.90
37.97
62.82
91.70
116.14
129.65
130.32
120.66
105.01
86.67
66.42
43.57
18.30
-6.45
-25.36
-32.98
-26.48
-7.56
18.00
42.54
59.53
65.82
62.31
52.98
42.82
35.67
32.69
32.42
31.87
28.28
20.66
10.14
-0.73
-9.44
-14.74
-17.30
-19.21
-22.87
-29.56
-38.85
-48.88
-57.44
-63.11
-65.77
-66.44
-66.51
-67.18
-69.16
-72.71
-77.71
-83.41
-88.14
-89.36
-84.40
-71.68
-51.65
-26.88
-0.95
23.14
43.94
61.40
75.87
87.23
94.66
97.48
95.93
91.48
86.36
82.40
80.15
78.83
76.96
73.02
65.79
54.06
36.27
10.90
-22.67
-62.82
-105.20
-143.57
-172.10
-187.57
-190.53
-184.55
-174.40
-164.12
-155.99
-150.90
-149.30
-151.90
-159.28
-170.83
-183.80
-193.23
-193.29
-179.28
-149.48
-106.06
-54.56
-2.09
44.71
81.39
106.47
121.08
127.89
129.80
129.07
126.72
122.40
114.76
102.15
83.49
59.17
31.29
3.46
-20.11
-35.65
-40.86
-35.50
-21.37
-1.92
18.51
35.65
46.30
49.36
46.18
40.10
35.03
33.69
36.57
42.04
47.54
51.20
52.75
53.31
54.36
56.46
58.63
58.91
55.67
49.20
42.37
40.05
47.03
65.63
94.01
126.28
154.75
172.91
177.77
170.29
153.99
132.98
110.77
90.54
75.80
70.54
77.62
97.11
124.96
154.13
177.67
191.60
195.99
193.38
186.45
176.49
164.01
150.22
137.98
130.66
129.64
132.47
133.37
125.78
105.43
72.24
29.78
-16.48
-61.29
-100.81
-132.60
-155.41
-169.17
-175.19
-175.93
-174.00
-170.82
-166.18
-159.12
-148.79
-135.30
-119.75
-103.68
-88.03
-73.03
-57.87
-42.24
-27.22
-14.98
-7.41
-5.15
-7.50
-12.40
-17.62
-20.20
-18.45
-13.03
-6.45
-1.27
1.08
0.14
-2.81
-6.18
-6.18
-0.10
11.82
26.48
40.29
50.79
56.01
55.88
50.89
45.32
44.15
50.77
66.25
90.49
122.77
160.26
200.47
221.93
211.01
171.85
122.13
75.74
35.52
3.36
-29.28
-65.28
-103.03
-136.02
-159.08
-169.95
-170.67
-165.40
-157.76
-151.00
-145.71
-141.97
-137.51
-130.66
-121.82
-113.31
-106.97
-102.83
-100.18
-97.03
-92.26
-84.63
-74.21
-62.60
-52.38
-45.17
-40.85
-38.46
-36.27
-33.36
-29.19
-24.04
-18.80
-14.50
-11.53
-9.42
-7.64
-5.61
-3.34
-1.05
0.90
2.25
3.00
3.36
3.83
4.48
5.11
5.34
4.75
3.15
0.97
-0.98
-2.05
-2.01
-1.77
-2.62
-5.42
-10.40
-17.00
-24.00
-30.05
-34.60
-37.48
-39.66
-42.08
-44.86
-47.74
-50.09
-51.11
-50.23
-47.73
-44.33
-42.06
-43.13
-49.23
-58.84
-70.54
-83.07
-94.39
-105.04
-109.46
-102.53
-81.78
-44.60
4.56
57.47
106.45
148.06
183.81
218.41
254.62
290.66
320.43
334.12
323.94
288.55
233.87
169.78
106.03
48.67
0.33
-37.34
-64.39
-81.35
-89.65
-92.38
-94.63
-101.89
-117.93
-142.79
-166.15
-176.49
-168.46
-147.13
-122.03
-100.49
-85.53
-77.27
-76.07
-78.61
-82.72
-86.31
-87.01
-82.48
-71.59
-55.37
-35.16
-14.90
2.27
13.75
18.67
18.01
14.33
10.55
8.93
10.73
16.04
24.63
34.79
44.16
50.70
53.60
53.24
50.68
47.09
43.34
40.46
38.58
36.80
33.26
25.71
12.08
-8.49
-34.67
-63.12
-89.23
-109.62
-123.27
-131.22
-134.34
-132.41
-124.08
-108.37
-86.68
-62.71
-42.32
-30.86
-30.27
-36.45
-41.96
-39.69
-25.85
-0.85
33.45
73.82
116.62
157.98
196.34
229.35
253.65
266.09
265.55
256.02
242.62
229.01
215.68
204.64
195.66
187.23
177.92
167.68
160.85
160.94
168.32
179.13
191.89
202.49
206.06
199.13
162.84
95.27
14.40
-46.40
-87.93
-118.45
-148.51
-183.30
-223.32
-265.45
-302.93
-332.30
-355.20
-377.62
-385.45
-368.71
-328.64
-275.70
-219.98
-164.99
-112.78
-66.35
-30.69
-6.28
6.69
9.99
8.48
7.93
15.23
34.17
64.10
98.21
128.62
145.70
142.85
119.61
82.88
45.28
17.10
8.94
24.63
61.50
109.63
156.20
189.37
202.33
194.92
171.85
140.98
108.95
81.48
62.14
52.48
51.35
56.03
62.96
68.02
67.90
59.32
41.43
18.00
-1.39
-8.93
-3.99
8.76
20.53
30.86
39.79
47.03
51.52
55.04
56.84
55.87
51.85
45.40
38.11
30.22
21.17
9.53
-6.94
-31.41
-65.18
-106.05
-148.39
-184.84
-210.24
-223.22
-226.59
-226.12
-228.50
-237.70
-253.25
-270.89
-284.53
-289.27
-282.25
-262.54
-230.79
-189.12
-140.71
-89.63
-40.51
2.52
36.56
60.71
75.94
84.09
86.72
84.89
79.34
70.98
61.07
51.03
42.10
35.08
30.34
27.96
28.02
30.51
35.14
41.16
47.63
53.59
58.42
61.80
63.58
63.53
61.35
56.94
50.55
42.97
35.22
28.20
22.28
17.21
12.34
7.03
1.02
-5.46
-11.79
-17.40
-22.00
-25.81
-29.37
-33.22
-37.46
-41.60
-44.63
-45.41
-43.23
-38.11
-30.89
-22.82
-15.06
-8.29
-2.52
2.62
7.49
12.17
16.37
19.70
22.00
23.43
24.43
25.39
26.36
27.00
26.87
25.68
23.63
21.26
19.34
18.39
18.42
19.00
19.41
19.02
17.57
15.23
12.48
9.84
7.55
5.47
3.20
0.35
-3.11
-6.80
-10.03
-12.22
-13.23
-13.44
-13.57
-14.24
-15.68
-17.57
-19.32
-20.38
-20.68
-20.61
-20.85
-21.96
-24.01
-26.54
-28.73
-29.73
-29.03
-26.63
-22.88
-18.32
-13.34
-8.08
-2.45
3.67
10.11
16.36
21.69
25.53
27.74
28.70
29.12
29.57
30.17
30.55
30.11
28.50
25.89
22.94
20.40
18.74
17.92
17.52
17.05
16.24
15.10
13.83
12.55
11.11
9.19
6.45
2.79
-1.50
-5.82
-9.49
-12.02
-13.35
-13.90
-14.36
-15.38
-17.30
-20.03
-23.13
-26.05
-28.44
-30.28
-31.86
-33.61
-35.88
-38.87
-42.56
-46.69
-50.92
-54.77
-57.74
-59.32
-59.07
-56.66
-51.98
-45.19
-36.80
-27.63
-18.63
-10.63
-4.08
1.11
5.51
9.86
14.65
19.89
24.97
29.11
31.67
32.57
32.24
31.46
30.87
30.73
30.84
30.82
30.48
29.90
29.42
29.31
29.54
29.72
29.31
27.99
25.85
23.33
20.98
19.08
17.58
16.16
14.44
12.29
9.81
7.23
4.74
2.33
-0.15
-2.88
-5.94
-9.30
-12.84
-16.40
-19.83
-22.95
-25.64
-27.95
-30.13
-32.61
-35.78
-39.74
-44.15
-48.21
-51.02
-51.88
-50.59
-47.41
-42.84
-37.29
-30.97
-23.87
-16.03
-7.73
0.46
7.95
14.31
19.50
23.77
27.45
30.66
33.22
34.82
35.30
34.94
34.34
34.14
34.70
35.82
36.83
37.05
36.15
34.35
32.31
30.78
30.15
30.33
30.74
30.72
29.81
27.92
25.40
22.68
20.12
17.76
15.35
12.56
9.33
5.91
2.78
0.39
-1.19
-2.36
-3.79
-6.07
-9.32
-13.13
-16.79
-19.62
-21.43
-22.50
-23.56
-25.37
-28.40
-32.64
-37.57
-42.29
-45.81
-47.35
-46.60
-43.80
-39.57
-34.64
-29.47
-24.12
-18.39
-12.11
-5.40
1.34
7.70
13.56
19.17
24.92
30.99
37.07
42.35
45.98
47.55
47.30
46.08
44.87
44.29
44.39
44.69
44.58
43.75
42.34
40.92
40.18
40.51
41.79
43.35
44.35
44.18
42.80
40.78
38.96
38.04
38.22
39.04
39.60
39.08
37.00
33.52
29.32
25.31
22.17
20.06
18.54
16.80
13.96
9.33
2.52
-6.71
-18.65
-33.64
-51.78
-72.59
-94.66
-115.77
-133.44
-145.71
-151.92
-152.98
-151.03
-148.58
-147.68
-149.34
-153.41
-158.90
-164.37
-168.31
-169.06
-164.84
-153.69
-133.87
-104.55
-66.62
-22.87
22.50
65.07
101.50
130.36
152.11
168.35
180.79
190.36
197.18
201.17
202.85
203.82
206.33
212.06
220.93
230.50
236.35
233.47
218.02
188.72
147.64
99.80
51.91
10.50
-20.00
-38.32
-46.50
-48.71
-49.24
-50.72
-53.40
-55.85
-56.61
-55.67
-54.79
-56.52
-62.60
-72.93
-85.61
-98.05
-108.25
-115.41
-119.72
-121.62
-121.06
-117.54
-110.49
-99.93
-86.78
-72.56
-58.82
-46.71
-36.72
-28.86
-22.96
-18.90
-16.55
-15.70
-15.77
-16.00
-15.59
-14.09
-11.76
-9.58
-8.90
-10.84
-15.79
-23.10
-31.26
-38.18
-41.88
-40.95
-35.11
-25.21
-13.08
-0.93
9.44
17.21
22.81
27.57
32.98
39.96
48.40
57.22
64.83
69.70
70.81
67.84
61.28
52.28
42.46
33.44
26.42
21.82
19.23
17.84
17.02
16.69
17.24
19.06
21.90
24.81
26.45
26.11
24.22
22.35
22.59
26.79
35.42
47.18
59.31
68.64
72.86
70.96
63.14
50.26
33.62
14.40
-6.43
-27.98
-49.21
-68.33
-83.56
-93.76
-98.87
-99.00
-94.67
-86.65
-75.95
-63.48
-48.90
-32.01
-13.22
6.10
26.24
48.15
72.41
98.19
122.91
144.69
160.20
165.25
155.39
132.48
102.57
73.26
50.37
36.64
35.23
45.96
65.20
85.68
105.76
126.26
148.03
169.60
188.10
205.44
223.19
240.60
251.91
257.26
258.60
257.31
252.12
212.28
126.01
7.60
-94.43
-174.34
-234.88
-280.69
-309.03
-317.40
-305.92
-273.31
-222.48
-161.63
-104.65
-61.99
-39.99
-37.24
-46.33
-58.99
-66.79
-66.21
-56.41
-46.18
-38.97
-34.66
-31.19
-26.84
-20.36
-10.93
2.44
18.26
31.14
39.26
43.42
46.08
49.11
52.94
57.72
62.91
66.84
66.51
61.06
50.69
35.87
16.73
-6.80
-34.42
-65.61
-100.12
-137.48
-174.56
-205.93
-225.40
-228.83
-216.31
-192.37
-164.02
-138.12
-119.21
-108.42
-104.29
-104.21
-105.64
-106.25
-103.77
-95.83
-80.57
-57.34
-27.09
7.69
43.66
77.43
106.36
128.99
144.96
154.46
157.50
153.18
139.66
114.96
78.46
32.26
-18.45
-66.48
-104.85
-128.90
-137.55
-133.19
-120.27
-103.61
-86.94
-72.04
-58.74
-45.67
-31.26
-14.65
3.86
23.11
41.66
58.46
72.96
84.73
92.92
96.00
92.32
81.01
62.97
40.96
18.95
0.76
-11.13
-16.08
-15.21
-10.76
-5.36
-1.36
-0.43
-3.17
-9.26
-17.70
-27.11
-35.98
-42.69
-45.46
-42.53
-32.78
-16.39
4.77
27.42
47.88
63.16
71.94
74.59
72.68
68.26
63.15
58.63
55.31
53.04
50.98
47.92
42.78
35.31
26.33
17.31
9.53
3.32
-2.16
-8.32
-16.17
-25.55
-35.12
-43.05
-47.94
-49.28
-47.40
-42.86
-35.99
-26.85
-15.68
-3.40
8.29
17.35
22.16
22.22
18.32
12.27
6.13
1.27
-2.10
-4.87
-8.36
-13.44
-20.01
-27.00
-32.95
-36.82
-38.42
-38.29
-37.16
-35.47
-33.14
-29.87
-25.47
-20.18
-14.47
-8.81
-3.38
1.93
7.28
12.71
18.01
22.81
26.69
29.31
30.53
30.44
29.40
28.03
27.00
26.81
27.58
28.88
29.91
29.89
28.39
25.67
22.53
19.96
18.57
18.31
18.47
18.06
16.30
12.94
8.39
3.28
-1.80
-6.53
-10.72
-14.19
-16.72
-18.09
-18.33
-17.87
-17.51
-18.12
-20.20
-23.66
-27.83
-31.83
-35.01
-37.25
-38.92
-40.73
-43.39
-47.12
-51.44
-55.38
-57.92
-58.57
-57.66
-55.91
-54.45
-54.19
-55.22
-56.70
-57.37
-56.53
-54.44
-52.29
-50.94
-51.18
-53.54
-58.09
-64.59
-72.67
-82.04
-91.82
-100.13
-103.28
-98.27
-83.88
-60.73
-30.12
6.90
49.60
97.25
147.88
198.73
244.26
277.51
293.15
290.02
271.57
243.52
211.50
172.38
128.44
85.64
49.17
19.31
-8.26
-35.64
-62.98
-86.44
-101.94
-105.14
-95.05
-74.92
-50.95
-29.46
-14.49
-7.25
-6.23
-8.82
-11.66
-13.25
-13.94
-14.71
-15.46
-14.80
-11.53
-5.64
1.12
6.67
8.59
5.39
-2.98
-14.09
-23.70
-27.87
-24.58
-14.53
-0.23
14.53
26.18
31.74
30.91
26.03
20.28
15.68
12.54
10.05
7.01
2.85
-3.62
-12.36
-22.22
-32.17
-42.34
-53.25
-64.98
-77.14
-89.11
-102.86
-119.91
-139.69
-159.51
-175.62
-183.82
-180.86
-165.82
-129.08
-73.43
-13.49
35.36
67.89
88.33
103.84
119.99
136.53
149.85
154.06
146.33
128.88
107.31
85.07
66.09
52.38
43.45
37.35
30.46
21.19
11.06
3.22
-0.24
0.86
4.50
7.79
8.80
6.41
1.73
-2.46
-3.54
-0.84
4.48
9.94
13.19
13.31
10.56
6.55
3.43
2.68
4.35
7.45
10.55
12.52
13.07
12.47
11.37
10.39
9.77
9.35
8.83
7.94
6.63
5.12
3.66
2.40
1.25
-0.02
-1.56
-3.29
-4.87
-5.88
-6.02
-5.41
-4.59
-4.34
-5.25
-7.46
-10.53
-13.70
-16.25
-17.88
-18.82
-19.64
-20.85
-22.65
-24.76
-26.62
-27.65
-27.61
-26.65
-25.17
-23.52
-21.77
-19.60
-16.53
-12.28
-7.02
-1.43
3.54
7.20
9.40
10.65
11.78
13.54
16.07
18.86
21.00
21.66
20.55
18.09
15.19
12.89
11.75
11.72
12.25
12.67
12.62
12.21
11.88
12.03
12.71
13.49
13.74
13.02
11.38
9.31
7.47
6.30
5.75
5.35
4.51
2.96
0.81
-1.48
-3.45
-4.91
-6.06
-7.35
-9.14
-11.54
-14.29
-16.95
-19.16
-20.84
-22.20
-23.57
-25.17
-26.84
-28.19
-28.66
-27.84
-25.73
-22.72
-19.50
-16.62
-14.31
-12.27
-9.94
-6.74
-2.50
2.42
7.26
11.23
13.89
15.30
15.94
16.37
16.93
17.62
18.12
18.19
17.79
17.23
16.95
17.27
18.18
19.26
19.91
19.66
18.43
16.57
14.68
13.26
12.48
12.08
11.57
10.53
8.82
6.67
4.43
2.43
0.71
-0.93
-2.79
-5.07
-7.76
-10.63
-13.40
-15.86
-18.02
-20.10
-22.43
-25.21
-28.39
-31.59
-34.21
-35.69
-35.72
-34.42
-32.26
-29.75
-27.20
-24.57
-21.56
-17.86
-13.43
-8.54
-3.70
0.63
4.23
7.16
9.73
12.23
14.81
17.37
19.60
21.20
21.94
21.91
21.43
20.97
20.88
21.23
21.73
21.89
21.31
19.90
17.98
16.09
14.64
13.75
13.11
12.27
10.92
9.08
7.07
5.33
4.07
3.10
1.97
0.19
-2.44
-5.62
-8.75
-11.12
-12.41
-12.73
-12.62
-12.69
-13.25
-14.26
-15.37
-16.24
-16.82
-17.40
-18.43
-20.18
-22.53
-24.93
-26.61
-26.93
-25.64
-22.93
-19.33
-15.38
-11.47
-7.66
-3.81
0.24
4.45
8.49
11.90
14.31
15.77
16.75
18.08
20.45
24.06
28.46
32.80
36.33
38.86
40.86
43.19
46.48
50.68
54.95
58.00
58.87
57.39
54.42
51.37
49.53
49.32
50.13
50.48
48.77
43.90
35.66
24.74
12.39
-0.05
-11.46
-21.06
-28.38
-33.30
-36.00
-37.04
-37.20
-37.35
-38.14
-39.77
-42.03
-44.41
-46.41
-47.77
-48.61
-49.31
-50.35
-52.00
-54.18
-56.41
-57.95
-58.11
-56.50
-53.21
-48.80
-44.03
-39.55
-35.66
-32.29
-28.99
-25.25
-20.62
-14.68
-6.96
3.13
16.18
32.33
50.94
70.37
88.26
102.31
111.11
114.55
113.59
109.48
102.98
94.03
82.08
66.87
49.07
30.34
12.77
-1.91
-12.97
-20.70
-26.08
-30.20
-33.70
-36.64
-38.62
-39.11
-37.84
-35.12
-31.86
-29.30
-28.56
-30.14
-33.55
-37.55
-40.52
-41.21
-39.37
-35.83
-32.35
-30.96
-33.28
-40.11
-51.15
-65.14
-79.99
-92.97
-100.82
-100.28
-89.01
-66.97
-37.38
-6.67
17.19
27.34
20.66
-1.23
-32.92
-67.49
-98.95
-123.39
-138.79
-143.98
-137.96
-120.12
-91.33
-54.58
-14.87
22.39
53.19
76.28
92.98
105.99
117.59
128.41
137.24
141.72
139.66
130.08
113.80
93.19
71.44
51.58
35.70
24.59
17.91
14.67
13.90
14.93
17.46
21.13
25.20
28.48
29.63
27.80
23.04
16.32
9.09
2.67
-2.27
-5.82
-8.58
-11.22
-14.13
-17.23
-20.12
-22.30
-23.46
-23.66
-23.24
-22.62
-21.96
-21.01
-19.22
-15.97
-10.96
-4.48
2.67
9.36
14.58
17.71
18.65
17.84
16.03
14.03
12.51
11.79
11.85
12.48
13.41
14.51
15.86
17.49
19.30
20.89
21.73
21.43
20.00
17.96
16.09
15.03
14.88
15.24
15.46
14.99
13.72
12.01
10.37
9.07
8.04
6.86
5.16
2.83
0.13
-2.45
-4.56
-6.17
-7.61
-9.37
-11.69
-14.44
-17.20
-19.45
-20.83
-21.58
-22.40
-24.15
-27.31
-31.62
-36.08
-39.51
-40.89
-39.80
-36.63
-32.34
-28.01
-24.38
-21.54
-19.09
-16.69
-14.13
-11.32
-8.50
-6.17
-4.77
-4.43
-4.84
-5.48
-6.52
-7.86
-8.91
-9.07
-8.25
-6.89
-5.63
-4.96
-4.98
-6.87
-10.52
-14.32
-16.46
-16.49
-15.52
-15.48
-17.91
-23.20
-32.17
-42.51
-48.67
-45.08
-29.92
-6.47
18.05
34.74
35.54
12.83
-34.09
-97.35
-163.74
-220.00
-256.57
-269.26
-259.49
-214.98
-140.98
-59.20
7.93
52.44
78.63
93.59
101.74
104.62
102.94
95.15
82.77
70.51
63.34
63.08
69.07
78.83
90.57
103.18
113.35
118.57
118.11
112.70
103.33
91.59
79.84
70.79
66.05
64.08
62.82
58.92
50.54
36.17
14.89
-13.07
-45.76
-79.71
-111.05
-135.28
-148.50
-148.76
-137.58
-119.50
-100.40
-85.35
-77.20
-76.28
-80.38
-85.71
-88.23
-85.17
-75.78
-61.31
-44.33
-27.82
-14.27
-5.05
-0.36
0.69
-0.48
-2.37
-3.52
-2.68
1.10
8.08
17.56
28.04
37.77
45.41
50.48
53.45
55.22
56.44
57.22
57.30
56.62
55.91
56.84
61.67
72.45
90.06
113.57
140.14
165.99
187.64
203.12
212.53
217.49
219.97
221.13
221.06
219.49
217.05
215.76
218.26
226.10
238.13
250.04
256.04
251.33
234.34
207.18
174.24
139.62
105.08
69.74
31.63
-9.88
-52.48
-91.04
-119.82
-135.27
-138.05
-132.81
-126.08
-123.13
-125.64
-131.26
-135.00
-131.76
-118.50
-95.37
-65.53
-34.04
-6.38
12.69
19.99
14.61
-1.65
-24.48
-47.88
-65.68
-73.59
-70.60
-59.37
-45.16
-33.68
-28.81
-31.04
-37.76
-44.93
-49.51
-51.27
-53.03
-59.39
-74.39
-99.61
-133.24
-170.47
-204.70
-229.14
-238.49
-230.21
-205.31
-168.30
-126.23
-86.77
-56.03
-36.97
-29.08
-29.36
-33.79
-38.81
-42.00
-42.16
-39.04
-33.32
-26.59
-21.28
-20.02
-24.57
-34.92
-49.03
-63.49
-74.80
-80.56
-80.34
-75.61
-69.04
-63.50
-61.09
-62.43
-66.43
-70.69
-72.31
-68.99
-59.96
-46.24
-30.19
-14.51
-1.09
9.62
18.52
27.22
37.03
48.41
60.78
72.95
83.72
92.31
98.43
102.11
103.45
102.38
98.73
92.54
84.40
75.49
67.40
61.59
58.73
58.32
58.87
58.53
55.99
51.03
44.55
38.02
32.66
28.78
25.76
22.45
17.92
12.00
5.36
-0.75
-5.16
-7.28
-7.35
-6.36
-5.49
-5.66
-7.10
-9.37
-11.74
-13.59
-14.70
-15.20
-15.38
-15.45
-15.46
-15.46
-15.61
-16.20
-17.45
-19.35
-21.40
-22.92
-23.28
-22.24
-20.11
-17.81
-16.60
-17.68
-21.45
-26.74
-30.39
-27.86
-15.01
9.70
43.74
80.78
112.95
133.76
140.56
135.04
121.77
105.79
90.67
77.95
67.77
59.98
54.74
52.36
52.57
54.08
54.72
52.18
45.08
33.63
19.61
5.78
-5.31
-12.37
-15.79
-17.09
-18.02
-19.60
-21.84
-24.16
-26.25
-28.59
-32.19
-37.71
-44.70
-51.49
-55.90
-56.54
-53.65
-49.10
-45.41
-44.30
-45.79
-48.19
-49.06
-46.44
-39.90
-30.60
-20.78
-12.76
-8.17
-7.64
-10.94
-17.33
-25.90
-35.69
-45.67
-54.76
-61.94
-66.54
-68.53
-68.59
-67.91
-67.90
-69.57
-73.05
-77.27
-80.30
-79.94
-74.54
-63.66
-48.24
-30.03
-10.93
7.57
24.42
38.78
49.74
56.44
58.43
56.27
51.49
46.06
41.48
38.08
35.04
30.98
24.84
16.53
6.93
-2.52
-10.46
-16.09
-19.39
-20.97
-21.82
-22.89
-24.69
-26.98
-28.84
-29.05
-26.68
-21.66
-14.78
-7.38
-0.57
5.23
10.24
15.02
19.82
24.37
28.06
30.38
31.34
31.52
31.76
32.76
34.80
37.68
41.07
44.78
48.89
53.67
59.28
65.49
71.52
76.14
78.04
76.36
71.13
63.39
54.85
47.27
41.84
38.80
37.63
37.45
37.58
37.65
37.54
37.02
35.60
32.53
27.23
19.76
11.09
2.96
-2.75
-4.76
-3.00
1.46
6.85
11.51
14.45
15.41
14.53
11.95
7.63
1.53
-5.84
-13.30
-19.15
-21.92
-21.03
-17.10
-11.63
-6.40
-2.72
-1.07
-1.18
-2.32
-3.74
-4.85
-5.36
-5.26
-4.73
-4.02
-3.35
-2.86
-2.59
-2.49
-2.59
-3.06
-4.24
-6.41
-9.62
-13.57
-17.60
-20.99
-23.33
-24.87
-26.57
-29.74
-35.52
-44.30
-55.46
-67.52
-78.67
-87.43
-93.03
-95.46
-95.12
-92.47
-87.81
-81.25
-72.97
-63.46
-53.60
-44.45
-36.87
-31.22
-27.12
-23.55
-19.32
-13.50
-5.92
2.86
11.78
19.72
25.96
30.37
33.18
34.65
34.81
33.61
31.18
28.16
25.55
24.41
25.25
27.67
30.57
32.65
33.04
31.64
29.02
25.95
23.00
20.30
17.64
14.93
12.43
10.79
10.76
12.76
16.53
21.11
25.08
27.23
26.93
24.32
20.22
15.69
11.64
8.60
6.66
5.68
5.43
5.71
6.21
6.40
5.49
2.63
-2.70
-10.14
-18.44
-25.72
-30.25
-31.26
-29.31
-26.00
-23.16
-21.91
-22.26
-23.26
-23.82
-23.38
-22.27
-21.44
-21.83
-23.80
-26.92
-30.21
-32.63
-33.59
-33.12
-31.82
-30.50
-29.82
-29.92
-30.35
-30.19
-28.44
-24.45
-18.19
-10.07
-0.60
10.07
22.29
36.69
53.59
72.43
91.59
108.78
121.63
128.48
128.82
123.30
113.45
101.07
87.69
74.28
61.18
48.30
35.57
23.18
11.62
1.44
-7.14
-14.25
-20.24
-25.36
-29.36
-31.65
-31.64
-29.12
-24.68
-19.47
-14.82
-11.77
-10.75
-11.50
-13.27
-15.25
-16.85
-17.90
-18.62
-19.34
-20.25
-21.13
-21.51
-21.03
-19.74
-18.17
-17.04
-16.96
-18.08
-20.16
-22.81
-25.76
-28.96
-32.36
-35.74
-38.75
-41.17
-43.31
-46.19
-51.30
-59.92
-72.22
-86.64
-99.83
-107.30
-104.65
-88.98
-59.90
-19.79
26.78
74.35
117.81
153.32
178.58
192.50
194.96
186.65
169.25
145.54
119.11
93.68
72.12
55.79
44.43
36.66
30.82
25.58
20.22
14.42
8.14
1.31
-6.01
-13.63
-21.09
-27.76
-33.02
-36.39
-37.67
-36.94
-34.52
-30.84
-26.33
-21.23
-15.75
-9.98
-4.21
0.96
4.72
6.28
5.31
2.22
-1.91
-5.81
-8.55
-9.99
-10.79
-11.93
-14.13
-17.32
-20.77
-23.45
-24.70
-24.62
-24.02
-23.94
-25.05
-27.30
-30.00
-32.21
-33.14
-32.50
-30.42
-27.19
-22.97
-17.74
-11.42
-4.05
3.98
11.98
19.10
24.66
28.25
29.84
29.72
28.37
26.28
23.73
20.82
17.43
13.45
8.89
3.96
-0.92
-5.35
-9.11
-12.22
-14.89
-17.26
-19.28
-20.65
-20.99
-20.06
-18.01
-15.29
-12.51
-10.12
-8.23
-6.65
-5.03
-3.22
-1.36
0.08
0.69
0.38
-0.54
-1.48
-1.92
-1.69
-1.11
-0.72
-0.97
-1.91
-3.15
-4.13
-4.43
-3.99
-3.18
-2.59
-2.66
-3.52
-4.95
-6.50
-7.74
-8.43
-8.69
-8.94
-9.62
-10.97
-12.81
-14.61
-15.68
-15.67
-14.72
-13.49
-12.76
-12.98
-13.99
-15.09
-15.45
-14.59
-12.68
-10.47
-8.83
-8.33
-8.92
-10.02
-10.82
-10.71
-9.45
-7.28
-4.61
-1.86
0.68
2.81
4.25
4.58
3.28
0.07
-4.72
-10.06
-14.49
-16.69
-16.18
-13.66
-10.75
-9.20
-9.93
-12.51
-15.24
-16.03
-13.48
-7.66
-0.13
6.81
11.19
12.22
10.30
6.61
2.21
-2.54
-8.11
-15.32
-24.63
-35.69
-47.31
-58.05
-66.95
-74.13
-80.75
-88.49
-98.61
-111.37
-126.01
-141.47
-157.36
-174.19
-192.74
-212.73
-231.70
-245.10
-247.77
-236.03
-209.22
-169.77
-121.83
-69.49
-15.85
36.80
85.86
127.80
158.55
175.10
177.14
167.69
152.30
136.91
125.78
120.35
119.36
120.09
119.98
117.66
113.29
108.00
103.04
99.08
95.94
92.84
89.06
84.34
79.07
73.88
69.26
65.15
60.94
55.90
49.63
42.41
35.15
29.02
24.88
22.98
22.77
23.24
23.37
22.60
20.98
19.16
17.92
17.81
18.77
20.08
20.63
19.42
16.04
10.98
5.47
0.99
-1.25
-0.89
1.52
4.71
7.36
8.52
8.00
6.28
4.25
2.81
2.66
4.15
7.29
11.65
16.45
20.87
24.35
27.09
30.24
35.59
44.76
58.14
74.16
89.27
98.79
98.24
84.58
57.02
17.24
-30.88
-81.84
-129.43
-168.05
-193.98
-206.41
-207.33
-200.40
-189.01
-174.82
-157.41
-135.43
-108.43
-78.11
-48.06
-22.36
-3.60
8.22
15.31
20.52
25.60
30.26
32.54
30.19
22.00
8.72
-7.31
-23.28
-37.13
-48.34
-57.56
-65.59
-72.18
-75.59
-73.27
-63.40
-46.20
-24.40
-2.36
15.60
26.70
30.53
28.60
23.35
17.03
11.28
7.14
5.32
6.28
10.04
15.90
22.46
27.99
31.26
32.16
31.85
32.28
35.21
41.17
48.87
55.54
58.02
54.17
43.97
29.76
15.57
5.86
3.98
11.12
26.07
45.85
66.82
85.92
101.37
112.66
120.03
123.89
124.52
122.21
117.54
111.23
103.61
93.96
80.14
59.40
30.19
-6.03
-44.18
-76.71
-96.33
-98.94
-85.47
-61.39
-34.46
-11.72
2.81
8.85
8.82
6.04
3.10
1.11
0.01
-0.68
-1.24
-1.65
-1.97
-2.67
-4.65
-8.83
-15.56
-24.02
-32.46
-38.77
-41.29
-39.47
-34.00
-26.68
-19.76
-15.36
-14.94
-18.79
-25.81
-33.56
-38.94
-39.20
-32.94
-20.72
-4.84
11.41
24.95
33.92
38.05
38.45
36.91
35.06
33.82
33.26
32.90
32.19
30.98
29.59
28.70
28.94
30.56
33.25
36.34
39.06
40.93
41.91
42.39
42.82
43.41
43.93
43.84
42.47
39.22
33.72
25.76
15.37
2.83
-11.08
-25.06
-37.48
-46.87
-52.51
-54.71
-54.60
-53.57
-52.63
-52.16
-52.15
-52.62
-53.94
-56.59
-60.66
-65.49
-69.68
-71.75
-70.85
-67.26
-62.16
-56.96
-52.54
-48.93
-45.55
-41.75
-37.40
-32.79
-28.30
-23.72
-18.16
-10.43
0.08
12.85
26.18
37.83
46.04
50.21
51.12
50.29
49.20
48.63
48.45
48.02
46.82
44.91
43.04
42.22
43.27
46.31
50.56
54.72
57.41
57.81
56.01
52.85
49.60
47.33
46.54
47.10
48.41
49.64
50.00
48.76
45.24
38.85
28.98
15.27
-2.20
-22.59
-44.32
-65.37
-83.74
-98.01
-107.60
-112.69
-113.83
-111.58
-106.51
-99.51
-91.90
-85.42
-81.63
-81.03
-82.60
-84.05
-82.80
-77.20
-67.29
-54.64
-41.57
-30.04
-21.00
-14.21
-8.80
-3.85
1.11
6.03
10.47
13.95
16.26
17.65
18.80
20.56
23.57
28.01
33.38
38.78
43.22
46.16
47.71
48.49
49.31
50.74
52.90
55.42
57.76
59.49
60.58
61.34
62.23
63.55
65.10
66.27
66.21
64.31
60.58
55.68
50.63
46.32
43.05
40.47
37.86
34.52
30.16
24.94
19.26
13.54
8.00
2.78
-2.03
-6.27
-9.79
-12.55
-14.81
-17.12
-20.20
-24.68
-30.91
-38.74
-47.56
-56.40
-64.08
-69.48
-71.85
-71.09
-67.91
-63.62
-59.73
-57.30
-56.40
-56.04
-54.63
-50.71
-43.65
-33.98
-23.01
-12.19
-2.54
5.57
12.13
17.11
20.26
21.20
19.87
16.74
12.87
9.49
7.52
7.28
8.45
10.38
12.49
14.49
16.37
18.28
20.24
22.05
23.37
23.82
23.26
21.82
19.87
17.84
15.98
14.26
12.40
10.09
7.11
3.49
-0.53
-4.67
-8.76
-12.75
-16.68
-20.54
-24.23
-27.52
-30.15
-32.02
-33.20
-34.00
-34.74
-35.62
-36.52
-37.02
-36.53
-34.58
-31.13
-26.54
-21.39
-16.15
-10.90
-5.44
0.52
6.99
13.55
19.43
23.95
26.85
28.51
29.74
31.51
34.42
38.45
42.86
46.49
48.17
47.19
43.68
38.47
32.82
27.79
23.85
20.84
18.19
15.41
12.33
9.18
6.29
3.79
1.48
-0.97
-3.80
-6.85
-9.62
-11.49
-12.11
-11.61
-10.54
-9.63
-9.40
-9.99
-11.14
-12.47
-13.76
-15.08
-16.73
-18.95
-21.73
-24.68
-27.23
-28.98
-29.95
-30.68
-31.97
-34.47
-38.32
-43.04
-47.79
-51.69
-54.27
-55.57
-55.95
-55.76
-54.93
-52.87
-48.60
-41.19
-30.19
-15.95
0.38
17.25
33.17
47.04
58.37
67.06
73.06
76.28
76.61
74.16
69.46
63.33
56.66
49.98
43.41
36.80
30.14
23.82
18.58
15.06
13.51
13.61
14.67
16.03
17.34
18.63
20.05
21.57
22.90
23.51
22.92
20.89
17.52
13.23
8.66
4.50
1.29
-0.70
-1.57
-1.72
-1.68
-1.85
-2.39
-3.24
-4.18
-5.05
-5.79
-6.41
-6.96
-7.44
-7.89
-8.39
-9.17
-10.54
-12.73
-15.79
-19.41
-23.00
-25.86
-27.39
-27.32
-25.82
-23.38
-20.71
-18.32
-16.42
-14.76
-12.88
-10.32
-6.93
-3.02
0.81
3.91
5.93
6.93
7.37
7.83
8.75
10.17
11.81
13.25
14.20
14.61
14.73
14.92
15.37
16.02
16.53
16.56
15.98
14.99
14.06
13.62
13.73
14.05
13.94
12.89
10.77
7.98
5.22
3.19
2.21
2.09
2.21
1.84
0.51
-1.87
-4.94
-8.11
-10.85
-12.92
-14.50
-15.97
-17.75
-20.06
-22.81
-25.68
-28.38
-30.76
-32.83
-34.56
-35.70
-35.72
-33.98
-30.10
-24.25
-17.23
-10.25
-4.37
-0.13
2.65
4.66
6.66
9.06
11.75
14.20
15.89
16.65
16.79
16.93
17.67
19.20
21.24
23.15
24.31
24.48
23.92
23.27
23.11
23.65
24.56
25.18
24.97
23.80
22.11
20.62
19.87
19.89
20.11
19.73
18.20
15.59
12.59
10.09
8.66
8.14
7.72
6.36
3.39
-1.06
-6.18
-10.80
-14.05
-15.72
-16.38
-16.96
-18.29
-20.68
-23.90
-27.34
-30.42
-32.87
-34.69
-36.01
-36.78
-36.71
-35.38
-32.51
-28.28
-23.29
-18.38
-14.20
-10.99
-8.40
-5.81
-2.67
1.14
5.16
8.61
10.76
11.36
10.78
9.87
9.55
10.33
12.10
14.23
15.96
16.85
16.92
16.60
16.40
16.59
17.05
17.39
17.23
16.45
15.26
14.08
13.32
13.06
13.04
12.71
11.60
9.53
6.76
3.90
1.54
0.01
-0.85
-1.56
-2.63
-4.29
-6.35
-8.29
-9.59
-10.01
-9.75
-9.40
-9.60
-10.80
-13.05
-16.03
-19.31
-22.52
-25.54
-28.42
-31.14
-33.41
-34.62
-34.12
-31.52
-27.03
-21.46
-15.91
-11.25
-7.74
-5.00
-2.35
0.74
4.29
7.84
10.71
12.49
13.23
13.47
13.91
15.07
17.00
19.32
21.45
22.92
23.64
23.78
23.72
23.69
23.64
23.24
22.06
19.91
17.07
14.23
12.24
11.66
12.48
14.02
15.24
15.27
13.81
11.27
8.55
6.58
5.81
6.00
6.48
6.57
5.99
5.00
4.13
3.78
3.82
3.62
2.34
-0.50
-4.69
-9.40
-13.58
-16.54
-18.28
-19.41
-20.75
-22.70
-25.05
-27.00
-27.64
-26.37
-23.24
-18.90
-14.26
-10.04
-6.54
-3.61
-0.83
2.15
5.43
8.71
11.52
13.44
14.40
14.72
14.96
15.62
16.86
18.40
19.67
20.20
19.90
19.15
18.59
18.74
19.64
20.77
21.38
20.90
19.32
17.18
15.34
14.48
14.66
15.36
15.70
14.98
12.99
10.11
7.07
4.52
2.75
1.56
0.51
-0.82
-2.53
-4.41
-6.06
-7.24
-8.02
-8.76
-9.94
-11.82
-14.35
-17.15
-19.76
-21.89
-23.57
-25.10
-26.80
-28.74
-30.62
-31.83
-31.73
-29.90
-26.44
-21.90
-17.10
-12.75
-9.17
-6.24
-3.53
-0.58
2.79
6.35
9.59
12.05
13.54
14.23
14.58
14.99
15.55
16.03
16.03
15.33
14.10
12.92
12.50
13.29
15.14
17.37
19.06
19.53
18.70
17.06
15.44
14.49
14.37
14.68
14.74
14.02
12.37
10.13
7.88
6.12
5.02
4.30
3.51
2.32
0.65
-1.21
-2.91
-4.25
-5.44
-6.93
-9.20
-12.37
-16.09
-19.64
-22.32
-23.83
-24.46
-24.91
-25.89
-27.76
-30.27
-32.75
-34.41
-34.74
-33.72
-31.80
-29.51
-27.19
-24.76
-21.83
-17.96
-13.08
-7.59
-2.30
2.02
4.97
6.74
7.96
9.35
11.26
13.52
15.57
16.88
17.29
17.06
16.78
16.94
17.69
18.72
19.46
19.48
18.66
17.34
16.07
15.36
15.36
15.80
16.16
15.94
14.99
13.51
11.95
10.74
10.07
9.75
9.34
8.47
7.01
5.16
3.35
1.99
1.22
0.81
0.31
-0.64
-2.17
-4.10
-6.05
-7.78
-9.37
-11.25
-13.94
-17.70
-22.21
-26.65
-29.95
-31.25
-30.26
-27.39
-23.42
-19.10
-14.79
-10.35
-5.40
0.35
6.74
13.18
18.83
23.10
25.89
27.60
29.01
30.68
32.78
34.91
36.44
36.90
36.26
34.98
33.60
32.45
31.28
29.45
26.30
21.60
15.82
9.89
4.87
1.44
-0.29
-0.84
-0.96
-1.27
-1.97
-2.84
-3.37
-3.21
-2.40
-1.51
-1.41
-2.88
-6.17
-10.90
-16.14
-20.92
-24.63
-27.22
-29.07
-30.63
-32.18
-33.70
-35.08
-36.26
-37.45
-39.00
-41.15
-43.78
-46.39
-48.21
-48.54
-47.13
-44.24
-40.58
-36.91
-33.66
-30.79
-27.86
-24.36
-20.11
-15.48
-11.27
-8.41
-7.43
-8.21
-10.02
-11.86
-12.96
-13.18
-13.06
-13.44
-14.98
-17.84
-21.53
-25.23
-28.19
-30.15
-31.42
-32.70
-34.67
-37.79
-42.24
-48.03
-54.98
-62.53
-69.48
-73.99
-74.00
-68.03
-55.94
-39.18
-20.32
-2.16
13.28
25.17
33.69
39.41
42.87
44.44
44.56
43.92
43.38
43.65
44.96
46.87
48.66
49.64
49.51
48.30
46.15
43.13
39.27
34.78
30.25
26.57
24.57
24.61
26.34
28.96
31.67
34.07
36.24
38.45
40.65
42.36
42.88
41.81
39.51
37.04
35.64
35.98
37.78
39.89
40.93
40.08
37.48
34.03
30.84
28.56
27.15
26.06
24.59
22.44
19.74
16.95
14.51
12.59
11.02
9.43
7.50
5.20
2.80
0.79
-0.33
-0.26
0.94
2.87
4.79
6.00
5.96
4.57
2.14
-0.67
-3.23
-5.16
-6.52
-7.66
-9.05
-11.00
-13.57
-16.63
-20.01
-23.57
-27.18
-30.56
-33.18
-34.43
-33.82
-31.29
-27.34
-22.82
-18.63
-15.29
-12.89
-11.13
-9.60
-7.97
-6.16
-4.29
-2.55
-1.08
0.10
1.10
2.04
2.99
3.83
4.34
4.29
3.59
2.50
1.51
1.15
1.73
3.11
4.73
5.90
6.18
5.56
4.48
3.50
2.99
2.91
2.88
2.42
1.31
-0.33
-2.09
-3.46
-4.12
-4.10
-3.78
-3.73
-4.45
-6.09
-8.45
-11.00
-13.22
-14.83
-15.90
-16.82
-18.03
-19.73
-21.81
-23.91
-25.61
-26.72
-27.31
-27.63
-27.90
-28.10
-27.96
-27.05
-24.98
-21.65
-17.29
-12.37
-7.44
-2.85
1.31
5.18
8.90
12.39
15.28
17.11
17.61
16.97
15.83
14.98
14.98
15.80
16.90
17.57
17.39
16.49
15.53
15.29
16.23
18.15
20.27
21.62
21.58
20.19
18.14
16.48
16.04
17.09
19.18
21.44
22.97
23.17
21.81
19.00
14.91
9.70
3.60
-3.02
-9.58
-15.42
-20.00
-23.09
-24.87
-25.81
-26.57
-27.72
-29.60
-32.25
-35.44
-38.80
-41.93
-44.65
-46.93
-48.84
-50.34
-51.11
-50.64
-48.41
-44.28
-38.58
-32.07
-25.58
-19.69
-14.53
-9.86
-5.30
-0.67
3.87
7.88
10.92
12.83
13.84
14.43
15.13
16.19
17.47
18.56
19.08
18.97
18.64
18.70
19.67
21.59
23.90
25.64
25.99
24.62
21.99
19.03
16.75
15.68
15.68
16.02
15.87
14.69
12.43
9.52
6.48
3.78
1.60
0.09
-0.60
-0.21
1.46
4.35
8.05
11.72
14.38
15.18
13.65
9.85
4.31
-2.14
-8.58
-14.30
-18.92
-22.34
-24.63
-25.82
-25.79
-24.32
-21.29
-16.92
-11.75
-6.59
-2.09
1.42
4.10
6.45
8.93
11.71
14.51
16.80
18.24
18.97
19.71
21.35
24.38
28.48
32.48
34.96
35.02
32.80
29.40
26.19
23.97
22.50
20.65
17.22
11.73
4.76
-2.30
-8.02
-11.70
-13.56
-14.55
-15.63
-17.31
-19.47
-21.59
-23.21
-24.25
-25.03
-26.03
-27.53
-29.34
-30.87
-31.32
-30.09
-27.14
-23.09
-19.03
-16.18
-15.27
-16.29
-18.44
-20.52
-21.49
-20.87
-18.92
-16.34
-13.90
-12.03
-10.79
-9.90
-8.95
-7.69
-6.06
-4.22
-2.42
-0.87
0.37
1.55
3.10
5.47
8.79
12.70
16.51
19.52
21.38
22.30
22.86
23.61
24.71
25.85
26.47
26.20
25.02
23.34
21.67
20.30
19.12
17.72
15.71
12.99
9.86
6.91
4.68
3.41
2.87
2.54
1.90
0.67
-1.05
-2.90
-4.56
-5.95
-7.31
-8.96
-11.09
-13.55
-15.92
-17.77
-18.90
-19.54
-20.26
-21.64
-23.96
-27.03
-30.25
-32.80
-33.93
-33.21
-30.59
-26.38
-21.05
-15.06
-8.75
-2.37
3.93
9.90
15.20
19.45
22.37
23.95
24.43
24.18
23.52
22.53
21.20
19.48
17.50
15.61
14.25
13.75
14.15
15.20
16.47
17.60
18.58
19.72
21.52
24.19
27.29
29.59
29.42
25.32
16.82
4.88
-8.34
-20.21
-28.57
-32.57
-32.80
-30.86
-28.76
-28.17
-30.05
-34.52
-41.04
-48.67
-56.35
-63.09
-68.02
-70.37
-69.50
-65.06
-57.30
-47.15
-35.99
-25.03
-14.73
-4.59
6.41
19.01
32.85
46.45
57.85
65.73
70.06
72.03
73.30
74.98
77.09
78.80
79.12
77.61
74.61
71.02
67.64
64.61
61.26
56.44
49.24
39.51
28.03
16.33
6.06
-1.55
-6.26
-8.86
-10.74
-13.06
-16.39
-20.55
-24.82
-28.40
-30.75
-31.84
-32.24
-32.35
-32.05
-30.81
-28.18
-24.12
-19.09
-13.94
-9.57
-7.24
-7.36
-9.28
-11.77
-14.07
-16.18
-18.79
-22.76
-28.56
-36.65
-45.93
-53.79
-57.63
-56.58
-52.04
-46.79
-43.72
-44.74
-51.52
-63.71
-78.80
-93.24
-103.75
-107.79
-103.46
-89.79
-60.18
-16.40
30.79
68.89
92.02
101.98
104.56
105.75
109.41
116.25
124.01
128.16
125.27
113.94
94.69
69.94
43.47
19.37
0.54
-13.09
-21.24
-24.28
-23.39
-20.84
-19.36
-21.25
-27.66
-38.22
-51.71
-65.68
-77.01
-82.88
-81.88
-74.37
-62.19
-48.15
-35.21
-25.93
-21.45
-21.21
-23.31
-25.55
-26.23
-24.64
-20.92
-15.66
-9.61
-3.29
2.85
8.38
12.67
15.02
15.03
12.90
9.64
6.84
6.09
8.33
13.46
20.33
27.25
32.76
36.30
38.40
40.19
42.73
46.29
50.31
53.83
56.12
57.03
56.99
56.50
55.76
54.51
52.30
48.91
44.64
40.26
36.63
34.27
33.09
32.47
31.64
30.04
27.63
24.71
21.72
18.87
16.03
12.82
8.88
4.24
-0.55
-4.44
-6.28
-5.21
-1.11
5.26
12.47
18.79
22.74
23.56
21.42
17.24
12.24
7.33
2.86
-1.30
-5.41
-9.58
-13.67
-17.35
-20.32
-22.48
-24.04
-25.18
-25.98
-26.40
-26.54
-26.73
-27.44
-29.04
-31.57
-35.02
-38.92
-42.52
-45.20
-46.90
-48.10
-49.50
-51.72
-55.07
-60.19
-66.93
-74.22
-80.35
-83.72
-83.41
-79.24
-71.79
-62.30
-53.44
-47.20
-44.06
-43.14
-43.49
-44.72
-47.05
-51.00
-56.96
-66.21
-78.45
-91.49
-102.06
-107.54
-106.92
-100.40
-88.85
-64.24
-25.64
19.64
60.52
90.21
108.30
118.06
123.68
128.31
133.05
135.29
133.02
124.38
109.86
92.04
74.32
59.94
50.63
45.90
41.94
35.22
23.11
5.41
-14.69
-33.01
-44.96
-47.43
-39.72
-24.25
-4.53
17.63
39.44
58.87
74.93
87.89
98.46
106.99
112.72
114.66
112.34
106.27
98.16
89.92
83.14
78.61
76.36
75.82
76.24
76.83
76.69
74.98
70.47
61.46
46.17
23.43
-6.37
-40.55
-74.33
-102.24
-119.74
-125.28
-120.83
-111.08
-101.07
-94.03
-90.33
-88.08
-84.79
-78.92
-70.58
-61.26
-52.90
-46.72
-42.70
-39.95
-37.36
-34.14
-30.07
-25.13
-19.23
-12.24
-3.94
5.49
14.96
22.39
25.48
22.78
14.47
2.57
-10.13
-20.41
-25.56
-24.48
-18.02
-8.40
1.69
9.97
15.08
15.69
12.05
5.85
-0.91
-7.08
-12.40
-17.26
-22.21
-27.60
-34.94
-44.03
-52.70
-58.48
-60.49
-59.71
-58.79
-61.14
-69.45
-86.63
-111.36
-137.77
-158.14
-166.37
-159.49
-138.14
-106.14
-55.61
8.38
70.98
119.08
150.58
171.78
190.49
211.65
234.10
252.77
259.33
248.79
221.75
183.01
136.36
87.89
43.00
4.87
-25.41
-49.77
-69.03
-82.01
-87.06
-84.17
-75.25
-64.08
-54.94
-50.99
-54.54
-65.20
-80.11
-95.74
-109.46
-119.69
-126.10
-128.97
-128.64
-125.95
-121.56
-115.77
-108.68
-99.78
-87.33
-68.96
-42.91
-9.74
26.55
59.44
82.29
91.22
86.97
74.83
62.20
55.42
57.20
66.02
77.47
86.68
90.45
88.21
81.51
72.66
63.15
52.91
40.38
23.67
1.82
-24.16
-51.30
-75.79
-94.53
-106.32
-112.12
-114.04
-113.84
-111.80
-106.56
-96.06
-78.98
-55.74
-28.72
-1.44
22.63
41.20
53.75
61.41
66.07
69.36
71.96
73.51
73.08
70.00
64.45
57.46
50.33
44.00
38.64
33.96
29.71
26.11
23.73
23.01
23.56
24.00
22.42
17.34
8.43
-3.28
-15.83
-27.06
-35.38
-40.00
-40.86
-38.26
-32.72
-24.99
-16.16
-7.61
-0.87
2.76
2.58
-1.20
-7.49
-14.57
-20.51
-23.87
-24.14
-21.97
-18.89
-16.68
-16.61
-18.94
-22.90
-27.08
-30.09
-30.93
-29.23
-25.23
-19.54
-12.99
-6.36
-0.21
5.25
10.25
15.22
20.50
25.88
30.50
33.21
32.94
29.17
22.15
12.99
3.73
-2.80
-3.47
4.47
22.68
50.76
85.99
123.63
158.11
184.57
200.11
204.14
197.99
184.66
167.45
149.25
131.69
114.79
97.54
78.77
57.78
34.62
10.60
-12.73
-33.60
-50.50
-62.05
-66.47
-61.91
-47.36
-27.44
-8.88
1.23
0.50
-7.92
-18.35
-25.71
-27.94
-26.57
-25.74
-27.64
-34.10
-43.58
-52.49
-57.25
-55.77
-48.94
-40.03
-32.92
-29.10
-27.34
-23.95
-15.29
-0.12
20.09
41.20
58.55
67.34
65.35
53.27
35.34
18.29
9.91
17.74
43.99
85.85
135.30
181.14
212.50
223.19
213.49
184.72
144.24
100.32
58.90
22.00
-11.20
-42.39
-72.68
-102.60
-132.72
-163.25
-194.74
-226.84
-257.62
-283.49
-300.15
-303.95
-293.42
-269.93
-236.74
-198.91
-161.80
-129.98
-106.50
-92.69
-88.43
-92.40
-102.06
-113.27
-120.93
-119.64
-105.01
-75.04
-30.98
22.75
79.58
132.54
176.07
206.81
223.86
228.45
223.03
210.43
192.93
171.69
146.63
117.01
82.20
42.86
1.52
-37.59
-69.59
-90.61
-99.26
-97.32
-89.46
-81.72
-79.61
-86.04
-100.32
-118.00
-132.39
-136.57
-125.56
-97.69
-55.06
-2.94
51.78
102.23
143.15
171.44
185.82
186.04
172.47
146.49
111.27
72.09
35.42
6.96
-10.45
-17.83
-19.33
-19.76
-22.32
-27.66
-34.96
-44.07
-56.55
-74.55
-98.41
-124.47
-145.59
-153.76
-143.82
-116.04
-76.04
-32.26
7.55
38.92
61.13
75.58
83.68
85.74
81.55
71.82
59.19
47.72
41.03
40.45
44.25
48.63
49.88
46.21
38.28
28.15
17.59
6.87
-4.80
-17.86
-31.15
-41.86
-46.88
-44.59
-35.83
-23.59
-11.54
-2.31
3.40
6.50
8.48
10.47
12.64
14.48
15.28
14.64
12.74
10.18
7.72
5.95
5.06
4.76
4.36
3.01
0.08
-4.40
-9.82
-15.22
-19.83
-23.42
-26.36
-29.21
-32.22
-35.01
-36.65
-36.26
-33.47
-28.79
-23.51
-19.20
-17.10
-17.59
-20.12
-23.44
-26.14
-27.15
-26.10
-23.40
-19.98
-16.96
-15.28
-15.52
-17.70
-21.15
-24.56
-26.12
-24.07
-17.24
-5.80
8.60
23.30
35.63
43.85
47.75
48.35
47.14
45.28
43.17
40.60
37.06
32.14
25.66
17.66
8.29
-2.05
-12.66
-22.60
-30.95
-37.13
-41.06
-43.05
-43.45
-42.39
-39.78
-35.59
-30.08
-23.90
-17.95
-13.08
-9.81
-8.12
-7.55
-7.40
-6.86
-5.36
-2.65
1.12
5.51
10.03
14.39
18.60
22.87
27.08
30.55
32.04
30.44
25.43
18.04
10.32
4.54
2.14
3.07
6.14
9.76
12.87
15.34
17.58
19.83
21.80
22.85
22.61
21.56
20.84
21.68
24.55
28.83
33.11
36.03
36.95
36.10
34.32
32.39
30.58
28.67
26.20
22.85
18.62
13.90
9.20
5.06
1.89
-0.11
-0.99
-1.05
-0.70
-0.30
-0.03
0.22
0.78
1.97
3.92
6.54
9.60
12.87
16.22
19.50
22.48
24.70
25.51
24.43
21.49
17.43
13.62
11.57
12.30
15.94
21.55
27.50
32.07
34.09
33.21
29.93
25.21
20.03
15.08
10.66
6.90
3.88
1.80
0.86
1.10
2.25
3.72
4.82
5.05
4.28
2.82
1.14
-0.29
-1.32
-2.10
-2.95
-4.10
-5.55
-7.07
-8.34
-9.17
-9.69
-10.21
-11.08
-12.38
-13.86
-15.07
-15.67
-15.68
-15.52
-15.87
-17.27
-19.87
-23.29
-26.81
-29.62
-31.12
-31.06
-29.59
-27.06
-23.89
-20.42
-16.89
-13.46
-10.17
-7.03
-4.15
-1.66
0.30
1.64
2.38
2.73
3.01
3.46
4.14
4.83
5.21
5.05
4.39
3.58
3.15
3.48
4.53
5.86
6.83
7.01
6.37
5.32
4.47
4.23
4.56
5.03
5.08
4.35
2.92
1.21
-0.25
-1.21
-1.84
-2.63
-4.09
-6.36
-9.14
-11.81
-13.73
-14.67
-14.87
-14.93
-15.49
-16.83
-18.83
-21.07
-23.03
-24.45
-25.40
-26.17
-27.01
-27.95
-28.67
-28.65
-27.38
-24.69
-20.80
-16.26
-11.68
-7.45
-3.60
0.13
4.00
8.03
11.88
14.99
16.86
17.40
16.92
16.07
15.42
15.21
15.22
14.93
13.90
12.09
9.85
7.82
6.54
6.15
6.25
6.17
5.27
3.28
0.47
-2.52
-4.99
-6.57
-7.41
-8.07
-9.23
-11.32
-14.28
-17.66
-20.83
-23.38
-25.33
-27.06
-29.08
-31.69
-34.91
-38.55
-42.39
-46.44
-50.76
-55.30
-59.59
-62.80
-64.01
-62.67
-58.89
-53.39
-47.15
-40.95
-34.97
-28.73
-21.40
-12.28
-1.22
11.15
23.50
34.26
42.21
46.83
48.53
48.41
47.74
47.33
47.32
47.19
46.23
44.07
40.85
37.16
33.58
30.39
27.47
24.52
21.43
18.48
16.35
15.70
16.90
19.63
23.00
25.87
27.33
27.07
25.46
23.32
21.49
20.42
20.01
19.75
19.13
17.92
16.27
14.54
12.96
11.46
9.75
7.62
5.23
3.21
2.31
3.00
5.17
8.08
10.73
12.28
12.42
11.39
9.78
8.22
7.18
6.85
7.22
8.23
9.84
12.10
15.04
18.69
22.96
27.69
32.61
37.39
41.72
45.29
47.81
48.93
48.26
45.57
40.92
34.90
28.58
23.16
19.35
16.93
14.69
11.04
4.76
-4.13
-14.28
-23.54
-29.96
-32.58
-31.72
-28.69
-24.95
-21.51
-18.65
-16.17
-13.87
-11.87
-10.52
-10.09
-10.41
-10.81
-10.51
-9.25
-7.66
-7.11
-8.99
-14.00
-21.61
-30.35
-38.39
-44.33
-47.58
-48.28
-46.92
-44.00
-39.88
-34.75
-28.68
-21.71
-14.01
-6.10
1.01
5.99
7.57
5.16
-0.63
-8.20
-15.52
-20.93
-23.76
-24.28
-23.32
-21.69
-19.75
-17.36
-14.19
-9.99
-4.73
1.30
7.64
13.82
19.53
24.69
29.41
33.85
38.01
41.68
44.42
45.81
45.72
44.46
42.84
41.92
42.74
45.88
51.35
58.58
66.73
74.94
82.44
88.51
92.26
92.63
88.60
79.79
66.81
51.23
35.01
19.59
5.13
-9.58
-26.32
-46.28
-69.00
-92.26
-112.94
-128.29
-137.01
-139.53
-137.31
-131.94
-124.32
-114.61
-102.92
-90.10
-78.04
-69.28
-65.96
-68.63
-75.81
-84.39
-90.81
-92.49
-88.69
-80.56
-70.44
-60.70
-52.78
-46.86
-42.15
-37.58
-32.57
-27.25
-22.26
-18.14
-14.80
-11.35
-6.51
0.82
10.86
22.84
35.29
46.64
55.87
62.68
67.34
70.23
71.53
71.26
69.49
66.67
63.67
61.36
60.29
60.29
60.52
59.67
56.38
49.74
39.70
27.34
14.66
4.14
-2.12
-3.18
0.32
6.44
12.72
17.15
18.73
17.62
14.64
10.69
6.34
1.93
-2.18
-5.51
-7.48
-7.73
-6.38
-4.19
-2.32
-2.00
-3.94
-8.06
-13.46
-18.72
-22.41
-23.71
-22.66
-20.10
-17.23
-15.08
-14.12
-14.24
-14.91
-15.61
-16.06
-16.29
-16.33
-16.09
-15.24
-13.41
-10.50
-6.91
-3.52
-1.22
-0.54
-1.26
-2.60
-3.65
-3.89
-3.48
-3.06
-3.36
-4.65
-6.68
-8.93
-11.02
-12.95
-15.09
-17.77
-21.02
-24.36
-27.09
-28.63
-28.88
-28.27
-27.62
-27.76
-29.24
-32.02
-35.47
-38.62
-40.43
-40.20
-37.80
-33.69
-28.63
-23.33
-18.12
-12.90
-7.39
-1.47
4.58
10.14
14.43
17.00
17.90
17.67
17.11
16.96
17.56
18.78
20.20
21.32
21.86
21.87
21.62
21.48
21.59
21.83
21.83
21.26
20.00
18.22
16.32
14.68
13.46
12.56
11.75
10.91
10.13
9.64
9.67
10.20
10.88
11.16
10.51
8.78
6.19
3.30
0.76
-1.05
-2.13
-2.89
-3.88
-5.54
-7.96
-10.88
-13.83
-16.42
-18.46
-20.03
-21.26
-22.09
-22.26
-21.37
-19.09
-15.39
-10.65
-5.53
-0.65
3.65
7.44
11.09
15.04
19.42
23.89
27.76
30.27
31.06
30.35
28.84
27.36
26.45
26.06
25.68
24.70
22.85
20.35
17.79
15.81
14.66
14.15
13.75
12.92
11.37
9.20
6.72
4.38
2.41
0.81
-0.68
-2.35
-4.37
-6.67
-8.98
-11.02
-12.70
-14.26
-16.15
-18.79
-22.25
-26.12
-29.64
-32.05
-33.00
-32.76
-32.13
-32.05
-33.04
-34.95
-36.95
-37.96
-37.11
-34.18
-29.61
-24.29
-19.01
-14.19
-9.80
-5.47
-0.91
3.88
8.51
12.44
15.30
17.10
18.26
19.38
20.89
22.78
24.55
25.52
25.25
23.80
21.78
20.06
19.26
19.46
20.12
20.44
19.79
18.08
15.75
13.46
11.72
10.58
9.68
8.57
7.03
5.22
3.56
2.45
2.02
1.99
1.86
1.18
-0.15
-1.83
-3.29
-3.89
-3.32
-1.66
0.55
2.56
3.75
3.80
2.88
1.46
-0.05
-1.56
-3.42
-6.15
-10.06
-14.90
-19.70
-23.20
-24.31
-22.73
-18.98
-14.19
-9.46
-5.41
-2.03
1.12
4.47
8.02
11.38
14.00
15.56
16.21
16.48
17.02
18.19
19.80
21.23
21.77
21.13
19.62
18.15
17.75
19.02
21.75
24.94
27.23
27.54
25.55
21.74
17.13
12.78
9.39
7.29
6.66
7.78
11.00
16.40
23.49
30.99
37.18
40.50
40.23
36.76
31.31
25.36
19.94
15.30
11.06
6.61
1.61
-3.79
-9.11
-13.81
-17.56
-20.36
-22.41
-23.95
-25.03
-25.44
-24.82
-22.85
-19.53
-15.25
-10.78
-6.91
-4.12
-2.30
-0.86
1.04
3.99
8.02
12.60
16.81
19.89
21.55
22.04
21.99
21.99
22.36
22.96
23.43
23.45
22.96
22.21
21.62
21.49
21.79
22.13
21.96
20.89
18.96
16.59
14.46
13.10
12.69
12.93
13.26
13.14
12.30
10.87
9.32
8.18
7.81
8.19
8.90
9.33
8.95
7.60
5.54
3.32
1.43
0.02
-1.28
-3.04
-5.75
-9.45
-13.64
-17.48
-20.15
-21.20
-20.59
-18.60
-15.52
-11.50
-6.63
-1.08
4.56
9.35
12.25
12.56
10.31
6.33
2.03
-1.23
-2.62
-2.21
-0.77
0.69
1.44
1.36
0.88
0.61
0.88
1.55
2.00
1.58
0.02
-2.41
-4.97
-6.85
-7.62
-7.45
-7.01
-7.10
-8.24
-10.34
-12.89
-15.12
-16.53
-17.03
-17.01
-17.04
-17.62
-19.02
-21.32
-24.52
-28.71
-33.94
-39.93
-45.78
-49.97
-50.83
-47.26
-39.39
-28.88
-18.40
-10.73
-7.63
-9.28
-14.37
-20.70
-26.12
-29.18
-29.26
-26.41
-20.96
-13.31
-3.96
6.40
16.87
26.47
34.38
40.13
43.81
45.85
46.79
46.98
46.48
45.06
42.37
38.25
32.86
26.73
20.62
15.24
10.88
7.29
3.66
-1.00
-7.43
-15.68
-25.09
-34.48
-42.65
-48.86
-52.99
-55.45
-56.78
-57.31
-56.95
-55.33
-52.14
-47.46
-41.88
-36.40
-32.00
-29.30
-28.39
-28.89
-30.17
-31.65
-32.91
-33.61
-33.37
-31.77
-28.51
-23.65
-17.73
-11.70
-6.59
-2.99
-0.83
0.59
2.25
4.84
8.50
12.69
16.51
19.16
20.29
20.20
19.60
19.27
19.73
21.00
22.81
24.80
26.83
28.98
31.45
34.29
37.29
39.99
41.95
42.96
43.17
42.98
42.81
42.90
43.14
43.12
42.28
40.14
36.56
31.85
26.64
21.69
17.55
14.27
11.41
8.31
4.43
-0.28
-5.42
-10.35
-14.54
-17.85
-20.55
-23.11
-25.96
-29.18
-32.57
-35.74
-38.41
-40.52
-42.37
-44.36
-46.79
-49.61
-52.36
-54.35
-54.93
-53.82
-51.20
-47.61
-43.50
-39.04
-34.12
-28.48
-22.08
-15.25
-8.65
-2.99
1.28
4.17
6.01
7.29
8.43
9.63
10.93
12.22
13.42
14.59
15.89
17.51
19.52
21.79
23.91
25.33
25.66
24.80
23.10
21.24
19.97
19.83
20.95
23.02
25.46
27.64
29.06
29.49
28.91
27.45
25.23
22.34
18.92
15.17
11.46
8.14
5.45
3.34
1.51
-0.47
-2.84
-5.55
-8.34
-10.85
-12.92
-14.66
-16.40
-18.49
-21.09
-24.13
-27.31
-30.24
-32.54
-33.97
-34.44
-33.94
-32.55
-30.33
-27.27
-23.32
-18.49
-12.94
-7.02
-1.23
4.01
8.44
12.01
14.86
17.08
18.62
19.31
18.96
17.65
15.85
14.25
13.55
14.09
15.63
17.48
18.75
18.86
17.77
15.97
14.17
13.00
12.60
12.69
12.72
12.32
11.45
10.37
9.44
8.85
8.49
8.04
7.14
5.63
3.60
1.36
-0.72
-2.38
-3.52
-4.34
-5.17
-6.39
-8.29
-10.91
-14.01
-17.21
-20.17
-22.80
-25.24
-27.66
-30.03
-32.01
-33.00
-32.43
-30.14
-26.40
-21.82
-16.93
-11.98
-6.89
-1.43
4.40
10.23
15.38
19.25
21.69
23.13
24.49
26.68
30.16
34.70
39.40
43.08
44.91
44.72
43.16
41.36
40.40
40.72
41.86
42.64
41.73
38.34
32.59
25.54
18.73
13.47
10.37
9.18
9.07
9.13
8.72
7.65
6.02
3.95
1.50
-1.34
-4.51
-7.81
-10.91
-13.52
-15.46
-16.84
-17.94
-19.17
-20.87
-23.25
-26.41
-30.34
-34.94
-40.09
-45.67
-51.55
-57.47
-62.92
-67.09
-69.06
-68.01
-63.68
-56.54
-47.69
-38.41
-29.66
-21.72
-14.21
-6.48
1.90
10.87
19.84
28.05
34.88
40.10
43.72
45.94
46.87
46.64
45.57
44.28
43.67
44.50
46.99
50.52
53.68
54.80
52.66
47.17
39.48
31.61
25.66
22.96
23.63
26.64
30.31
33.04
33.94
32.89
30.44
27.33
24.16
21.16
18.31
15.46
12.60
9.82
7.30
5.12
3.14
0.97
-1.85
-5.60
-10.22
-15.38
-20.67
-25.93
-31.38
-37.50
-44.63
-52.61
-60.64
-67.61
-72.59
-75.24
-76.03
-75.89
-75.75
-75.95
-76.19
-75.69
-73.65
-69.58
-63.72
-57.09
-51.09
-47.27
-46.50
-48.47
-51.30
-52.02
-47.57
-36.35
-19.56
-1.16
13.16
18.15
10.84
-8.35
-36.29
-68.09
-98.57
-122.99
-136.89
-137.07
-121.93
-92.86
-54.44
-13.76
22.25
49.32
67.30
80.03
91.12
103.08
114.15
121.51
120.36
108.12
85.95
55.83
23.96
-2.84
-19.68
-25.79
-23.59
-16.60
-6.86
5.43
20.84
39.49
59.67
77.29
86.02
80.63
59.62
25.82
-15.88
-63.34
-109.87
-152.36
-187.19
-210.87
-219.33
-208.37
-175.69
-123.34
-57.45
14.54
89.19
165.08
239.18
306.31
360.68
398.09
417.68
422.90
397.58
339.32
261.57
181.86
108.63
40.98
-22.75
-80.47
-127.39
-159.53
-174.31
-173.85
-165.01
-156.41
-154.91
-163.76
-183.07
-210.71
-242.85
-272.47
-289.63
-288.77
-268.54
-230.66
-178.55
-117.23
-52.93
8.42
63.63
110.52
146.14
167.56
172.72
162.36
140.04
112.28
88.47
77.89
84.22
101.89
118.30
119.58
99.27
61.23
18.20
-12.10
-15.19
13.87
68.47
134.21
193.62
234.31
249.68
239.22
209.61
170.73
133.24
105.68
93.71
98.18
119.23
153.49
181.67
182.68
144.55
73.43
-13.35
-94.91
-169.59
-236.18
-294.49
-346.39
-386.84
-413.98
-428.63
-432.95
-416.44
-375.45
-312.66
-238.98
-167.22
-105.28
-56.46
-21.37
2.91
19.31
27.98
31.68
33.94
38.58
49.75
71.59
102.24
138.44
175.89
209.70
238.28
262.01
282.58
301.30
318.93
333.00
338.94
331.73
307.70
267.20
213.78
153.58
84.76
16.95
-36.83
-69.39
-84.17
-90.31
-95.39
-105.73
-122.52
-146.84
-176.84
-209.96
-244.03
-277.41
-307.49
-329.61
-338.04
-327.13
-295.55
-244.42
-177.50
-100.74
-20.75
57.04
128.67
186.16
226.68
241.95
216.60
146.63
48.94
-44.86
-106.45
-123.40
-100.70
-55.36
-9.66
20.22
30.60
27.83
21.10
15.89
12.77
9.40
3.01
-9.18
-26.71
-43.36
-54.12
-56.56
-50.96
-38.40
-21.15
3.14
36.13
78.23
128.31
182.47
234.49
278.12
302.56
303.65
284.35
252.41
217.95
189.68
170.98
158.67
144.73
120.16
79.85
23.68
-44.83
-119.43
-192.32
-255.22
-300.27
-321.57
-317.12
-289.56
-246.85
-200.71
-163.19
-143.00
-142.87
-159.86
-187.19
-216.50
-239.15
-248.33
-240.77
-217.72
-184.63
-148.45
-115.70
-90.49
-73.91
-64.37
-59.45
-58.11
-61.30
-70.77
-85.03
-100.21
-111.87
-117.21
-115.68
-108.24
-96.56
-82.24
-65.93
-43.99
-12.28
30.38
79.90
128.32
167.17
190.52
196.98
190.80
184.77
192.86
223.34
275.32
341.67
414.01
485.60
551.57
582.04
553.53
464.83
342.40
221.62
126.77
65.22
30.95
10.37
-10.62
-36.92
-66.00
-92.12
-111.51
-124.02
-131.85
-138.03
-145.52
-155.65
-164.49
-166.65
-158.91
-142.45
-122.17
-104.45
-93.64
-91.85
-98.04
-106.26
-109.44
-103.43
-88.89
-70.77
-54.84
-44.43
-39.20
-35.54
-27.94
-12.69
9.75
35.91
61.14
82.61
100.40
116.55
133.26
151.77
171.95
187.29
193.29
187.19
168.72
139.89
104.01
64.75
25.49
-10.90
-42.26
-66.27
-81.58
-87.81
-85.63
-76.84
-64.20
-51.17
-41.37
-37.76
-41.00
-49.79
-61.15
-71.63
-78.87
-82.46
-83.77
-84.88
-87.17
-90.19
-92.35
-92.02
-88.58
-82.83
-76.44
-70.96
-66.92
-63.68
-59.81
-54.15
-46.45
-37.30
-27.73
-18.70
-10.71
-3.87
1.93
6.67
10.08
11.72
11.24
8.53
3.82
-2.42
-9.66
-17.54
-25.92
-34.86
-44.62
-55.69
-68.89
-85.44
-106.65
-133.16
-164.04
-196.40
-225.72
-247.17
-257.15
-254.42
-240.25
-217.21
-187.84
-153.50
-114.44
-70.48
-21.90
30.47
85.46
142.03
199.64
257.15
311.41
356.05
382.71
384.53
360.59
318.31
271.90
237.49
226.09
238.91
266.62
294.20
308.36
303.00
279.82
244.00
200.04
149.65
93.38
33.76
-22.27
-64.15
-81.78
-70.17
-34.95
9.93
46.64
62.86
55.00
25.35
-20.55
-75.12
-129.01
-173.16
-200.54
-208.43
-199.29
-180.21
-159.94
-145.40
-141.40
-145.13
-152.33
-157.98
-157.54
-147.85
-128.15
-100.21
-68.02
-36.61
-11.14
3.32
3.63
-10.67
-36.82
-69.88
-102.16
-126.14
-136.93
-133.51
-119.10
-98.85
-77.84
-59.55
-45.48
-35.09
-27.04
-20.15
-13.81
-8.51
-5.02
-3.51
-2.83
-0.51
6.60
20.14
39.07
59.93
78.39
91.21
97.31
97.59
93.77
88.11
81.08
71.35
57.12
37.72
14.01
-12.29
-39.33
-65.14
-85.46
-97.11
-99.25
-92.78
-78.66
-57.39
-30.10
0.05
27.19
47.11
54.91
47.08
25.42
-0.85
-18.16
-14.98
13.39
64.12
134.05
216.76
302.93
382.10
445.05
484.65
496.41
480.03
413.53
299.39
165.64
47.72
-35.77
-86.34
-114.67
-130.88
-140.95
-147.42
-146.86
-138.15
-124.55
-111.57
-102.81
-98.69
-97.58
-97.66
-97.79
-94.32
-86.12
-75.58
-66.71
-61.89
-60.90
-62.08
-63.63
-64.92
-63.51
-58.91
-53.04
-48.91
-48.61
-52.29
-58.73
-65.65
-70.51
-70.17
-62.96
-49.65
-33.01
-16.44
-2.84
5.90
9.23
7.70
2.93
-3.00
-8.12
-10.86
-10.25
-5.99
1.17
10.06
20.39
30.52
39.05
45.31
49.50
52.60
56.10
61.10
69.21
80.31
92.65
103.48
109.70
108.76
99.48
82.44
58.97
33.63
10.08
-8.78
-21.36
-27.75
-29.51
-28.95
-28.13
-29.77
-32.33
-35.53
-39.26
-43.75
-49.34
-56.06
-63.28
-69.98
-77.34
-83.03
-87.92
-93.12
-99.05
-105.03
-109.56
-111.32
-97.41
-85.84
-75.68
-68.49
-64.88
-64.27
-65.22
-66.18
-66.02
-64.10
-62.02
-57.00
-48.51
-36.06
-19.47
0.92
24.07
48.49
72.43
92.68
109.63
122.25
130.07
133.16
132.27
128.76
124.46
121.24
119.61
121.48
126.74
134.43
142.82
149.75
152.95
150.62
141.95
127.00
108.34
88.96
72.15
60.67
56.15
58.65
66.73
77.62
87.55
93.04
91.17
80.59
61.82
36.93
8.69
-20.40
-48.67
-75.17
-99.33
-120.54
-138.21
-152.10
-162.83
-171.78
-180.58
-190.47
-201.74
-213.88
-226.19
-238.46
-251.18
-265.13
-280.70
-297.27
-313.23
-326.44
-334.94
-337.33
-332.86
-321.31
-302.84
-278.03
-248.04
-214.54
-179.39
-144.23
-110.07
-77.30
-45.92
-15.89
12.62
39.43
64.65
88.93
113.57
140.40
171.43
208.13
250.64
296.98
342.84
382.25
409.00
418.53
409.26
383.07
344.33
298.54
250.69
204.50
162.38
125.90
96.17
73.96
59.43
51.76
49.16
49.17
49.34
47.89
44.02
37.90
29.96
20.22
7.74
-9.43
-33.63
-66.62
-108.56
-157.46
-209.42
-259.49
-302.76
-335.36
-354.81
-359.94
-350.64
-327.66
-292.60
-247.93
-196.79
-142.41
-87.48
-33.60
18.51
68.47
115.72
159.46
199.05
234.56
266.71
296.29
323.30
346.51
363.91
373.70
375.14
368.69
355.44
336.31
311.65
281.57
246.61
208.18
168.37
129.15
91.70
56.26
22.59
-9.49
-39.70
-67.43
-92.33
-114.61
-135.22
-155.39
-176.10
-197.58
-219.10
-239.04
-255.42
-266.50
-271.47
-270.64
-265.42
-257.75
-249.36
-241.04
-232.30
-221.49
-206.45
-185.34
-157.33
-122.95
-83.80
-42.11
-0.12
40.11
76.81
108.42
133.63
151.71
162.81
168.24
170.17
171.02
172.45
174.70
176.62
176.31
172.23
163.86
151.66
136.15
117.18
93.79
65.26
32.59
-0.66
-28.90
-46.69
-51.03
-42.73
-25.82
-5.35
14.81
32.94
48.85
62.33
72.05
75.81
71.93
60.79
45.41
30.46
20.39
17.57
21.44
29.09
36.74
41.52
42.50
40.69
38.19
36.90
37.52
39.26
40.33
38.75
33.27
23.69
10.75
-4.41
-20.99
-38.73
-57.80
-78.11
-98.65
-117.24
-131.04
-137.66
-136.30
-128.40
-117.20
-106.43
-98.85
-95.14
-93.96
-92.79
-89.25
-82.14
-71.74
-59.47
-47.22
-36.84
-29.87
-27.54
-30.72
-39.58
-52.99
-68.10
-80.48
-85.23
-78.69
-60.20
-32.89
-2.88
22.88
39.18
44.45
40.92
33.12
25.63
21.22
20.34
21.83
24.38
27.48
31.45
36.60
42.25
46.42
46.39
40.06
27.13
9.54
-9.26
-25.73
-37.64
-44.81
-48.74
-51.52
-54.56
-57.97
-60.75
-61.69
-60.45
-57.97
-56.07
-56.26
-58.63
-61.47
-62.08
-58.16
-49.00
-35.95
-21.51
-8.02
3.62
14.07
24.70
36.32
48.32
58.77
65.37
66.57
62.21
53.32
41.39
27.60
12.61
-3.26
-19.43
-34.68
-47.15
-55.03
-57.50
-55.26
-50.50
-45.86
-43.21
-42.62
-42.34
-39.73
-32.76
-21.07
-6.22
9.01
21.66
29.29
30.36
24.09
10.55
-9.06
-32.02
-54.50
-72.50
-83.25
-86.19
-82.94
-76.41
-69.47
-64.02
-60.72
-59.07
-57.59
-53.80
-44.46
-26.34
2.55
41.75
87.77
134.94
177.08
209.41
229.71
238.15
236.47
226.87
211.35
191.58
169.20
145.99
123.73
103.79
86.79
72.42
59.61
47.06
33.82
19.76
5.66
-7.17
-17.46
-24.47
-28.29
-29.56
-29.12
-27.48
-24.80
-21.07
-16.47
-11.56
-7.17
-4.17
-3.13
-4.07
-6.52
-9.74
-13.03
-16.02
-18.88
-22.25
-26.98
-33.74
-42.72
-53.42
-64.72
-75.31
-84.00
-90.27
-94.38
-97.26
-100.21
-104.32
-110.00
-116.60
-122.57
-125.88
-124.84
-118.78
-108.40
-95.71
-83.47
-74.36
-70.29
-71.82
-77.95
-86.33
-93.89
-97.38
-94.07
-82.36
-62.14
-34.68
-2.41
31.58
64.16
92.78
116.50
136.15
153.51
169.68
183.76
192.67
192.69
181.82
161.40
136.53
113.92
98.60
91.60
89.97
89.10
85.59
78.93
70.46
62.81
58.03
56.30
55.87
54.48
50.80
44.89
37.68
28.46
16.75
2.73
-13.26
-31.25
-51.17
-72.15
-92.58
-110.61
-127.03
-141.54
-152.08
-156.51
-154.62
-148.28
-140.45
-134.27
-132.36
-139.23
-155.61
-177.47
-198.45
-213.31
-218.97
-214.25
-199.79
-158.60
-91.96
-19.08
39.32
76.04
94.89
102.79
105.54
106.70
108.03
106.99
103.03
97.53
92.43
87.98
83.13
77.10
70.28
63.90
56.99
49.77
44.25
41.70
42.15
44.38
47.01
49.14
50.36
49.20
45.55
41.06
37.88
37.26
39.10
42.50
46.34
49.83
52.10
53.38
55.05
58.67
65.25
74.87
86.96
100.33
113.31
123.53
128.78
127.60
119.80
106.60
90.17
72.96
56.71
41.91
28.01
14.30
0.74
-11.61
-20.96
-25.81
-25.78
-21.96
-16.53
-11.87
-9.78
-10.98
-15.15
-21.22
-27.82
-33.60
-37.62
-39.55
-39.72
-39.04
-38.61
-39.29
-41.33
-44.38
-47.57
-50.01
-51.01
-50.33
-48.09
-44.57
-40.01
-34.53
-28.33
-21.75
-15.15
-8.47
-0.84
9.42
23.94
43.07
64.79
84.71
97.32
98.10
85.29
60.48
27.71
-8.27
-43.61
-75.96
-104.02
-126.70
-142.67
-150.84
-151.27
-145.99
-139.01
-135.24
-138.54
-149.98
-166.83
-183.17
-191.69
-186.43
-165.08
-130.29
-88.92
-49.77
-20.53
-4.94
-1.61
-4.91
-7.55
-3.58
9.30
29.39
52.21
72.73
87.46
95.32
97.31
95.37
91.21
85.73
79.17
71.64
63.51
55.66
49.13
44.72
42.58
42.17
42.40
42.08
40.23
36.31
30.14
21.74
11.19
-1.28
-15.13
-29.12
-41.23
-48.83
-49.35
-41.27
-24.91
-2.66
21.73
44.40
62.78
76.17
85.40
91.70
95.60
96.69
94.20
88.03
79.36
70.32
62.87
57.81
54.43
51.22
46.87
41.14
34.90
29.60
26.31
25.38
26.31
28.30
30.58
32.73
34.65
36.42
38.18
40.18
42.67
45.88
49.92
54.55
59.26
63.29
65.78
65.94
63.20
57.28
48.29
36.79
23.75
10.41
-2.10
-13.08
-22.50
-30.84
-38.78
-46.71
-54.49
-61.63
-67.70
-72.77
-77.32
-81.91
-86.56
-90.56
-92.75
-92.16
-88.75
-83.54
-78.19
-74.19
-72.08
-71.24
-70.29
-67.85
-63.30
-57.18
-51.01
-46.78
-46.38
-51.06
-61.12
-75.83
-93.44
-111.31
-126.26
-135.20
-136.15
-129.16
-116.90
-104.15
-96.50
-98.10
-109.83
-128.48
-147.60
-159.61
-158.33
-140.62
-106.45
-57.85
2.05
69.25
138.21
201.26
249.46
274.95
274.05
249.32
209.09
164.51
125.36
96.96
79.46
69.56
63.23
57.81
52.53
47.73
43.63
39.84
35.52
30.07
23.52
16.58
10.13
4.69
0.13
-4.17
-8.84
-14.07
-19.56
-24.53
-28.11
-29.65
-28.79
-25.61
-20.48
-14.06
-7.34
-1.56
2.16
3.18
1.68
-1.34
-4.46
-6.39
-6.57
-5.18
-2.87
-0.16
2.83
6.38
10.76
15.91
21.21
25.74
28.72
29.86
29.53
28.41
27.18
26.19
25.43
24.65
23.70
22.69
22.02
22.07
22.97
24.40
25.64
25.92
24.72
22.06
18.39
14.32
10.21
6.05
1.32
-4.73
-12.67
-22.52
-33.36
-43.24
-49.50
-49.62
-42.43
-29.07
-13.08
0.71
7.98
6.84
-1.25
-11.96
-19.74
-19.97
-10.39
8.43
33.86
62.36
90.67
116.16
136.91
151.34
158.32
157.44
149.37
136.07
120.40
105.10
91.77
80.12
68.25
53.70
34.83
11.78
-13.43
-37.79
-58.54
-74.20
-84.92
-91.96
-96.90
-100.89
-104.49
-107.90
-111.62
-116.52
-123.46
-132.52
-142.31
-150.14
-153.00
-149.21
-139.65
-127.93
-118.95
-116.58
-121.60
-131.10
-139.65
-141.83
-134.65
-118.73
-97.81
-76.75
-59.53
-47.86
-41.17
-37.41
-34.35
-30.43
-25.01
-18.15
-10.15
-1.39
7.90
17.54
27.17
36.15
43.57
48.59
50.88
51.03
50.52
51.11
54.00
59.20
65.44
70.84
73.84
73.95
71.86
68.94
66.36
64.50
62.88
60.74
57.63
53.76
49.83
46.62
44.40
42.79
41.09
38.72
35.67
32.42
29.65
27.66
26.13
24.18
20.91
15.99
9.91
3.93
-0.37
-1.69
0.49
5.72
12.73
19.94
25.90
29.64
30.67
28.85
24.16
16.56
6.27
-6.03
-19.02
-30.92
-40.07
-45.51
-47.38
-46.85
-45.47
-44.38
-43.75
-42.72
-39.90
-34.15
-25.28
-14.31
-3.08
6.50
13.36
17.58
20.31
22.97
26.54
31.00
35.48
38.81
40.17
39.47
37.35
34.70
32.25
30.42
29.53
30.05
32.69
37.94
45.60
54.29
61.69
65.22
63.14
55.36
43.51
30.36
18.66
10.15
4.96
1.90
-0.85
-4.83
-10.61
-17.80
-25.32
-32.12
-37.73
-42.44
-46.97
-51.94
-57.34
-62.49
-66.32
-67.91
-66.99
-63.99
-59.77
-55.16
-50.62
-46.09
-41.18
-35.44
-28.71
-21.28
-13.84
-7.21
-1.99
1.58
3.69
4.80
5.37
5.68
5.85
6.00
6.28
6.80
7.51
7.91
7.14
4.22
-1.36
-9.24
-17.92
-25.05
-28.11
-25.32
-16.58
-3.84
9.37
19.15
22.83
20.21
13.86
8.12
7.43
14.56
29.76
51.03
75.03
98.11
117.03
129.11
132.44
126.18
110.99
89.19
64.31
39.92
18.53
1.02
-13.17
-25.23
-36.06
-45.92
-54.56
-61.67
-67.04
-70.58
-72.17
-71.67
-69.25
-65.59
-61.97
-59.67
-59.41
-60.86
-62.80
-63.78
-62.82
-59.89
-55.80
-51.71
-48.55
-46.70
-46.04
-46.18
-46.65
-46.93
-46.26
-43.72
-38.61
-31.00
-22.30
-15.10
-12.35
-16.02
-26.10
-40.32
-54.84
-65.65
-69.78
-66.06
-55.07
-38.39
-18.12
3.63
24.87
43.86
59.24
70.31
77.12
80.66
82.68
85.35
90.57
99.09
109.91
120.22
126.26
124.93
115.13
98.40
78.19
58.35
41.50
28.30
17.96
9.46
2.53
-2.14
-3.76
-2.37
0.59
2.71
1.61
-4.00
-13.96
-26.96
-41.12
-54.55
-65.71
-73.51
-77.71
-79.02
-79.20
-80.54
-84.97
-93.14
-104.05
-115.61
-125.50
-132.18
-135.17
-134.86
-132.00
-127.50
-122.44
-118.23
-116.39
-117.78
-122.00
-127.05
-129.88
-127.46
-118.08
-101.98
-81.35
-59.44
-39.43
-23.55
-12.55
-5.89
-2.24
-0.17
1.28
2.42
3.15
3.42
3.67
4.89
8.15
14.08
22.30
31.58
40.33
47.40
52.64
56.88
61.59
68.16
77.32
88.98
102.27
115.89
128.54
139.22
147.39
152.92
155.93
156.66
155.48
152.89
149.62
146.59
144.68
144.38
145.56
147.50
149.27
150.10
149.73
148.33
146.29
143.84
140.91
137.25
132.56
126.57
119.06
109.77
98.42
84.94
69.75
53.93
38.78
25.43
13.98
3.32
-8.23
-21.93
-37.76
-54.38
-69.75
-82.27
-91.38
-97.82
-103.04
-108.15
-113.22
-117.29
-119.03
-117.56
-112.84
-105.15
-95.12
-83.47
-70.74
-57.22
-43.17
-29.05
-15.51
-3.23
8.24
19.15
29.19
37.80
44.77
50.48
55.50
60.23
64.71
70.58
78.43
87.31
95.51
101.90
106.19
108.37
108.34
105.95
104.49
106.20
110.96
116.94
122.60
127.19
130.21
131.04
128.99
127.71
129.40
133.22
136.57
138.08
138.48
139.77
144.09
127.21
80.45
14.53
-50.72
-103.21
-141.28
-167.89
-186.29
-198.98
-207.75
-209.82
-203.95
-192.10
-178.18
-165.27
-154.73
-146.66
-141.15
-138.19
-134.34
-127.26
-117.03
-105.14
-92.58
-79.65
-66.79
-56.07
-49.76
-47.69
-48.29
-49.10
-47.17
-39.64
-25.02
-3.86
20.62
44.32
64.62
79.43
86.57
83.90
70.31
44.56
12.33
-19.44
-44.58
-59.33
-63.59
-60.13
-52.93
-45.30
-38.98
-33.99
-30.46
-28.48
-28.06
-28.87
-30.11
-30.78
-30.16
-28.06
-24.68
-21.12
-18.59
-18.01
-19.67
-23.08
-26.89
-29.13
-27.87
-21.84
-11.61
0.63
12.23
20.82
25.26
25.89
23.94
20.77
17.17
13.05
7.97
1.86
-4.71
-10.64
-14.66
-15.73
-13.28
-7.47
0.37
7.86
12.23
11.23
4.10
-8.04
-22.64
-36.48
-46.79
-51.81
-50.73
-43.35
-30.02
-11.88
8.83
28.26
42.14
48.12
46.34
39.06
29.52
20.58
13.80
9.42
6.70
4.87
3.49
2.34
1.40
0.74
0.45
0.54
0.91
1.25
1.44
1.48
1.53
1.90
3.04
5.40
9.28
15.04
22.28
30.35
38.21
44.33
47.24
46.12
41.32
34.37
27.31
21.82
18.63
17.36
16.84
16.19
15.40
15.34
17.06
20.87
25.89
30.43
32.87
32.12
28.52
23.73
19.94
19.88
25.64
38.17
56.84
78.85
99.27
111.97
111.48
95.23
65.20
27.48
-9.81
-39.60
-58.19
-66.73
-69.04
-69.38
-70.81
-74.78
-82.10
-93.89
-112.02
-133.71
-156.67
-177.46
-192.39
-198.98
-196.88
-188.08
-175.77
-162.95
-151.31
-141.78
-134.03
-127.25
-120.57
-113.28
-104.87
-95.13
-84.30
-73.02
-62.68
-54.31
-48.23
-44.00
-40.57
-36.95
-32.53
-27.13
-20.68
-13.26
-4.57
5.76
17.75
30.85
44.01
56.13
66.55
75.31
82.70
89.05
94.29
97.98
99.69
99.37
97.59
95.27
93.16
91.37
89.40
86.44
81.92
75.88
68.93
61.78
54.82
47.88
40.38
31.88
22.44
12.83
4.19
-2.45
-6.58
-8.34
-8.32
-7.18
-5.37
-3.06
-0.21
3.31
7.69
13.16
19.95
28.20
37.80
48.32
59.05
69.15
77.76
84.14
87.69
88.05
85.25
79.87
73.12
66.54
61.46
58.40
56.78
55.28
52.60
48.31
43.26
39.26
38.12
40.68
46.37
53.47
60.10
65.03
68.19
70.37
72.59
75.48
79.06
82.93
86.52
89.36
90.90
90.45
87.06
79.77
67.80
50.74
28.67
2.18
-27.45
-58.16
-87.31
-112.28
-131.42
-144.77
-154.10
-161.88
-170.00
-178.77
-186.76
-191.39
-190.11
-181.29
-164.94
-143.16
-119.95
-100.93
-92.33
-99.46
-124.82
-166.46
-217.70
-268.18
-306.96
-325.63
-320.75
-294.24
-251.55
-198.63
-139.02
-73.24
-0.61
77.33
154.03
217.75
255.02
256.24
220.76
158.71
88.31
29.83
-0.89
3.23
39.27
96.48
159.93
214.54
248.45
255.35
235.24
193.96
141.09
87.12
40.73
7.07
-12.88
-21.48
-22.89
-21.25
-19.20
-17.37
-14.81
-9.95
-1.88
9.09
21.92
35.95
51.60
69.87
90.84
112.34
130.31
140.71
141.99
136.34
128.26
121.61
116.95
111.27
100.36
82.00
57.80
32.23
9.94
-6.82
-18.84
-28.44
-37.09
-44.10
-47.00
-43.41
-32.55
-15.67
4.50
24.89
42.69
55.44
61.15
58.87
49.51
36.26
23.89
16.81
17.06
23.25
31.42
37.21
38.16
34.76
29.58
25.35
23.21
22.17
20.06
15.05
6.97
-2.53
-11.05
-16.81
-19.66
-21.10
-23.32
-28.09
-35.82
-45.50
-55.27
-63.28
-68.41
-70.41
-69.66
-66.70
-61.97
-55.72
-48.28
-40.17
-32.20
-25.28
-20.25
-17.73
-17.97
-20.84
-25.74
-31.77
-37.94
-43.53
-48.29
-52.49
-56.57
-60.72
-64.57
-67.18
-67.40
-64.38
-57.93
-48.62
-37.61
-26.36
-16.23
-8.31
-3.22
-1.11
-1.73
-4.53
-8.96
-14.60
-21.22
-28.55
-36.08
-42.99
-48.20
-50.76
-50.20
-46.82
-41.62
-36.05
-31.47
-28.75
-28.07
-28.98
-30.85
-33.45
-37.42
-44.12
-54.99
-70.57
-89.55
-108.57
-122.83
-127.46
-118.84
-95.72
-59.59
-14.47
33.80
78.85
115.05
138.87
149.62
149.47
142.62
133.93
127.37
124.97
126.53
130.23
133.59
134.43
131.39
123.94
112.24
97.00
79.55
61.96
46.76
36.34
32.11
33.68
38.85
44.29
46.80
44.45
37.12
26.22
13.68
1.10
-10.88
-22.47
-34.21
-46.38
-58.54
-69.55
-77.88
-82.26
-82.12
-77.84
-70.48
-61.35
-51.59
-42.08
-33.60
-27.17
-23.92
-24.80
-29.92
-38.01
-46.52
-52.35
-53.01
-47.71
-37.63
-25.38
-13.77
-4.55
2.37
8.72
16.69
27.57
40.68
53.42
62.33
64.69
59.79
49.31
36.47
24.55
15.60
9.86
6.02
2.17
-3.19
-10.49
-18.95
-26.85
-32.08
-32.75
-27.92
-18.02
-4.87
8.74
19.84
25.96
25.74
19.02
6.86
-8.71
-25.01
-39.31
-49.71
-55.72
-58.42
-59.78
-61.47
-63.91
-66.12
-66.31
-63.08
-56.32
-47.28
-37.78
-29.20
-21.77
-14.85
-7.61
0.06
7.24
12.43
14.57
13.71
11.20
9.05
8.90
11.12
14.59
17.29
17.49
14.77
10.32
6.43
5.38
8.29
14.67
22.62
29.88
34.79
36.96
37.15
36.60
36.25
36.21
35.91
34.52
31.62
27.40
22.57
17.94
14.10
11.23
9.20
7.83
7.03
6.89
7.50
8.83
10.58
12.18
12.91
12.09
9.35
4.77
-1.10
-7.43
-13.38
-18.40
-22.40
-25.53
-27.99
-29.79
-30.70
-30.43
-28.90
-26.38
-23.37
-20.40
-17.73
-15.40
-13.29
-11.34
-9.70
-8.72
-8.69
-9.62
-11.17
-12.68
-13.41
-12.81
-10.73
-7.48
-3.72
-0.19
2.54
4.29
5.30
6.06
7.03
8.40
9.98
11.40
12.30
12.58
12.42
12.17
12.09
12.15
12.14
11.72
10.77
9.37
7.83
6.41
5.21
4.03
2.49
0.21
-2.96
-6.91
-11.34
-15.84
-20.13
-24.06
-27.68
-31.09
-34.31
-37.19
-39.38
-40.43
-39.96
-37.91
-34.62
-30.69
-26.74
-23.09
-19.66
-16.07
-11.99
-7.42
-2.74
1.43
4.58
6.65
7.97
9.02
10.13
11.27
12.11
12.33
11.84
10.94
10.14
9.88
10.32
11.22
12.09
12.48
12.22
11.46
10.59
10.01
9.90
10.08
10.13
9.58
8.22
6.21
4.02
2.21
1.14
0.76
0.67
0.32
-0.68
-2.40
-4.57
-6.77
-8.63
-10.07
-11.26
-12.56
-14.32
-16.72
-19.72
-23.01
-26.18
-28.78
-30.47
-31.06
-30.43
-28.56
-25.50
-21.39
-16.45
-11.11
-5.89
-1.29
2.38
5.10
7.14
8.94
10.89
13.08
15.30
17.13
18.16
18.27
17.67
16.83
16.26
16.19
16.50
16.80
16.71
16.08
15.11
14.17
13.61
13.45
13.39
12.97
11.91
10.27
8.45
6.94
6.00
5.42
4.64
3.04
0.38
-3.07
-6.60
-9.36
-10.92
-11.42
-11.53
-12.09
-13.67
-16.27
-19.51
-22.77
-25.61
-27.89
-29.72
-31.15
-31.98
-31.80
-30.19
-27.04
-22.67
-17.80
-13.25
-9.54
-6.71
-4.39
-2.06
0.62
3.60
6.48
8.71
9.93
10.17
9.86
9.56
9.74
10.51
11.59
12.54
12.95
12.69
11.99
11.27
10.94
11.18
11.79
12.33
12.27
11.29
9.45
7.14
5.01
3.56
2.92
2.78
2.53
1.65
-0.06
-2.38
-4.82
-6.99
-8.79
-10.48
-12.44
-14.90
-17.77
-20.77
-23.56
-26.04
-28.35
-30.71
-33.18
-35.46
-36.97
-37.06
-35.29
-31.66
-26.60
-20.81
-15.05
-9.81
-5.25
-1.19
2.73
6.78
10.96
14.95
18.25
20.49
21.63
22.01
22.21
22.71
23.64
24.74
25.51
25.63
25.07
24.16
23.36
23.02
23.13
23.36
23.26
22.51
21.13
19.38
17.66
16.27
15.22
14.30
13.16
11.59
9.56
7.25
4.92
2.72
0.63
-1.57
-4.09
-7.05
-10.30
-13.50
-16.25
-18.29
-19.67
-20.79
-22.23
-24.43
-27.49
-30.98
-34.14
-36.13
-36.45
-35.06
-32.36
-28.89
-24.98
-20.66
-15.74
-10.06
-3.79
2.57
8.31
12.89
16.18
18.43
20.12
21.58
22.84
23.62
23.58
22.65
21.10
19.50
18.35
17.86
17.77
17.59
16.88
15.57
13.99
12.62
11.89
11.84
12.18
12.41
12.04
10.82
8.86
6.52
4.23
2.34
0.93
-0.20
-1.46
-3.14
-5.31
-7.71
-9.90
-11.51
-12.52
-13.25
-14.24
-15.89
-18.26
-21.07
-23.87
-26.34
-28.41
-30.26
-32.06
-33.70
-34.74
-34.50
-32.43
-28.36
-22.73
-16.36
-10.22
-4.96
-0.70
2.93
6.44
10.19
14.10
17.68
20.29
21.56
21.60
20.95
20.35
20.36
21.09
22.16
23.01
23.22
22.77
22.00
21.43
21.45
22.05
22.86
23.31
22.99
21.78
19.95
17.94
16.18
14.79
13.58
12.22
10.43
8.17
5.69
3.36
1.44
-0.14
-1.73
-3.83
-6.71
-10.28
-14.08
-17.50
-20.18
-22.20
-24.06
-26.35
-29.38
-32.93
-36.34
-38.72
-39.34
-37.98
-34.90
-30.70
-25.98
-21.13
-16.19
-11.04
-5.55
0.21
5.88
10.99
15.14
18.22
20.39
22.09
23.72
25.44
27.07
28.25
28.67
28.32
27.55
26.94
26.97
27.74
28.90
29.83
29.95
29.09
27.54
25.93
24.84
24.48
24.57
24.49
23.64
21.73
18.98
15.99
13.39
11.47
10.08
8.70
6.85
4.32
1.37
-1.51
-3.90
-5.76
-7.46
-9.52
-12.27
-15.62
-19.13
-22.24
-24.67
-26.62
-28.66
-31.33
-34.73
-38.34
-41.19
-42.27
-41.00
-37.51
-32.57
-27.16
-22.06
-17.52
-13.33
-9.03
-4.34
0.65
5.48
9.59
12.65
14.67
16.06
17.32
18.80
20.47
21.99
22.86
22.87
22.15
21.20
20.58
20.63
21.22
21.84
21.90
21.06
19.47
17.61
16.07
15.18
14.78
14.33
13.23
11.17
8.36
5.42
3.11
1.86
1.56
1.59
1.13
-0.31
-2.74
-5.68
-8.46
-10.62
-12.14
-13.42
-15.00
-17.28
-20.29
-23.73
-27.12
-30.03
-32.26
-33.83
-34.80
-35.11
-34.53
-32.67
-29.26
-24.34
-18.36
-12.12
-6.38
-1.57
2.36
5.89
9.58
13.69
17.97
21.78
24.40
25.50
25.27
24.38
23.61
23.50
24.07
24.94
25.52
25.45
24.71
23.62
22.64
22.04
21.78
21.52
20.81
19.41
17.41
15.16
13.14
11.65
10.62
9.68
8.31
6.18
3.36
0.26
-2.56
-4.76
-6.39
-7.92
-9.91
-12.64
-15.96
-19.34
-22.16
-24.15
-25.58
-27.13
-29.51
-32.96
-37.04
-40.70
-42.75
-42.35
-39.46
-34.76
-29.36
-24.18
-19.64
-15.54
-11.39
-6.76
-1.65
3.53
8.20
11.96
14.73
16.78
18.45
20.01
21.43
22.55
23.17
23.31
23.19
23.18
23.65
24.73
26.20
27.56
28.23
27.82
26.34
24.22
22.14
20.62
19.75
19.15
18.23
16.52
14.00
11.12
8.52
6.67
5.57
4.76
3.61
1.66
-1.08
-4.20
-7.12
-9.45
-11.22
-12.85
-14.89
-17.71
-21.33
-25.37
-29.27
-32.54
-34.97
-36.63
-37.67
-38.12
-37.81
-36.39
-33.53
-29.17
-23.63
-17.52
-11.52
-6.08
-1.25
3.22
7.74
12.53
17.41
21.86
25.28
27.29
27.97
27.81
27.51
27.55
28.01
28.53
28.67
28.18
27.21
26.22
25.72
25.87
26.41
26.78
26.41
25.07
22.97
20.60
18.51
16.91
15.65
14.28
12.38
9.79
6.75
3.75
1.30
-0.38
-1.48
-2.53
-4.09
-6.46
-9.55
-12.93
-15.97
-18.29
-19.84
-20.99
-22.29
-24.21
-26.90
-30.09
-33.26
-35.76
-37.19
-37.37
-36.38
-34.38
-31.45
-27.61
-22.80
-17.15
-10.99
-4.85
0.77
5.58
9.57
12.99
16.11
19.02
21.56
23.38
24.22
24.07
23.27
22.36
21.85
21.99
22.66
23.42
23.77
23.39
22.27
20.67
19.04
17.69
16.66
15.77
14.66
13.10
11.14
9.00
7.04
5.45
4.13
2.73
0.84
-1.68
-4.65
-7.60
-10.05
-11.78
-12.97
-14.13
-15.82
-18.35
-21.68
-25.47
-29.26
-32.69
-35.59
-37.92
-39.64
-40.59
-40.45
-38.94
-35.90
-31.44
-25.97
-20.07
-14.34
-9.21
-4.81
-0.99
2.55
6.08
9.66
13.05
15.88
17.84
18.87
19.23
19.39
19.77
20.53
21.49
22.27
22.55
22.28
21.73
21.26
21.14
21.31
21.38
20.87
19.52
17.44
15.07
13.00
11.59
10.80
10.25
9.37
7.81
5.55
2.89
0.31
-1.88
-3.66
-5.31
-7.21
-9.58
-12.38
-15.31
-17.99
-20.26
-22.27
-24.40
-27.03
-30.20
-33.51
-36.21
-37.47
-36.82
-34.32
-30.53
-26.21
-21.93
-17.87
-13.78
-9.22
-3.92
1.99
7.98
13.33
17.45
20.13
21.63
22.51
23.33
24.41
25.66
26.79
27.43
27.47
27.07
26.60
26.40
26.57
26.90
27.02
26.62
25.64
24.30
22.96
21.83
20.81
19.53
17.57
14.79
11.45
8.16
5.56
4.00
3.27
2.72
1.49
-1.02
-4.89
-9.62
-14.34
-18.24
-20.87
-22.39
-23.42
-24.66
-26.63
-29.35
-32.46
-35.40
-37.75
-39.42
-40.56
-41.30
-41.53
-40.87
-38.85
-35.22
-30.24
-24.59
-19.12
-14.44
-10.67
-7.44
-4.13
-0.31
3.98
8.20
11.62
13.71
14.43
14.32
14.17
14.63
15.83
17.41
18.70
19.24
18.98
18.35
17.95
18.17
18.92
19.70
19.86
19.04
17.26
14.98
12.78
11.04
9.76
8.62
7.20
5.27
2.89
0.39
-1.86
-3.65
-5.08
-6.45
-8.14
-10.29
-12.86
-15.59
-18.21
-20.61
-22.90
-25.34
-28.14
-31.23
-34.17
-36.26
-36.80
-35.37
-32.15
-27.81
-23.19
-18.95
-15.26
-11.81
-8.03
-3.58
1.34
6.11
9.95
12.39
13.53
13.98
14.55
15.77
17.63
19.70
21.40
22.42
22.85
23.11
23.67
24.69
25.95
26.90
27.03
26.16
24.54
22.68
21.17
20.25
19.72
19.05
17.68
15.41
12.49
9.52
7.10
5.52
4.59
3.79
2.60
0.78
-1.51
-3.91
-6.06
-7.86
-9.53
-11.47
-14.07
-17.51
-21.68
-26.20
-30.50
-34.05
-36.46
-37.60
-37.54
-36.41
-34.23
-30.93
-26.43
-20.83
-14.54
-8.20
-2.48
2.24
5.95
9.01
11.88
14.80
17.75
20.38
22.35
23.50
24.01
24.30
24.83
25.85
27.19
28.38
28.88
28.37
26.98
25.19
23.65
22.77
22.54
22.55
22.27
21.33
19.74
17.86
16.14
14.88
14.01
13.14
11.85
9.90
7.40
4.74
2.37
0.51
-1.00
-2.63
-4.86
-7.90
-11.53
-15.15
-18.11
-20.08
-21.23
-22.23
-23.83
-26.45
-29.95
-33.65
-36.59
-38.01
-37.64
-35.74
-32.87
-29.57
-26.06
-22.26
-17.97
-13.14
-8.03
-3.21
0.77
3.62
5.49
6.86
8.29
10.08
12.19
14.27
15.91
16.95
17.52
17.98
18.67
19.69
20.79
21.52
21.54
20.71
19.30
17.70
16.32
15.30
14.51
13.61
12.32
10.55
8.49
6.49
4.87
3.73
2.93
2.07
0.79
-1.06
-3.37
-5.80
-7.95
-9.61
-10.81
-11.83
-13.00
-14.54
-16.49
-18.70
-21.00
-23.28
-25.62
-28.19
-31.00
-33.82
-36.12
-37.18
-36.40
-33.58
-29.08
-23.69
-18.29
-13.51
-9.46
-5.81
-2.06
2.05
6.33
10.21
13.03
14.49
14.76
14.46
14.33
14.77
15.74
16.81
17.50
17.62
17.36
17.13
17.33
18.03
18.88
19.37
19.05
17.82
15.98
14.06
12.59
11.80
11.54
11.36
10.80
9.58
7.79
5.82
4.16
3.06
2.43
1.80
0.68
-1.21
-3.71
-6.37
-8.64
-10.27
-11.46
-12.76
-14.66
-17.38
-20.70
-24.11
-27.16
-29.62
-31.59
-33.29
-34.74
-35.67
-35.60
-34.05
-30.81
-26.10
-20.53
-14.77
-9.39
-4.57
-0.20
3.96
8.09
12.11
15.66
18.29
19.74
20.06
19.67
19.16
19.05
19.54
20.47
21.43
22.00
21.98
21.45
20.74
20.22
20.12
20.33
20.50
20.25
19.33
