1.593101633000000000e+09
-2.999999999999999889e-02
5.059999999999999609e+00
1.791000000000000014e+01
7.934000000000000341e+01
2.282500000000000000e+02
-4.865000000000000000e+02
-5.900000000000000355e+00
1.561500000000000057e+02
4.678000000000000114e+01
4.040000000000000036e+00
-2.000000000000000111e-01
-9.100000000000000311e-01
-6.549999999999999822e+00
-2.162999999999999901e+01
5.193999999999999773e+01
3.400000000000000244e-01
-3.400000000000000244e-01
-4.940000000000000391e+00
3.151000000000000156e+01
-9.339999999999999858e+00
-2.571999999999999886e+01
3.646999999999999886e+01
-7.219999999999999751e+00
2.110000000000000142e+01
-5.203999999999999915e+01
1.801000000000000156e+01
1.181000000000000050e+01
6.990000000000000213e+00
9.320000000000000284e+00
-6.815999999999999659e+01
-8.220000000000000639e+00
-9.679999999999999716e+00
2.321999999999999886e+01
-1.126999999999999957e+01
8.307999999999999829e+01
-4.890999999999999659e+01
1.085999999999999943e+01
-2.220000000000000195e+00
3.792000000000000171e+01
1.876000000000000156e+01
-6.353999999999999915e+01
-5.153999999999999915e+01
-7.650000000000000000e+01
-3.529999999999999716e+01
-1.783999999999999986e+01
-5.899999999999999689e-01
-2.608999999999999986e+01
1.055300000000000011e+02
1.851899999999999977e+02
1.847899999999999920e+02
3.782000000000000028e+01
-2.311500000000000057e+02
-1.644699999999999989e+02
1.919000000000000128e+01
3.773000000000000114e+02
-6.829999999999999716e+01
9.732999999999999829e+01
-8.564000000000000057e+01
2.465600000000000023e+02
5.179999999999999716e+00
-3.654200000000000159e+02
-1.343700000000000045e+02
3.153100000000000023e+02
-1.922100000000000080e+02
-9.493000000000000682e+01
1.885600000000000023e+02
-2.659399999999999977e+02
2.228799999999999955e+02
1.753799999999999955e+02
-2.566600000000000250e+02
9.584000000000000341e+01
-8.109000000000000341e+01
-1.025199999999999960e+02
-1.270699999999999932e+02
2.162700000000000102e+02
5.769999999999999574e+00
-3.293100000000000023e+02
2.003300000000000125e+02
-5.253999999999999915e+01
5.796999999999999886e+01
2.241899999999999977e+02
-1.576599999999999966e+02
-2.387299999999999898e+02
-5.636999999999999744e+01
1.158000000000000007e+01
-1.211899999999999977e+02
3.085999999999999943e+01
2.259699999999999989e+02
5.303099999999999454e+02
-2.568299999999999841e+02
-2.206699999999999875e+02
-9.417000000000000171e+01
3.051000000000000227e+02
2.488799999999999955e+02
-2.988600000000000136e+02
-2.973000000000000043e+01
4.342999999999999972e+01
2.183999999999999986e+01
-4.730000000000000426e+00
-1.401999999999999957e+01
3.750000000000000000e+01
-2.114000000000000057e+01
-5.942000000000000171e+01
1.166099999999999994e+02
-8.935999999999999943e+01
-1.602100000000000080e+02
4.275000000000000000e+01
1.493999999999999950e+01
-1.574000000000000021e+01
1.121000000000000085e+01
1.500000000000000000e+00
-1.617000000000000171e+01
7.750000000000000000e+00
1.689999999999999947e+00
-1.532000000000000028e+01
5.815999999999999659e+01
-1.240000000000000036e+01
-9.453000000000000114e+01
-3.947999999999999687e+01
1.320600000000000023e+02
-5.004999999999999716e+01
1.052800000000000011e+02
-2.050800000000000125e+02
-7.559999999999999609e+00
1.247000000000000064e+01
-3.356899999999999977e+02
1.252600000000000051e+02
8.851000000000000512e+01
-1.139999999999999902e+00
1.635000000000000142e+01
2.799999999999999822e+00
4.293999999999999773e+01
5.475000000000000000e+01
-1.100199999999999960e+02
1.771899999999999977e+02
-3.215799999999999841e+02
-5.772999999999999687e+01
7.098999999999999488e+01
-1.680999999999999872e+01
6.290999999999999659e+01
9.145999999999999375e+01
-5.428000000000000114e+01
-2.142599999999999909e+02
1.188799999999999955e+02
-2.126999999999999957e+01
1.971000000000000085e+01
-1.969000000000000128e+01
-3.035000000000000142e+01
-9.426999999999999602e+01
-1.445300000000000011e+02
1.857299999999999898e+02
-1.766699999999999875e+02
7.131999999999999318e+01
4.039000000000000057e+01
-2.801200000000000045e+02
-5.546799999999999500e+02
5.809900000000000091e+02
2.876700000000000159e+02
2.770000000000000018e+00
-1.416500000000000057e+02
3.750000000000000000e+01
7.100000000000000000e+01
-9.862999999999999545e+01
-1.272099999999999937e+02
-3.871000000000000085e+01
3.030799999999999841e+02
-1.277099999999999937e+02
7.346999999999999886e+01
2.419099999999999966e+02
-1.298899999999999864e+02
2.123400000000000034e+02
-3.364999999999999858e+01
-6.501999999999999602e+01
-1.017099999999999937e+02
1.339000000000000057e+01
1.358499999999999943e+02
-5.099000000000000199e+01
-2.467999999999999972e+01
5.527000000000000313e+01
-5.329999999999999716e+01
-9.465000000000000568e+01
3.148999999999999844e+01
-4.674000000000000199e+01
-8.337999999999999545e+01
1.074300000000000068e+02
-5.264999999999999858e+01
1.796000000000000085e+01
4.520000000000000284e+01
-4.672999999999999687e+01
-3.779999999999999716e+01
6.599999999999999645e+00
-2.537999999999999901e+01
5.290000000000000036e+00
1.585999999999999943e+01
-2.010000000000000142e+01
5.231000000000000227e+01
1.282599999999999909e+02
-9.545000000000000284e+01
5.246999999999999886e+01
-4.564000000000000057e+01
-6.353999999999999915e+01
-2.271000000000000085e+01
2.687000000000000099e+01
1.844999999999999929e+01
-2.110000000000000142e+01
-9.779999999999999361e+00
5.100000000000000089e-01
-2.885999999999999943e+01
3.650000000000000000e+01
2.245300000000000011e+02
-5.321999999999999886e+01
-7.837999999999999545e+01
6.801999999999999602e+01
1.848000000000000043e+01
3.033999999999999773e+02
6.515000000000000568e+01
-7.906999999999999318e+01
-3.187300000000000182e+02
-2.727799999999999727e+02
2.047500000000000000e+02
9.735999999999999943e+01
3.803999999999999915e+01
-2.076000000000000156e+01
-1.055000000000000071e+01
2.946000000000000085e+01
1.756299999999999955e+02
9.578000000000000114e+01
-2.081200000000000045e+02
1.648000000000000043e+01
-6.338000000000000256e+01
1.193999999999999950e+01
1.042999999999999972e+01
-1.662999999999999901e+01
3.884000000000000341e+01
-7.669999999999999929e+00
-1.466000000000000014e+01
3.604999999999999716e+01
1.742299999999999898e+02
4.342599999999999909e+02
-3.851100000000000136e+02
1.230600000000000023e+02
-3.521999999999999886e+01
-3.196999999999999886e+01
-1.635200000000000102e+02
1.099099999999999966e+02
3.828000000000000114e+01
-2.558700000000000045e+02
5.421999999999999886e+01
-1.313499999999999943e+02
2.445800000000000125e+02
-9.129999999999999716e+01
-6.784999999999999432e+01
4.132000000000000028e+01
1.097099999999999937e+02
1.134699999999999989e+02
-4.721000000000000085e+01
2.983799999999999955e+02
-1.306399999999999864e+02
-4.366999999999999886e+02
7.995000000000000284e+01
1.625200000000000102e+02
2.071000000000000085e+01
-9.178000000000000114e+01
2.118100000000000023e+02
5.360000000000000320e+00
-2.337599999999999909e+02
-1.961399999999999864e+02
5.541299999999999955e+02
-6.540999999999999659e+01
-4.339300000000000068e+02
-1.550500000000000114e+02
2.629499999999999886e+02
1.388400000000000034e+02
-3.053700000000000045e+02
3.076999999999999957e+01
2.385000000000000142e+01
-8.245999999999999375e+01
-1.244200000000000017e+02
-9.868000000000000682e+01
1.645699999999999932e+02
2.235999999999999943e+01
7.998000000000000398e+01
-9.498000000000000398e+01
6.009999999999999787e+00
-7.340000000000000568e+01
4.730000000000000426e+00
-2.671000000000000085e+01
-7.330000000000000071e+00
8.839999999999999858e+00
-3.632000000000000028e+01
3.642000000000000171e+01
-1.873000000000000043e+01
2.305999999999999872e+01
1.794000000000000128e+01
-3.564000000000000057e+01
3.472999999999999687e+01
-1.250000000000000000e+00
-1.846000000000000085e+01
3.588000000000000256e+01
-9.880000000000000782e+00
-1.208999999999999986e+01
-2.009999999999999787e+00
-1.139000000000000057e+01
3.400000000000000244e-01
2.080000000000000071e+01
-5.100000000000000089e-01
-1.339000000000000057e+01
1.342999999999999972e+01
1.909999999999999920e+00
-1.588000000000000078e+01
1.225000000000000000e+01
8.179999999999999716e+00
-7.349999999999999645e+00
6.400000000000000355e+00
-1.179999999999999938e+00
-1.817999999999999972e+01
-1.619000000000000128e+01
3.759999999999999787e+00
-4.150000000000000355e+00
-5.280000000000000249e+00
1.726000000000000156e+01
-1.065600000000000023e+02
5.477000000000000313e+01
-8.164000000000000057e+01
9.851000000000000512e+01
1.173599999999999994e+02
1.967999999999999972e+01
-1.274800000000000040e+02
2.587999999999999901e+01
2.942000000000000171e+01
8.137000000000000455e+01
6.904999999999999716e+01
7.620999999999999375e+01
-1.667400000000000091e+02
-3.968500000000000227e+02
1.456999999999999886e+02
2.100900000000000034e+02
-2.707000000000000028e+01
9.515000000000000568e+01
1.433999999999999986e+01
-3.874800000000000182e+02
-1.355000000000000000e+02
-6.469999999999999751e+00
4.586999999999999744e+01
-2.123000000000000043e+01
-6.790000000000000036e+00
3.117000000000000171e+01
-1.800000000000000000e+01
2.523999999999999844e+01
-1.979999999999999982e+00
-5.219999999999999751e+00
1.086999999999999922e+01
-1.671899999999999977e+02
1.983499999999999943e+02
5.847999999999999687e+01
-1.358600000000000136e+02
1.445399999999999920e+02
4.878999999999999915e+01
-3.175000000000000000e+01
3.678999999999999915e+01
-2.907000000000000028e+01
1.970699999999999932e+02
-5.524000000000000199e+01
-1.890000000000000000e+02
8.987000000000000455e+01
-1.916899999999999977e+02
-6.250000000000000000e+01
1.375900000000000034e+02
-8.565999999999999659e+01
-1.425099999999999909e+02
-4.546000000000000085e+01
1.149599999999999937e+02
1.136299999999999955e+02
8.198999999999999488e+01
-2.578799999999999955e+02
-6.342999999999999972e+01
6.032999999999999829e+01
4.103000000000000114e+01
-5.361999999999999744e+01
-4.259000000000000341e+01
-5.461999999999999744e+01
2.717000000000000171e+01
1.400999999999999979e+01
1.339000000000000057e+01
8.939999999999999503e+00
1.610999999999999943e+01
1.489999999999999991e+00
-2.103999999999999915e+01
6.779000000000000625e+01
1.470200000000000102e+02
-7.335999999999999943e+01
-1.481699999999999875e+02
8.345000000000000284e+01
-1.832999999999999829e+01
-6.228999999999999915e+01
-6.598000000000000398e+01
-5.325999999999999801e+01
3.786200000000000045e+02
-5.715999999999999659e+01
-1.303799999999999955e+02
-7.707999999999999829e+01
-4.464000000000000057e+01
-9.554000000000000625e+01
9.948999999999999488e+01
1.251400000000000006e+02
1.169999999999999929e+00
-1.150300000000000011e+02
-4.202000000000000313e+01
2.673000000000000043e+01
-2.601999999999999957e+01
-8.293000000000000682e+01
7.339999999999999858e+00
-5.270000000000000284e+01
1.718400000000000034e+02
5.410000000000000142e+00
-1.119899999999999949e+02
3.874599999999999795e+02
-3.935999999999999943e+01
-1.510300000000000011e+02
9.604000000000000625e+01
-6.643000000000000682e+01
8.035999999999999943e+01
6.074000000000000199e+01
-3.714000000000000057e+01
-4.903999999999999915e+01
3.609999999999999876e+00
-1.290800000000000125e+02
4.777000000000000313e+01
5.219999999999999751e+00
3.638000000000000256e+01
4.932000000000000028e+01
-7.723999999999999488e+01
-2.741000000000000014e+01
-1.114300000000000068e+02
7.276000000000000512e+01
-4.629999999999999893e+00
2.702500000000000000e+02
-3.047300000000000182e+02
-1.921299999999999955e+02
8.629999999999999716e+01
1.977199999999999989e+02
4.685999999999999943e+01
7.743000000000000682e+01
-2.705400000000000205e+02
1.075999999999999943e+02
2.825000000000000000e+01
-1.786899999999999977e+02
-1.157399999999999949e+02
2.546399999999999864e+02
-3.600299999999999727e+02
-2.349699999999999989e+02
1.262800000000000011e+02
5.113000000000000256e+01
3.917999999999999972e+01
4.425000000000000000e+01
2.450699999999999932e+02
-2.313899999999999864e+02
-3.129300000000000068e+02
1.713700000000000045e+02
3.203999999999999915e+01
-1.115000000000000036e+01
-1.017999999999999972e+01
4.265999999999999659e+01
4.396999999999999886e+01
3.295000000000000284e+01
-4.542999999999999972e+01
-2.194999999999999929e+01
2.471000000000000085e+01
-1.464300000000000068e+02
9.968999999999999773e+01
1.610999999999999943e+01
-2.658600000000000136e+02
1.474900000000000091e+02
8.565000000000000568e+01
-8.000000000000000167e-02
3.126000000000000156e+01
2.200000000000000011e-01
-2.008999999999999986e+01
2.616000000000000014e+01
-4.368999999999999773e+01
3.396000000000000085e+01
-2.450000000000000000e+01
-4.511999999999999744e+01
1.149200000000000017e+02
-2.126000000000000156e+01
-9.720000000000000639e+00
1.028700000000000045e+02
-7.446999999999999886e+01
-2.863500000000000227e+02
1.373400000000000034e+02
1.560900000000000034e+02
1.238199999999999932e+02
-1.027999999999999936e+01
-1.834099999999999966e+02
-1.696000000000000085e+01
-4.653999999999999915e+01
-4.290000000000000036e+00
-8.587999999999999545e+01
3.257000000000000028e+01
-2.535999999999999943e+01
2.066000000000000014e+01
-6.718000000000000682e+01
8.723000000000000398e+01
-6.282000000000000028e+01
-1.932299999999999898e+02
1.147600000000000051e+02
4.617999999999999972e+01
4.236999999999999744e+01
7.762000000000000455e+01
1.333700000000000045e+02
-1.591200000000000045e+02
-2.019999999999999929e+01
5.588000000000000256e+01
3.359999999999999876e+00
-1.133100000000000023e+02
-2.403999999999999915e+01
5.339999999999999858e+00
-3.965999999999999659e+01
-1.050400000000000063e+02
2.885500000000000114e+02
-1.764900000000000091e+02
-1.490000000000000036e+01
5.067999999999999972e+01
-1.343400000000000034e+02
1.166200000000000045e+02
1.608499999999999943e+02
-2.233199999999999932e+02
6.690000000000000391e+00
2.462999999999999901e+01
6.801999999999999602e+01
5.586999999999999744e+01
-2.261200000000000045e+02
6.071000000000000085e+01
4.115999999999999659e+01
7.030000000000000249e+00
-2.282000000000000028e+01
2.567999999999999972e+01
3.499999999999999778e-01
-2.196000000000000085e+01
2.553000000000000114e+01
1.623999999999999844e+01
-1.730000000000000071e+01
-5.907000000000000028e+01
3.167000000000000171e+01
2.585000000000000142e+01
-1.283999999999999986e+01
-4.284000000000000341e+01
3.493999999999999773e+01
2.792000000000000171e+01
-1.313000000000000078e+01
-3.464000000000000057e+01
4.729999999999999716e+01
4.279999999999999716e+01
1.396000000000000085e+01
-1.476800000000000068e+02
1.303600000000000136e+02
1.887199999999999989e+02
-5.652000000000000313e+01
-4.671000000000000085e+01
-2.310000000000000142e+01
5.721999999999999886e+01
1.905999999999999872e+01
5.025999999999999801e+01
-3.200999999999999801e+01
3.664000000000000057e+01
2.573100000000000023e+02
-6.199000000000000199e+01
1.826000000000000156e+01
-3.442000000000000171e+01
-1.056400000000000006e+02
1.396599999999999966e+02
-3.126000000000000156e+01
-1.113000000000000078e+01
-1.639000000000000057e+01
3.531000000000000227e+01
-2.685000000000000142e+01
-2.700000000000000000e+01
1.271000000000000085e+01
2.567000000000000171e+01
-1.808999999999999986e+01
-5.538000000000000256e+01
-5.809000000000000341e+01
2.442599999999999909e+02
-1.019399999999999977e+02
-1.152999999999999936e+01
3.091000000000000014e+01
-8.910999999999999943e+01
1.199899999999999949e+02
-2.399999999999999911e-01
3.430000000000000160e+00
3.660000000000000142e+00
-1.625000000000000000e+01
-1.227999999999999936e+01
1.289000000000000057e+01
6.299999999999999822e+00
-2.083999999999999986e+01
-2.500000000000000000e+00
1.817999999999999972e+01
7.099999999999999645e-01
-3.571999999999999886e+01
1.481000000000000050e+01
1.464000000000000057e+01
-1.241000000000000014e+01
-2.564000000000000057e+01
2.405999999999999872e+01
4.932000000000000028e+01
-3.735000000000000142e+01
-5.321000000000000085e+01
8.826000000000000512e+01
-2.607999999999999829e+01
-3.936999999999999744e+01
1.719000000000000128e+01
5.318999999999999773e+01
1.791000000000000014e+01
-8.580000000000000071e+00
2.669999999999999929e+00
1.930000000000000071e+01
8.039999999999999147e+00
-2.239999999999999858e+01
-1.132000000000000028e+01
-6.870000000000000107e+00
3.474000000000000199e+01
9.359000000000000341e+01
1.127000000000000028e+02
-1.352800000000000011e+02
-2.782000000000000028e+01
5.345000000000000284e+01
2.125300000000000011e+02
1.742400000000000091e+02
-1.350000000000000000e+02
-5.936999999999999744e+01
-2.291399999999999864e+02
-3.332000000000000028e+01
-6.643000000000000682e+01
8.371999999999999886e+01
5.599000000000000199e+01
-5.490000000000000213e+00
-2.139999999999999858e+01
1.129500000000000028e+02
4.507999999999999829e+01
-4.470000000000000284e+01
-8.169999999999999929e+00
-7.726999999999999602e+01
4.606000000000000227e+01
-2.698000000000000043e+01
3.151999999999999957e+01
6.339000000000000057e+01
2.959999999999999964e+00
-2.192000000000000171e+01
-2.859999999999999876e+00
-4.429999999999999716e+01
-3.121999999999999886e+01
2.816000000000000014e+01
1.078999999999999915e+01
5.709999999999999964e+00
-2.326000000000000156e+01
-3.035000000000000142e+01
1.288199999999999932e+02
-2.935999999999999943e+01
-2.025000000000000000e+01
-4.117000000000000171e+01
1.533199999999999932e+02
1.441999999999999993e+01
-9.980000000000000426e+00
-2.344999999999999929e+01
-4.049999999999999822e+00
-9.200000000000000400e-01
-5.030000000000000249e+00
-4.429999999999999716e+00
-1.567999999999999972e+01
-1.082000000000000028e+01
-1.617999999999999972e+01
2.209999999999999964e+00
-1.573600000000000136e+02
1.585500000000000114e+02
9.593999999999999773e+01
2.276999999999999957e+01
-1.250000000000000000e+00
2.435000000000000142e+01
-1.680500000000000114e+02
2.051999999999999957e+01
-6.339999999999999858e+01
2.246000000000000085e+01
3.979999999999999982e+00
8.014000000000000057e+01
3.100000000000000089e+00
-3.400000000000000000e+01
3.804999999999999716e+01
4.092999999999999972e+01
-4.686999999999999744e+01
-6.726000000000000512e+01
3.782999999999999829e+01
5.471999999999999886e+01
1.526999999999999957e+01
-8.103000000000000114e+01
1.394999999999999929e+01
5.542000000000000171e+01
4.046999999999999886e+01
-2.467999999999999972e+01
-5.071000000000000085e+01
7.280000000000000249e+00
1.425999999999999979e+01
-3.400000000000000000e+01
1.942999999999999972e+01
2.385000000000000142e+01
-1.053999999999999915e+01
-3.196999999999999886e+01
3.800000000000000044e-01
3.014000000000000057e+01
1.751999999999999957e+01
-6.959999999999999964e+00
-1.832000000000000028e+01
1.325000000000000000e+01
1.289000000000000057e+01
-1.597000000000000064e+01
-4.370000000000000107e+00
2.430999999999999872e+01
1.819999999999999929e+01
-1.828999999999999915e+01
-1.099000000000000021e+01
1.685000000000000142e+01
9.529999999999999361e+00
-1.080000000000000071e+01
-7.740000000000000213e+00
2.364000000000000057e+01
1.381000000000000050e+01
-4.690000000000000391e+00
-6.540000000000000036e+00
1.989999999999999858e+01
1.299000000000000021e+01
-1.434999999999999964e+01
-9.169999999999999929e+00
1.409999999999999964e+01
1.236999999999999922e+01
-1.608999999999999986e+01
-2.476000000000000156e+01
1.705999999999999872e+01
1.350999999999999979e+01
-4.099999999999999645e+00
-1.034999999999999964e+01
3.497999999999999687e+01
-2.839999999999999858e+00
-3.370000000000000284e+01
-2.785999999999999943e+01
-2.153000000000000114e+01
-5.593999999999999773e+01
4.865999999999999659e+01
3.624000000000000199e+01
3.083999999999999986e+01
-3.300000000000000155e-01
-1.357000000000000028e+01
-9.599999999999999645e+00
1.149999999999999911e+00
-3.459999999999999964e+00
-2.391000000000000014e+01
5.179999999999999716e+00
1.528999999999999915e+01
1.900000000000000000e+01
-3.879999999999999716e+01
-5.299999999999999822e+00
1.967000000000000171e+01
6.480000000000000426e+00
-8.580000000000000071e+00
8.929999999999999716e+00
2.396999999999999886e+01
-2.425000000000000000e+01
-2.148999999999999844e+01
3.100000000000000089e+00
2.167000000000000171e+01
-4.559999999999999609e+00
-3.392999999999999972e+01
2.351999999999999957e+01
2.728999999999999915e+01
-4.103999999999999915e+01
3.285000000000000142e+01
6.125999999999999801e+01
-3.075000000000000000e+01
-1.617999999999999972e+01
-9.323999999999999488e+01
1.281599999999999966e+02
-3.821999999999999886e+01
-2.464000000000000057e+01
2.032999999999999829e+01
5.229999999999999716e+01
8.880000000000000782e+00
2.859999999999999876e+00
-3.157000000000000028e+01
-7.923999999999999488e+01
-1.075400000000000063e+02
1.243799999999999955e+02
-2.425000000000000000e+01
7.860999999999999943e+01
-1.252800000000000011e+02
-3.414000000000000057e+01
-2.448000000000000043e+01
-4.403000000000000114e+01
-5.560999999999999943e+01
4.300000000000000000e+01
-1.094599999999999937e+02
8.229000000000000625e+01
4.038000000000000256e+01
-2.871999999999999886e+01
3.864000000000000057e+01
-4.085999999999999943e+01
-1.889000000000000057e+01
1.522000000000000064e+01
1.236299999999999955e+02
-1.273000000000000043e+01
-2.573999999999999844e+01
4.120000000000000284e+01
1.847199999999999989e+02
-3.039499999999999886e+02
-7.504000000000000625e+01
4.285999999999999943e+01
-9.768999999999999773e+01
-1.782999999999999829e+01
-3.225999999999999801e+01
4.621000000000000085e+01
6.500000000000000000e+00
-4.400000000000000355e+00
-1.758999999999999986e+01
-1.723999999999999844e+01
8.289999999999999147e+00
-9.810000000000000497e+00
3.044000000000000128e+01
2.155999999999999872e+01
1.390000000000000036e+01
1.286999999999999922e+01
3.409000000000000341e+01
4.280000000000000249e+00
-1.385999999999999943e+01
-2.042000000000000171e+01
5.049999999999999822e+00
4.349999999999999645e+00
-1.682999999999999829e+01
-7.450000000000000178e+00
1.208999999999999986e+01
-1.132000000000000028e+01
-6.279999999999999716e+01
4.682999999999999829e+01
1.848000000000000043e+01
1.792000000000000171e+01
1.139000000000000057e+01
4.528999999999999915e+01
-2.353999999999999915e+01
-9.250000000000000000e+00
-2.171000000000000085e+01
-1.735999999999999943e+01
4.446000000000000085e+01
5.122999999999999687e+01
-1.146099999999999994e+02
-4.685999999999999943e+01
6.267999999999999972e+01
2.733999999999999986e+01
-5.509999999999999787e+00
-1.508000000000000007e+01
-1.260000000000000009e+00
-2.708999999999999986e+01
-1.812000000000000099e+01
2.185999999999999943e+01
1.013000000000000078e+01
-7.959999999999999964e+00
7.440000000000000391e+00
2.035000000000000142e+01
-6.669999999999999929e+00
-3.495000000000000284e+01
1.710000000000000142e+01
1.807999999999999829e+01
-1.830000000000000071e+00
-1.490000000000000036e+01
1.621000000000000085e+01
2.555000000000000071e+01
3.130999999999999872e+01
-2.482000000000000028e+01
2.203999999999999915e+01
1.658999999999999986e+01
7.599999999999999645e+00
-1.150000000000000000e+01
1.360000000000000098e+00
-1.033999999999999986e+01
-5.082999999999999829e+01
-3.959999999999999964e+00
2.062000000000000099e+01
-5.695000000000000284e+01
-2.851000000000000156e+01
1.960000000000000142e+01
4.281000000000000227e+01
-5.419999999999999929e+00
-5.235999999999999943e+01
6.009999999999999787e+00
2.310000000000000142e+01
1.146000000000000085e+01
-2.730999999999999872e+01
1.200999999999999979e+01
1.597000000000000064e+01
1.360000000000000098e+00
-3.200999999999999801e+01
2.448999999999999844e+01
3.259000000000000341e+01
-1.091000000000000014e+01
-6.709000000000000341e+01
4.010000000000000142e+01
3.160999999999999943e+01
9.820000000000000284e+00
-6.760999999999999943e+01
-4.846999999999999886e+01
-1.370699999999999932e+02
5.582999999999999829e+01
2.582000000000000028e+01
3.063100000000000023e+02
-1.738499999999999943e+02
8.419999999999999929e+00
6.122999999999999687e+01
9.818000000000000682e+01
-4.329499999999999886e+02
7.159000000000000341e+01
1.535800000000000125e+02
-3.296100000000000136e+02
-4.485999999999999943e+01
-4.335999999999999943e+01
2.524099999999999966e+02
-2.895600000000000023e+02
-9.048999999999999488e+01
-4.399000000000000199e+01
5.515700000000000500e+02
-1.318499999999999943e+02
-8.889000000000000057e+01
1.719499999999999886e+02
-6.420000000000000284e+01
-8.857999999999999829e+01
1.008000000000000007e+01
-1.640399999999999920e+02
1.996399999999999864e+02
2.798199999999999932e+02
-2.055000000000000071e+01
-1.281500000000000057e+02
-7.784000000000000341e+01
7.839000000000000057e+01
-9.925000000000000000e+01
1.340500000000000114e+02
-1.409499999999999886e+02
-6.089999999999999858e+01
-3.300999999999999801e+01
3.904999999999999716e+01
1.008000000000000007e+01
-7.734000000000000341e+01
-6.601999999999999602e+01
1.322700000000000102e+02
7.215000000000000568e+01
-9.932999999999999829e+01
-3.132300000000000182e+02
1.261999999999999922e+01
3.443299999999999841e+02
2.996000000000000085e+01
-2.926000000000000227e+02
3.639100000000000250e+02
-3.970000000000000284e+01
-2.493600000000000136e+02
1.628100000000000023e+02
-6.600000000000000311e-01
3.046000000000000085e+01
2.369000000000000128e+01
-9.514000000000000057e+01
-8.523000000000000398e+01
3.144999999999999929e+01
-6.075000000000000000e+01
2.469999999999999929e+01
-5.750000000000000000e+01
1.055000000000000071e+01
-2.633999999999999986e+01
1.037900000000000063e+02
-2.107000000000000028e+01
-5.342000000000000171e+01
-9.570999999999999375e+01
9.278000000000000114e+01
8.559000000000000341e+01
-5.117000000000000171e+01
-1.984499999999999886e+02
1.030300000000000011e+02
5.035999999999999943e+01
8.695999999999999375e+01
-2.096000000000000085e+01
-3.860999999999999943e+01
-8.399999999999999689e-01
-1.426699999999999875e+02
-2.053000000000000114e+01
7.917000000000000171e+01
-1.513000000000000078e+01
9.420000000000000284e+01
3.057999999999999829e+01
4.828999999999999915e+01
-8.656000000000000227e+01
-4.638000000000000256e+01
-1.475999999999999943e+02
1.253599999999999994e+02
1.300000000000000044e-01
1.679999999999999938e+00
2.953000000000000114e+01
1.839000000000000057e+01
7.980000000000000426e+00
1.493700000000000045e+02
-9.690000000000000568e+01
-1.215999999999999943e+02
-1.015000000000000036e+01
7.384000000000000341e+01
3.567000000000000171e+01
2.589999999999999858e+01
-4.375000000000000000e+01
4.017000000000000171e+01
4.350999999999999801e+01
-5.734000000000000341e+01
-1.989999999999999991e+00
-1.792000000000000171e+01
7.503000000000000114e+01
-5.456000000000000227e+01
-5.579999999999999716e+01
-2.610000000000000142e+01
8.268000000000000682e+01
2.529999999999999805e+00
-7.920000000000000284e+01
-1.220000000000000000e+02
3.149999999999999911e+00
1.022699999999999960e+02
1.492700000000000102e+02
3.878000000000000114e+01
-1.190300000000000011e+02
4.477000000000000313e+01
1.109599999999999937e+02
8.045000000000000284e+01
-1.411500000000000057e+02
-2.501999999999999957e+01
-5.292999999999999972e+01
-1.967000000000000171e+01
7.969999999999999751e+00
-4.678999999999999915e+01
6.700000000000000178e+00
9.279999999999999361e+00
1.540000000000000036e+01
9.926999999999999602e+01
-1.120199999999999960e+02
-1.048700000000000045e+02
1.775000000000000000e+01
8.940000000000000568e+01
-8.320000000000000284e+00
8.768999999999999773e+01
4.636999999999999744e+01
6.779999999999999716e+01
-1.901100000000000136e+02
-2.515500000000000114e+02
3.927000000000000313e+01
-1.919999999999999929e+01
1.282599999999999909e+02
-3.254999999999999716e+01
3.815999999999999659e+01
-3.582000000000000028e+01
-1.796999999999999886e+01
-3.760999999999999943e+01
-5.020000000000000284e+01
-1.228299999999999983e+02
1.265300000000000011e+02
4.679999999999999716e+01
-7.048000000000000398e+01
-1.376999999999999957e+01
6.019999999999999574e+00
6.860000000000000320e+00
-2.919999999999999929e+01
1.476999999999999957e+01
3.162000000000000099e+01
9.349999999999999645e+00
-1.773000000000000043e+01
2.540000000000000036e+00
1.076999999999999957e+01
-3.431000000000000227e+01
4.580000000000000071e+00
1.222000000000000064e+01
-6.800000000000000488e-01
-3.042999999999999972e+01
1.816000000000000014e+01
1.191000000000000014e+01
-1.366999999999999993e+01
-6.709999999999999964e+00
1.268999999999999950e+01
1.649999999999999911e+00
-3.546000000000000085e+01
2.048999999999999844e+01
2.251000000000000156e+01
-7.049999999999999822e+00
-2.889000000000000057e+01
2.264999999999999858e+01
1.082000000000000028e+01
-1.589000000000000057e+01
-4.959999999999999964e+00
2.321999999999999886e+01
1.042999999999999972e+01
-2.937999999999999901e+01
1.514000000000000057e+01
2.994999999999999929e+01
6.849999999999999645e+00
-3.472999999999999687e+01
1.265000000000000036e+01
2.105999999999999872e+01
-3.099999999999999978e-01
-3.510999999999999943e+01
2.550000000000000000e+01
1.941000000000000014e+01
-1.264000000000000057e+01
-2.417999999999999972e+01
2.330999999999999872e+01
1.651999999999999957e+01
-1.771000000000000085e+01
-6.080000000000000071e+00
2.817999999999999972e+01
9.789999999999999147e+00
-2.421000000000000085e+01
5.580000000000000071e+00
2.339000000000000057e+01
-1.679999999999999938e+00
-4.059000000000000341e+01
1.783999999999999986e+01
1.951999999999999957e+01
-9.580000000000000071e+00
-2.192999999999999972e+01
2.742999999999999972e+01
1.478999999999999915e+01
-2.466000000000000014e+01
-1.443999999999999950e+01
1.923999999999999844e+01
5.269999999999999574e+00
-3.123000000000000043e+01
1.239000000000000057e+01
2.616000000000000014e+01
7.800000000000000266e-01
-3.640999999999999659e+01
2.350000000000000000e+01
2.132999999999999829e+01
-7.900000000000000355e+00
-2.957000000000000028e+01
1.694999999999999929e+01
1.055000000000000071e+01
-1.453999999999999915e+01
-1.350999999999999979e+01
1.762000000000000099e+01
9.580000000000000071e+00
-1.737999999999999901e+01
-4.570000000000000284e+00
2.198000000000000043e+01
7.799999999999999822e+00
-1.944000000000000128e+01
-4.700000000000000178e+00
2.021000000000000085e+01
8.380000000000000782e+00
-2.126999999999999957e+01
-1.135999999999999943e+01
1.796000000000000085e+01
8.029999999999999361e+00
-2.323000000000000043e+01
9.050000000000000711e+00
1.882999999999999829e+01
5.059999999999999609e+00
-2.482999999999999829e+01
7.950000000000000178e+00
1.386999999999999922e+01
-3.509999999999999787e+00
-4.539999999999999858e+01
-2.160999999999999943e+01
-2.146000000000000085e+01
-1.554499999999999886e+02
3.442999999999999972e+01
9.412999999999999545e+01
-3.057999999999999829e+01
-1.707400000000000091e+02
4.820000000000000284e+00
3.560999999999999943e+01
2.050000000000000000e+01
1.556000000000000050e+01
-1.830999999999999872e+01
8.339999999999999858e+00
-9.100000000000000311e-01
-4.363000000000000256e+01
3.094999999999999929e+01
1.746999999999999886e+01
-9.029999999999999361e+00
-3.606000000000000227e+01
2.860999999999999943e+01
1.490000000000000036e+01
-7.980000000000000426e+00
-2.405000000000000071e+01
1.589000000000000057e+01
2.235000000000000142e+01
-2.075000000000000000e+01
2.319999999999999840e+00
1.489000000000000057e+01
3.810000000000000053e+00
-3.450000000000000000e+01
2.060999999999999943e+01
1.359999999999999964e+01
-3.270000000000000018e+00
-3.442000000000000171e+01
1.598000000000000043e+01
1.803999999999999915e+01
-1.600000000000000000e+01
-3.240000000000000213e+00
2.446999999999999886e+01
8.800000000000000711e+00
-2.378000000000000114e+01
5.259999999999999787e+00
1.958999999999999986e+01
4.879999999999999893e+00
-2.453000000000000114e+01
6.330000000000000071e+00
2.323000000000000043e+01
9.899999999999999911e-01
-3.527000000000000313e+01
1.653000000000000114e+01
1.907000000000000028e+01
-1.250000000000000000e+00
-3.514999999999999858e+01
1.862999999999999901e+01
1.339000000000000057e+01
-7.509999999999999787e+00
-3.460000000000000142e+01
1.601999999999999957e+01
1.755000000000000071e+01
-1.417999999999999972e+01
-1.692000000000000171e+01
2.312999999999999901e+01
1.316000000000000014e+01
-1.753999999999999915e+01
-7.129999999999999893e+00
1.792000000000000171e+01
5.339999999999999858e+00
-2.103000000000000114e+01
6.469999999999999751e+00
1.810999999999999943e+01
2.000000000000000042e-02
-3.463000000000000256e+01
1.828999999999999915e+01
1.953999999999999915e+01
-1.330000000000000071e+00
-3.389999999999999858e+01
2.105999999999999872e+01
6.919999999999999929e+00
-1.072000000000000064e+01
-3.442000000000000171e+01
1.830999999999999872e+01
6.879999999999999893e+00
-1.103999999999999915e+01
-6.280000000000000249e+00
2.675000000000000000e+01
1.969000000000000128e+01
-1.626000000000000156e+01
-1.415000000000000036e+01
1.532000000000000028e+01
4.990000000000000213e+00
-2.187999999999999901e+01
6.330000000000000071e+00
1.821000000000000085e+01
-3.259999999999999787e+00
-3.191000000000000014e+01
1.846000000000000085e+01
1.894000000000000128e+01
-3.330000000000000071e+00
-3.513000000000000256e+01
1.449000000000000021e+01
1.511999999999999922e+01
-4.629999999999999893e+00
-2.626999999999999957e+01
1.458999999999999986e+01
1.778999999999999915e+01
-8.750000000000000000e+00
-3.465999999999999659e+01
1.701999999999999957e+01
1.551999999999999957e+01
-1.038000000000000078e+01
-3.409000000000000341e+01
1.871000000000000085e+01
1.192999999999999972e+01
-8.480000000000000426e+00
-2.926999999999999957e+01
1.873000000000000043e+01
9.089999999999999858e+00
-1.564000000000000057e+01
-7.929999999999999716e+00
1.921000000000000085e+01
8.759999999999999787e+00
-2.255000000000000071e+01
-2.800000000000000266e-01
1.785999999999999943e+01
4.040000000000000036e+00
-2.073000000000000043e+01
-4.669999999999999929e+00
1.751000000000000156e+01
1.550000000000000044e+00
-3.684000000000000341e+01
1.236999999999999922e+01
2.396999999999999886e+01
-9.250000000000000000e+00
-3.888000000000000256e+01
1.862000000000000099e+01
1.687999999999999901e+01
-8.109999999999999432e+00
-1.433000000000000007e+01
2.312999999999999901e+01
8.279999999999999361e+00
-2.244000000000000128e+01
-8.199999999999999512e-01
1.823999999999999844e+01
-6.200000000000000178e+00
-4.092999999999999972e+01
1.773000000000000043e+01
2.262999999999999901e+01
3.200000000000000067e-01
-3.690999999999999659e+01
1.746999999999999886e+01
1.680999999999999872e+01
-2.166000000000000014e+01
-2.573999999999999844e+01
2.696000000000000085e+01
5.186999999999999744e+01
-2.378000000000000114e+01
-5.514999999999999858e+01
4.424000000000000199e+01
8.817000000000000171e+01
-4.700999999999999801e+01
-1.433999999999999986e+01
4.070000000000000284e+00
-2.878000000000000114e+01
-2.923000000000000043e+01
1.326999999999999957e+01
-1.912000000000000099e+01
-8.460999999999999943e+01
9.245999999999999375e+01
3.793999999999999773e+01
-6.269999999999999574e+00
-5.896999999999999886e+01
-1.933999999999999986e+01
3.310999999999999943e+01
3.235000000000000142e+01
3.867000000000000171e+01
-4.578999999999999915e+01
-2.060999999999999943e+01
-2.470000000000000195e+00
-5.190000000000000391e+00
1.691000000000000014e+01
-3.245000000000000284e+01
-1.826999999999999957e+01
6.049999999999999822e+00
1.812000000000000099e+01
7.000000000000000000e+00
-2.664999999999999858e+01
1.016000000000000014e+01
2.058999999999999986e+01
-2.433999999999999986e+01
-2.301999999999999957e+01
2.625000000000000000e+01
1.376999999999999957e+01
-1.860000000000000142e+01
6.259999999999999787e+00
2.164999999999999858e+01
2.299999999999999822e+00
-2.612000000000000099e+01
1.516000000000000014e+01
2.639000000000000057e+01
4.509999999999999787e+00
-3.046000000000000085e+01
1.755999999999999872e+01
8.480000000000000426e+00
-1.326999999999999957e+01
-2.362999999999999901e+01
2.505000000000000071e+01
1.782000000000000028e+01
-7.919999999999999929e+00
-2.473000000000000043e+01
1.955999999999999872e+01
-5.500000000000000444e-01
-2.194999999999999929e+01
8.339999999999999858e+00
2.087999999999999901e+01
-2.490000000000000213e+00
-3.982000000000000028e+01
1.451999999999999957e+01
2.437000000000000099e+01
-1.459999999999999964e+00
-3.663000000000000256e+01
-3.720000000000000195e+00
1.283999999999999986e+01
1.436999999999999922e+01
-5.530000000000000249e+00
2.996000000000000085e+01
2.930000000000000160e+00
2.955999999999999872e+01
-1.231000000000000050e+01
8.687999999999999545e+01
-2.542000000000000171e+01
-5.090999999999999659e+01
-3.479999999999999982e+00
4.210000000000000142e+01
3.867000000000000171e+01
-2.901999999999999957e+01
-1.088000000000000078e+01
1.778999999999999915e+01
-2.540000000000000036e+00
-3.827000000000000313e+01
-9.849999999999999645e+00
-2.646999999999999886e+01
8.309000000000000341e+01
-4.704999999999999716e+01
3.484000000000000341e+01
2.819999999999999929e+01
-2.450000000000000178e+00
-4.260000000000000142e+01
1.182000000000000028e+02
1.305500000000000114e+02
6.379999999999999893e+00
-8.348000000000000398e+01
-4.571999999999999886e+01
-1.105199999999999960e+02
1.671800000000000068e+02
8.759999999999999432e+01
1.669999999999999929e+01
1.700000000000000000e+01
-8.960999999999999943e+01
-5.961999999999999744e+01
5.050299999999999727e+02
-2.385600000000000023e+02
-1.717599999999999909e+02
3.709000000000000341e+01
-4.742000000000000171e+01
-4.917000000000000171e+01
-4.167999999999999972e+01
5.946000000000000085e+01
3.850000000000000089e+00
9.039999999999999147e+00
2.098000000000000043e+01
3.975999999999999801e+01
9.849999999999999645e+00
1.177999999999999936e+01
4.320000000000000284e+00
-2.567999999999999972e+01
-1.441999999999999993e+01
-5.207000000000000028e+01
1.523000000000000043e+01
9.243000000000000682e+01
-1.625200000000000102e+02
7.006999999999999318e+01
1.019800000000000040e+02
-3.640000000000000124e+00
-3.779999999999999716e+01
-3.368999999999999773e+01
1.907000000000000028e+01
3.427000000000000313e+01
-9.100000000000000311e-01
-4.793999999999999773e+01
2.376999999999999957e+01
1.673000000000000043e+01
-2.194999999999999929e+01
3.900000000000000133e-01
1.183000000000000007e+01
2.003999999999999915e+01
-2.055000000000000071e+01
6.480000000000000426e+00
1.344999999999999929e+01
-1.510999999999999943e+01
-1.712999999999999901e+01
3.092000000000000171e+01
1.857000000000000028e+01
-3.435999999999999943e+01
3.263000000000000256e+01
1.810999999999999943e+01
-8.199999999999999289e+00
1.183999999999999986e+01
-1.135999999999999943e+01
-4.799999999999999822e+00
5.929999999999999716e+00
-1.300999999999999979e+01
-1.832000000000000028e+01
7.750000000000000000e+00
1.757400000000000091e+02
3.146999999999999886e+01
-3.396999999999999886e+01
2.676000000000000156e+01
-1.499999999999999944e-01
-3.158999999999999986e+01
7.400000000000000355e+00
1.298000000000000043e+01
-3.390000000000000124e+00
1.109999999999999964e+01
-4.442999999999999972e+01
1.149000000000000021e+01
1.065000000000000036e+01
-3.281000000000000227e+01
6.980000000000000426e+00
2.258999999999999986e+01
5.459999999999999964e+00
-2.421999999999999886e+01
1.712000000000000099e+01
2.376000000000000156e+01
-3.532999999999999829e+01
-7.401000000000000512e+01
1.021500000000000057e+02
3.386999999999999744e+01
1.598000000000000043e+01
-2.946000000000000085e+01
-7.299999999999999822e+00
7.700000000000000178e+00
-3.021000000000000085e+01
-2.223000000000000043e+01
-1.780999999999999872e+01
1.302400000000000091e+02
1.821999999999999886e+01
-2.919999999999999929e+00
-1.278999999999999915e+01
-1.637999999999999901e+01
-5.290000000000000036e+00
-3.130999999999999872e+01
5.370000000000000107e+00
1.842999999999999972e+01
-7.800000000000000266e-01
-2.912000000000000099e+01
1.700000000000000122e-01
2.589999999999999858e+01
3.200000000000000178e+00
-1.430000000000000071e+01
3.680000000000000160e+00
-2.200000000000000178e+00
-1.074000000000000021e+01
-2.300000000000000100e-01
1.776999999999999957e+01
7.800000000000000266e-01
-2.014000000000000057e+01
-2.373999999999999844e+01
2.050000000000000000e+01
1.699999999999999956e+00
-2.269000000000000128e+01
-3.293999999999999773e+01
5.356000000000000227e+01
2.285999999999999943e+01
-2.125000000000000000e+01
-8.890000000000000568e+00
1.147000000000000064e+01
2.259999999999999787e+00
-4.400000000000000022e-01
-6.799999999999999822e+00
3.696000000000000085e+01
-4.410000000000000142e+00
-3.410999999999999943e+01
6.730000000000000426e+00
8.429999999999999716e+00
-2.269000000000000128e+01
-8.995999999999999375e+01
5.689000000000000057e+01
4.314999999999999858e+01
2.076999999999999957e+01
-8.309000000000000341e+01
-2.035000000000000142e+01
3.446999999999999886e+01
3.198999999999999844e+01
-3.682999999999999829e+01
1.361999999999999922e+01
-1.873000000000000043e+01
-2.060999999999999943e+01
-4.842999999999999972e+01
-8.800000000000000711e+00
3.051999999999999957e+01
9.029999999999999361e+00
-5.400000000000000355e-01
1.338000000000000078e+01
-7.400000000000000355e+00
-6.257000000000000028e+01
4.282000000000000028e+01
3.210000000000000142e+01
8.130000000000000782e+00
-1.957999999999999829e+01
-1.641000000000000014e+01
-2.459999999999999964e+00
1.340000000000000080e+00
-1.673000000000000043e+01
2.696999999999999886e+01
-1.004099999999999966e+02
1.224699999999999989e+02
2.387000000000000099e+01
2.982000000000000028e+01
-1.842000000000000171e+01
-2.403000000000000114e+01
-6.303999999999999915e+01
-9.698999999999999488e+01
1.094899999999999949e+02
4.425000000000000000e+01
-2.589000000000000057e+01
1.400000000000000000e+01
-1.891000000000000014e+01
-1.583999999999999986e+01
-2.360999999999999943e+01
3.345000000000000284e+01
2.757000000000000028e+01
-9.380000000000000782e+00
-8.151000000000000512e+01
5.650000000000000355e+00
2.396999999999999886e+01
3.910000000000000142e+00
-2.751000000000000156e+01
1.558000000000000007e+01
1.088000000000000078e+01
-8.910000000000000142e+00
-2.444999999999999929e+01
1.762999999999999901e+01
7.639999999999999680e+00
-9.980000000000000426e+00
-2.587999999999999901e+01
1.056000000000000050e+01
2.089000000000000057e+01
-6.120000000000000107e+00
-2.073999999999999844e+01
1.574000000000000021e+01
8.390000000000000568e+00
-1.533000000000000007e+01
-5.999999999999999778e-02
3.450999999999999801e+01
4.496000000000000085e+01
-3.521999999999999886e+01
-2.680999999999999872e+01
3.899999999999999911e+00
-1.086999999999999922e+01
-4.020000000000000284e+01
2.196000000000000085e+01
3.207000000000000028e+01
1.699999999999999956e+00
-2.462000000000000099e+01
1.350000000000000000e+01
1.876999999999999957e+01
-1.580000000000000071e+00
-3.792000000000000171e+01
2.176000000000000156e+01
1.876999999999999957e+01
-7.800000000000000266e-01
-2.944000000000000128e+01
1.348000000000000043e+01
1.139000000000000057e+01
-8.919999999999999929e+00
-1.273000000000000043e+01
1.828000000000000114e+01
9.380000000000000782e+00
-1.730999999999999872e+01
1.538000000000000078e+01
1.641000000000000014e+01
-1.527999999999999936e+01
-1.468999999999999950e+01
-2.083999999999999986e+01
2.285000000000000142e+01
3.100000000000000089e+00
-2.246000000000000085e+01
-1.348000000000000043e+01
-2.540000000000000036e+00
1.769999999999999929e+01
-5.486999999999999744e+01
4.400000000000000000e+01
-3.259000000000000341e+01
1.419900000000000091e+02
-8.264000000000000057e+01
3.229999999999999982e+00
7.523000000000000398e+01
-3.546000000000000085e+01
-9.839999999999999858e+00
1.580000000000000071e+00
4.506000000000000227e+01
-1.325000000000000000e+01
-3.967000000000000171e+01
-1.633999999999999986e+01
4.965999999999999659e+01
-4.507999999999999829e+01
-1.237099999999999937e+02
8.851999999999999602e+01
2.875000000000000000e+01
1.140000000000000036e+01
-8.650000000000000355e+00
-1.414000000000000057e+01
-2.014000000000000057e+01
-1.000000000000000021e-02
-1.503999999999999915e+01
-2.655999999999999872e+01
-1.982000000000000028e+01
-2.901999999999999957e+01
-3.071999999999999886e+01
1.145799999999999983e+02
2.769999999999999929e+01
-2.342999999999999972e+01
5.620000000000000107e+00
1.241000000000000014e+01
5.500000000000000000e+00
8.100000000000000533e-01
1.340000000000000080e+00
-5.899999999999999689e-01
-2.953000000000000114e+01
-1.270100000000000051e+02
1.219200000000000017e+02
1.561999999999999886e+02
-4.895000000000000284e+01
-6.284000000000000341e+01
2.032000000000000028e+01
5.150000000000000355e+00
-1.317999999999999972e+01
-7.269999999999999574e+00
1.544999999999999929e+01
-1.050000000000000000e+01
-1.530000000000000071e+01
2.100000000000000089e+00
2.241000000000000014e+01
5.849999999999999645e+00
-2.287999999999999901e+01
3.078000000000000114e+01
1.084999999999999964e+01
-2.290000000000000036e+00
-1.735000000000000142e+01
1.453999999999999915e+01
2.573000000000000043e+01
-8.109999999999999432e+00
-3.954999999999999716e+01
-8.199999999999999512e-01
1.626000000000000156e+01
-1.399999999999999911e+00
-1.816000000000000014e+01
1.440000000000000036e+01
1.249000000000000021e+01
-5.429999999999999716e+00
-3.336999999999999744e+01
1.848999999999999844e+01
9.939999999999999503e+00
-4.780000000000000249e+00
-2.153000000000000114e+01
2.389999999999999858e+01
2.162000000000000099e+01
-1.689999999999999858e+01
-7.929999999999999716e+00
2.378999999999999915e+01
2.959999999999999964e+00
-2.455000000000000071e+01
-6.730000000000000426e+00
1.637999999999999901e+01
1.039000000000000057e+01
-1.783999999999999986e+01
3.981000000000000227e+01
1.660999999999999943e+01
-9.929999999999999716e+00
-2.603999999999999915e+01
1.331000000000000050e+01
2.225000000000000000e+01
-7.240000000000000213e+00
-2.091000000000000014e+01
2.496999999999999886e+01
1.130000000000000071e+01
-1.281000000000000050e+01
-9.250000000000000000e+00
1.238000000000000078e+01
9.960000000000000853e+00
-1.703999999999999915e+01
1.932000000000000028e+01
3.793999999999999773e+01
-1.567999999999999972e+01
-3.417999999999999972e+01
1.133000000000000007e+01
1.018999999999999950e+01
-4.799999999999999822e+00
-1.960000000000000142e+01
2.714000000000000057e+01
1.837999999999999901e+01
-1.190000000000000036e+01
-2.101000000000000156e+01
1.867000000000000171e+01
2.271000000000000085e+01
-6.099999999999999645e+00
-1.008999999999999986e+01
6.179999999999999716e+00
2.048000000000000043e+01
-1.500999999999999979e+01
-8.109999999999999432e+00
1.075000000000000000e+01
-1.560000000000000053e+00
1.450000000000000000e+01
-2.859999999999999876e+00
1.598000000000000043e+01
-9.509999999999999787e+00
-1.807000000000000028e+01
2.220000000000000195e+00
1.361999999999999922e+01
4.099999999999999645e+00
-2.810000000000000142e+01
1.617000000000000171e+01
1.599000000000000021e+01
-1.175999999999999979e+01
-2.257999999999999829e+01
2.423000000000000043e+01
1.199000000000000021e+01
-8.449999999999999289e+00
-2.307000000000000028e+01
1.708999999999999986e+01
-6.469999999999999751e+00
-6.267000000000000171e+01
9.356999999999999318e+01
6.029999999999999716e+01
1.446000000000000085e+01
-3.960999999999999943e+01
-4.020000000000000284e+01
1.019999999999999929e+01
-3.660000000000000142e+00
6.530000000000000249e+00
-3.160000000000000142e+01
-1.482000000000000028e+01
8.229999999999999716e+01
-1.533799999999999955e+02
1.053499999999999943e+02
9.795999999999999375e+01
6.425000000000000000e+01
-1.352999999999999936e+01
2.657999999999999829e+01
3.069999999999999929e+01
1.987999999999999901e+01
-7.398999999999999488e+01
-4.019999999999999574e+00
-1.157300000000000040e+02
-3.624000000000000199e+01
5.059000000000000341e+01
5.115999999999999659e+01
-4.370000000000000107e+00
-1.285999999999999943e+01
6.910999999999999943e+01
4.221000000000000085e+01
-1.023000000000000043e+01
-2.196000000000000085e+01
8.839999999999999858e+00
1.989999999999999991e+00
-1.427999999999999936e+01
1.175999999999999979e+01
1.763899999999999864e+02
-9.770999999999999375e+01
-1.158100000000000023e+02
1.696999999999999886e+01
2.150000000000000000e+01
-9.449999999999999289e+00
-1.692999999999999972e+01
2.091000000000000014e+01
2.417000000000000171e+01
-8.410000000000000142e+00
8.039999999999999147e+00
1.550000000000000000e+01
3.310000000000000053e+00
-3.399000000000000199e+01
-2.451999999999999957e+01
-4.860000000000000320e+00
1.033400000000000034e+02
-3.964000000000000057e+01
8.419999999999999929e+00
1.035999999999999943e+01
-1.110999999999999943e+01
-1.994000000000000128e+01
9.060000000000000497e+00
1.700000000000000122e-01
-3.642000000000000171e+01
2.123000000000000043e+01
5.432000000000000028e+01
1.105000000000000071e+01
-3.039999999999999858e+01
-1.229999999999999982e+00
2.575000000000000000e+01
-2.742000000000000171e+01
-1.118199999999999932e+02
6.322999999999999687e+01
5.789999999999999858e+01
-3.317000000000000171e+01
7.870000000000000107e+00
2.887999999999999901e+01
-1.176200000000000045e+02
1.934000000000000057e+02
1.446000000000000085e+01
-6.993000000000000682e+01
-2.966000000000000014e+01
1.097300000000000040e+02
-1.610999999999999943e+01
1.018900000000000006e+02
6.209999999999999964e+00
-1.498000000000000043e+01
8.189999999999999503e+00
2.630999999999999872e+01
-6.662999999999999545e+01
2.092999999999999972e+01
5.440000000000000391e+00
-2.117000000000000171e+01
5.000000000000000278e-02
5.120000000000000107e+00
-2.517000000000000171e+01
-3.364000000000000057e+01
2.700000000000000000e+01
1.944000000000000128e+01
5.889999999999999680e+00
-1.853999999999999915e+01
3.042999999999999972e+01
2.142000000000000171e+01
-1.980999999999999872e+01
-1.308000000000000007e+01
9.960000000000000853e+00
-4.700000000000000178e+00
-2.955999999999999872e+01
2.994999999999999929e+01
1.892000000000000171e+01
-1.751999999999999957e+01
-6.893999999999999773e+01
-6.399000000000000199e+01
3.934000000000000341e+01
7.145999999999999375e+01
-6.530000000000000249e+00
1.000999999999999979e+01
1.820200000000000102e+02
-1.646999999999999886e+01
1.141700000000000017e+02
1.841899999999999977e+02
-1.010600000000000023e+02
-2.871200000000000045e+02
7.781000000000000227e+01
1.380000000000000071e+01
-6.900000000000000000e+01
7.948999999999999488e+01
-1.924300000000000068e+02
-2.171999999999999886e+01
-5.193999999999999773e+01
1.046899999999999977e+02
-1.706500000000000057e+02
1.566100000000000136e+02
6.621999999999999886e+01
-8.404999999999999716e+01
-9.460000000000000853e+00
-5.138000000000000256e+01
6.049000000000000199e+01
-2.842999999999999972e+01
-2.309099999999999966e+02
1.910699999999999932e+02
2.541000000000000014e+01
-2.379999999999999893e+00
-1.500000000000000000e+00
-5.211999999999999744e+01
3.403000000000000114e+01
1.100000000000000000e+01
-2.230999999999999872e+01
-1.356399999999999864e+02
1.102999999999999936e+01
-1.944999999999999929e+01
3.514000000000000057e+01
-3.529999999999999805e+00
2.292999999999999972e+01
-6.540000000000000036e+00
-4.590999999999999659e+01
5.128999999999999915e+01
-2.540000000000000036e+00
3.125000000000000000e+01
-1.280000000000000027e+00
-2.105000000000000071e+01
-3.279999999999999805e+00
7.099999999999999645e-01
-3.071000000000000085e+01
5.030000000000000249e+00
-1.061999999999999922e+01
-9.801999999999999602e+01
9.957999999999999829e+01
6.209999999999999964e+00
9.767000000000000171e+01
2.185999999999999943e+01
-5.639999999999999680e+00
1.521000000000000085e+01
1.593999999999999950e+01
-1.730999999999999872e+01
7.599999999999999645e+00
7.653000000000000114e+01
2.780999999999999872e+01
4.759999999999999787e+00
-2.055000000000000071e+01
-2.310000000000000053e+00
-1.719999999999999973e+00
-5.824000000000000199e+01
5.610000000000000320e+00
7.150000000000000355e+00
-3.979999999999999982e+00
-3.557999999999999829e+01
9.975000000000000000e+01
-5.027000000000000313e+01
-4.774000000000000199e+01
-5.646000000000000085e+01
3.359999999999999876e+00
-7.780000000000000249e+00
1.859699999999999989e+02
-2.607000000000000028e+01
-2.921999999999999886e+01
-8.359999999999999432e+00
-1.527999999999999936e+01
-1.899999999999999911e+00
2.414999999999999858e+01
8.960000000000000853e+00
-2.064000000000000057e+01
-9.830000000000000071e+00
1.566999999999999993e+01
5.719999999999999751e+00
-1.238000000000000078e+01
-3.609999999999999876e+00
2.232000000000000028e+01
3.569999999999999840e+00
-2.126000000000000156e+01
2.640000000000000124e+00
-1.370000000000000107e+00
-5.864999999999999858e+01
4.990999999999999659e+01
5.886999999999999744e+01
3.660000000000000142e+01
2.359999999999999876e+00
-9.910000000000000142e+00
1.639000000000000057e+01
-1.873999999999999844e+01
-7.570000000000000284e+00
-1.764999999999999858e+01
-1.450999999999999979e+01
7.330000000000000071e+00
1.739999999999999991e+00
-4.260000000000000142e+01
4.293999999999999773e+01
2.535999999999999943e+01
3.740000000000000213e+00
-2.101000000000000156e+01
7.780000000000000249e+00
1.633999999999999986e+01
-2.810999999999999943e+01
-1.969000000000000128e+01
1.135999999999999943e+01
6.709999999999999964e+00
-1.116000000000000014e+01
-1.746000000000000085e+01
1.712999999999999901e+01
1.350000000000000000e+01
-5.370000000000000107e+00
-1.391999999999999993e+01
1.222000000000000064e+01
2.149999999999999911e+00
-1.591000000000000014e+01
-8.279999999999999361e+00
1.422000000000000064e+01
1.564000000000000057e+01
-1.660699999999999932e+02
7.435999999999999943e+01
1.673999999999999844e+01
3.089999999999999858e+00
1.270000000000000018e+00
3.560000000000000053e+00
2.999999999999999889e-01
2.128000000000000114e+01
-1.850000000000000000e+01
1.490000000000000036e+01
1.358999999999999986e+01
-4.429999999999999716e+00
-3.306000000000000227e+01
2.396999999999999886e+01
-1.796000000000000085e+01
-2.442999999999999972e+01
-9.214000000000000057e+01
9.376999999999999602e+01
-2.010999999999999943e+01
-8.246999999999999886e+01
-2.517000000000000171e+01
1.309999999999999964e+01
2.500000000000000000e+01
3.940999999999999659e+01
1.566999999999999993e+01
-2.603999999999999915e+01
-2.346000000000000085e+01
-1.790000000000000036e+00
3.471000000000000085e+01
-2.383999999999999986e+01
3.279999999999999805e+00
1.912000000000000099e+01
2.782999999999999829e+01
-1.889999999999999902e+00
-2.762999999999999901e+01
7.570000000000000284e+00
1.167999999999999972e+01
-4.269999999999999574e+00
-2.526000000000000156e+01
1.435999999999999943e+01
1.502999999999999936e+01
-4.600000000000000200e-01
-7.259999999999999787e+00
6.332000000000000028e+01
7.929999999999999716e+01
-3.997999999999999687e+01
-3.885000000000000142e+01
-4.539999999999999858e+01
-2.214000000000000057e+01
-5.110000000000000320e+00
-5.169999999999999929e+00
1.317999999999999972e+01
1.605000000000000071e+01
-3.661999999999999744e+01
7.209999999999999964e+00
3.402000000000000313e+01
9.619999999999999218e+00
-2.737000000000000099e+01
-1.239000000000000057e+01
5.320000000000000284e+00
1.461999999999999922e+01
-5.810999999999999943e+01
1.486999999999999922e+01
8.609999999999999432e+00
1.334999999999999964e+01
-2.257000000000000028e+01
1.949999999999999956e+00
-1.396000000000000085e+01
5.019999999999999574e+00
-1.994000000000000128e+01
3.192000000000000171e+01
2.553000000000000114e+01
-3.615999999999999659e+01
-5.167000000000000171e+01
-2.923999999999999844e+01
1.274000000000000021e+01
1.992999999999999972e+01
3.125000000000000000e+01
-4.599999999999999645e+00
5.080000000000000071e+00
-8.849999999999999645e+00
-1.632000000000000028e+01
-2.094999999999999929e+01
9.900000000000000355e+00
-3.560000000000000053e+00
2.157000000000000028e+01
-2.430999999999999872e+01
6.675000000000000000e+01
-8.234999999999999432e+01
2.716000000000000014e+01
1.050999999999999979e+01
1.498000000000000043e+01
1.935999999999999943e+01
3.870000000000000107e+00
9.169999999999999929e+00
-3.200999999999999801e+01
-2.360999999999999943e+01
7.068000000000000682e+01
2.426000000000000156e+01
-2.223999999999999844e+01
2.069000000000000128e+01
-8.900000000000000000e+01
5.168999999999999773e+01
3.640999999999999659e+01
4.257999999999999829e+01
-2.755000000000000071e+01
-4.832000000000000028e+01
-3.542000000000000171e+01
3.321999999999999886e+01
3.457999999999999829e+01
-8.000000000000000000e+00
5.121999999999999886e+01
1.942000000000000171e+01
3.367000000000000171e+01
-5.245000000000000284e+01
3.680000000000000160e+00
4.206000000000000227e+01
-2.146000000000000085e+01
-5.289000000000000057e+01
-1.071899999999999977e+02
-1.803300000000000125e+02
2.975000000000000000e+01
3.298899999999999864e+02
-1.548199999999999932e+02
-9.976999999999999602e+01
-1.230300000000000011e+02
6.531999999999999318e+01
1.034399999999999977e+02
-9.351000000000000512e+01
4.506000000000000227e+01
-2.983799999999999955e+02
-7.570000000000000284e+00
1.915800000000000125e+02
8.534000000000000341e+01
-8.060000000000000497e+00
-3.660000000000000142e+00
4.299999999999999933e-01
3.310000000000000053e+00
1.850000000000000089e+00
3.663000000000000256e+01
5.129999999999999716e+01
9.475000000000000000e+01
1.712999999999999901e+01
-6.959999999999999964e+00
-5.928999999999999915e+01
6.660000000000000142e+00
-7.451999999999999602e+01
-1.935800000000000125e+02
1.975500000000000114e+02
5.954999999999999716e+01
1.497199999999999989e+02
2.724800000000000182e+02
-1.980500000000000114e+02
-1.119000000000000057e+02
-1.998899999999999864e+02
-1.117999999999999972e+01
3.205600000000000023e+02
2.702200000000000273e+02
-2.068400000000000034e+02
-1.973300000000000125e+02
-1.729499999999999886e+02
2.681800000000000068e+02
2.481800000000000068e+02
-6.088000000000000256e+01
-3.806700000000000159e+02
-8.106999999999999318e+01
2.259099999999999966e+02
2.451000000000000156e+01
-5.952000000000000313e+01
-4.984000000000000341e+01
-4.146000000000000085e+01
2.910999999999999943e+01
5.117000000000000171e+01
-5.103000000000000114e+01
-1.151500000000000057e+02
2.001000000000000156e+01
4.059000000000000341e+01
-2.890000000000000124e+00
-1.347000000000000064e+01
2.718199999999999932e+02
-8.043999999999999773e+01
-4.596299999999999955e+02
1.921999999999999886e+01
1.148100000000000023e+02
2.333600000000000136e+02
1.349699999999999989e+02
-4.407400000000000091e+02
1.002399999999999949e+02
2.086699999999999875e+02
3.882999999999999829e+01
-3.397200000000000273e+02
-1.310000000000000000e+02
2.872699999999999818e+02
1.856200000000000045e+02
5.184800000000000182e+02
-2.995500000000000114e+02
-1.206200000000000045e+02
-6.548000000000000398e+01
2.910999999999999943e+01
4.753999999999999915e+01
-1.183999999999999986e+01
-1.220199999999999960e+02
6.962999999999999545e+01
9.870999999999999375e+01
6.209000000000000341e+01
-8.243999999999999773e+01
1.773000000000000043e+01
-3.121999999999999886e+01
-1.125699999999999932e+02
-2.419300000000000068e+02
4.529999999999999716e+01
1.612700000000000102e+02
1.495999999999999943e+02
1.451599999999999966e+02
-1.744799999999999898e+02
-2.200900000000000034e+02
1.509000000000000057e+02
2.377599999999999909e+02
6.289999999999999858e+01
-4.609000000000000341e+01
-7.212000000000000455e+01
2.999999999999999889e-01
2.485000000000000142e+01
-2.096999999999999886e+01
-7.707999999999999829e+01
3.350000000000000089e+00
-1.331699999999999875e+02
-2.480000000000000071e+01
1.368700000000000045e+02
1.844399999999999977e+02
-3.067999999999999972e+01
-1.286500000000000057e+02
-1.011299999999999955e+02
-7.056999999999999318e+01
1.660000000000000142e+01
7.595000000000000284e+01
8.612999999999999545e+01
5.971999999999999886e+01
1.828000000000000114e+01
-1.710999999999999943e+01
8.381000000000000227e+01
1.841100000000000136e+02
-1.419799999999999898e+02
-4.170299999999999727e+02
1.667400000000000091e+02
1.475300000000000011e+02
-5.470000000000000284e+01
6.487999999999999545e+01
1.900000000000000000e+01
3.439999999999999947e+00
-9.079999999999999716e+01
-1.372400000000000091e+02
4.157000000000000028e+01
2.640000000000000124e+00
3.322999999999999687e+01
3.314000000000000057e+01
1.480000000000000071e+01
-1.469999999999999929e+01
-3.964999999999999858e+01
5.449000000000000199e+01
1.096800000000000068e+02
1.313899999999999864e+02
-3.821000000000000085e+01
4.585000000000000142e+01
-6.917000000000000171e+01
-1.122199999999999989e+02
-3.335899999999999750e+02
2.060999999999999943e+02
1.024399999999999977e+02
1.593700000000000045e+02
-6.209999999999999964e+00
-7.129999999999999893e+00
-4.086499999999999773e+02
1.420099999999999909e+02
2.482700000000000102e+02
-2.406399999999999864e+02
8.848000000000000398e+01
1.778000000000000114e+01
4.222999999999999687e+01
2.942000000000000171e+01
7.190000000000000391e+00
-3.510000000000000142e+01
3.080000000000000071e+01
2.110000000000000142e+01
-1.646000000000000085e+01
-4.042000000000000171e+01
1.962000000000000099e+01
6.915000000000000568e+01
5.545000000000000284e+01
2.610999999999999943e+01
7.675000000000000000e+01
-1.065799999999999983e+02
-1.413300000000000125e+02
-6.779999999999999716e+01
-2.191000000000000014e+01
8.328000000000000114e+01
7.915999999999999659e+01
-1.563899999999999864e+02
-3.471399999999999864e+02
3.894200000000000159e+02
1.803799999999999955e+02
7.823000000000000398e+01
7.139999999999999680e+00
-5.650000000000000000e+01
-7.700000000000000178e-01
9.904999999999999716e+01
1.719300000000000068e+02
-7.623999999999999488e+01
2.812999999999999901e+01
-1.843499999999999943e+02
-1.815099999999999909e+02
1.060199999999999960e+02
1.454000000000000057e+02
2.244000000000000128e+01
1.830000000000000071e+01
4.822999999999999687e+01
1.031400000000000006e+02
-1.136800000000000068e+02
-3.048799999999999955e+02
4.702000000000000313e+01
1.028100000000000023e+02
4.346000000000000085e+01
-6.762999999999999545e+01
-4.224000000000000199e+01
-1.173000000000000043e+01
2.218899999999999864e+02
1.591599999999999966e+02
-1.200100000000000051e+02
1.119999999999999929e+01
-2.889999999999999858e+01
8.931999999999999318e+01
1.771000000000000085e+01
-2.987999999999999901e+01
2.451000000000000156e+01
-2.421000000000000085e+01
-2.075000000000000000e+01
-1.068499999999999943e+02
9.415000000000000568e+01
3.433500000000000227e+02
-7.170000000000000284e+01
-4.457799999999999727e+02
-2.130000000000000071e+01
1.354300000000000068e+02
9.962999999999999545e+01
1.687000000000000099e+01
2.485000000000000142e+01
5.007000000000000028e+01
-1.717000000000000171e+01
-6.247999999999999687e+01
-7.900000000000000355e-01
3.001000000000000156e+01
-5.379999999999999893e+00
-4.697999999999999687e+01
3.112999999999999901e+01
1.225900000000000034e+02
1.580800000000000125e+02
-1.855200000000000102e+02
-8.537999999999999545e+01
-1.630000000000000071e+01
3.511999999999999744e+01
-4.278000000000000114e+01
-1.941899999999999977e+02
-1.425800000000000125e+02
-1.202999999999999936e+01
-4.645000000000000284e+01
2.094199999999999875e+02
-1.485999999999999943e+01
-4.671999999999999886e+01
2.841000000000000014e+01
-5.050999999999999801e+01
1.342299999999999898e+02
4.600999999999999801e+01
2.282999999999999829e+01
1.528600000000000136e+02
-1.942100000000000080e+02
-3.627900000000000205e+02
1.386500000000000057e+02
1.597400000000000091e+02
3.309000000000000341e+01
4.160000000000000142e+01
-1.516999999999999886e+02
-1.408000000000000114e+02
1.143599999999999994e+02
-1.745099999999999909e+02
3.064000000000000057e+01
1.486200000000000045e+02
-1.959999999999999964e+00
2.230000000000000071e+01
-7.621999999999999886e+01
3.346000000000000085e+01
-2.971000000000000085e+01
1.488000000000000078e+01
-6.873000000000000398e+01
4.502000000000000313e+01
8.130000000000000782e+00
2.978000000000000114e+01
1.525999999999999979e+01
-8.919999999999999929e+00
8.460000000000000853e+00
3.189999999999999858e+01
-5.669999999999999929e+00
-1.912999999999999901e+01
1.040900000000000034e+02
5.267999999999999972e+01
-1.265400000000000063e+02
-9.543999999999999773e+01
1.321000000000000085e+01
4.721000000000000085e+01
3.860999999999999943e+01
7.345000000000000284e+01
5.096000000000000085e+01
-1.441599999999999966e+02
-7.343999999999999773e+01
-1.446699999999999875e+02
7.471999999999999886e+01
3.053000000000000114e+01
1.120000000000000107e+00
6.459999999999999964e+00
3.879999999999999716e+01
2.003999999999999915e+01
-1.306000000000000050e+01
3.950000000000000178e+00
1.446000000000000085e+01
1.959999999999999964e+00
-3.857999999999999829e+01
3.160000000000000142e+01
2.587000000000000099e+01
-3.069999999999999840e+00
-1.810000000000000142e+01
3.178000000000000114e+01
3.390999999999999659e+01
2.932999999999999829e+01
-1.768000000000000114e+02
8.007999999999999829e+01
4.182999999999999829e+01
5.190000000000000391e+00
-3.971000000000000085e+01
3.588000000000000114e+02
3.267999999999999972e+01
-2.771499999999999773e+02
-3.044399999999999977e+02
2.875299999999999727e+02
1.147000000000000028e+02
-3.170799999999999841e+02
2.601800000000000068e+02
5.145000000000000284e+01
-2.583999999999999986e+01
-6.049999999999999822e+00
4.575000000000000000e+01
-2.567999999999999972e+01
7.929999999999999716e+00
-6.634999999999999432e+01
1.667999999999999972e+01
-2.800000000000000266e-01
-1.017000000000000028e+02
3.717000000000000171e+01
3.357999999999999829e+01
-5.929999999999999716e+01
-4.762099999999999795e+02
1.218599999999999994e+02
2.324300000000000068e+02
1.202500000000000000e+02
-3.447999999999999687e+01
1.434099999999999966e+02
-7.798999999999999488e+01
-2.222500000000000000e+02
6.219999999999999751e+00
7.073999999999999488e+01
6.229999999999999716e+01
7.289000000000000057e+01
1.911500000000000057e+02
-8.315000000000000568e+01
-1.002099999999999937e+02
-6.053999999999999915e+01
-2.060000000000000053e+00
-7.169999999999999929e+00
-1.385500000000000114e+02
-2.037000000000000099e+01
1.063199999999999932e+02
1.281200000000000045e+02
1.527400000000000091e+02
1.389600000000000080e+02
-2.080300000000000011e+02
-2.027100000000000080e+02
-3.457599999999999909e+02
1.245900000000000034e+02
1.610000000000000000e+02
1.325399999999999920e+02
2.183899999999999864e+02
-2.678000000000000114e+01
-2.946499999999999773e+02
-3.212300000000000182e+02
1.103599999999999994e+02
8.784000000000000341e+01
9.357999999999999829e+01
-5.367000000000000171e+01
-5.254999999999999716e+01
-1.325200000000000102e+02
1.218100000000000023e+02
2.921000000000000085e+01
-2.609999999999999876e+00
6.776000000000000512e+01
1.032800000000000011e+02
-1.734900000000000091e+02
-6.618000000000000682e+01
8.248000000000000398e+01
-9.568000000000000682e+01
4.284000000000000341e+01
-4.049999999999999822e+00
-2.160999999999999943e+01
-6.284000000000000341e+01
3.026000000000000156e+01
5.581000000000000227e+01
6.795999999999999375e+01
-4.761999999999999744e+01
-4.760000000000000142e+01
7.529999999999999716e+01
9.628000000000000114e+01
-2.960999999999999943e+01
-3.225799999999999841e+02
7.046999999999999886e+01
-2.576899999999999977e+02
-5.897799999999999727e+02
2.795600000000000023e+02
2.966600000000000250e+02
4.611999999999999744e+01
6.192999999999999972e+01
-1.125499999999999972e+02
5.440000000000000391e+00
-4.030000000000000249e+00
3.697999999999999687e+01
6.200000000000000000e+01
8.251999999999999602e+01
-2.935999999999999943e+01
1.034699999999999989e+02
-2.397199999999999989e+02
1.042999999999999972e+01
2.151899999999999977e+02
3.742000000000000171e+01
1.844799999999999898e+02
3.343999999999999773e+01
-1.969499999999999886e+02
1.009099999999999966e+02
-2.703999999999999915e+01
1.067800000000000011e+02
1.840000000000000000e+02
-9.087000000000000455e+01
-1.527199999999999989e+02
7.787000000000000455e+01
1.112099999999999937e+02
5.719999999999999751e+00
3.253999999999999915e+01
-1.616399999999999864e+02
-2.121999999999999886e+01
-2.641000000000000014e+01
-7.142000000000000171e+01
-6.925000000000000000e+01
-6.537999999999999545e+01
3.845699999999999932e+02
-1.721500000000000057e+02
-6.726999999999999602e+01
-1.692999999999999972e+01
-1.347400000000000091e+02
2.394000000000000128e+01
-5.607999999999999829e+01
-2.589000000000000057e+01
-1.232000000000000028e+01
-7.690000000000000391e+00
-4.075999999999999801e+01
1.391000000000000014e+01
2.700000000000000178e-01
-5.209000000000000341e+01
-2.116000000000000014e+01
-5.480000000000000426e+00
-1.016999999999999993e+01
-3.728000000000000114e+01
2.532000000000000028e+01
3.442000000000000171e+01
2.410999999999999943e+01
-4.154999999999999716e+01
-1.634399999999999977e+02
5.171000000000000085e+01
2.999999999999999889e-01
5.521000000000000085e+01
-3.882999999999999829e+01
-2.085000000000000142e+01
-9.689999999999999503e+00
6.157999999999999829e+01
-6.456999999999999318e+01
1.266000000000000014e+01
-2.982000000000000028e+01
2.725000000000000000e+01
-1.653000000000000114e+01
4.259999999999999787e+00
-2.212999999999999901e+01
1.466000000000000014e+01
-7.000000000000000666e-02
2.879999999999999893e+00
5.528000000000000114e+01
5.017999999999999972e+01
-7.276999999999999602e+01
-3.114900000000000091e+02
1.328300000000000125e+02
4.185000000000000142e+01
1.491999999999999993e+01
8.757999999999999829e+01
-1.951000000000000156e+01
-1.873999999999999844e+01
1.183999999999999986e+01
2.032000000000000028e+01
-1.769000000000000128e+01
5.672999999999999687e+01
-7.076000000000000512e+01
1.693000000000000114e+02
-7.298000000000000398e+01
-4.515999999999999659e+01
4.297999999999999687e+01
1.061299999999999955e+02
-9.968000000000000682e+01
-2.959900000000000091e+02
1.805099999999999909e+02
7.965000000000000568e+01
5.940000000000000391e+00
2.500000000000000000e-01
-7.969999999999999751e+00
3.119000000000000128e+01
-2.492000000000000171e+01
-2.462999999999999901e+01
6.601000000000000512e+01
-9.420000000000000284e+01
-2.835999999999999943e+01
-2.205000000000000071e+01
4.582000000000000028e+01
4.161999999999999744e+01
7.030000000000000249e+00
-2.660000000000000142e+00
-1.486999999999999922e+01
4.190999999999999659e+01
3.060000000000000142e+01
1.382000000000000028e+01
-7.135999999999999943e+01
-6.396999999999999886e+01
1.100900000000000034e+02
-8.018999999999999773e+01
4.517000000000000171e+01
3.080000000000000071e+00
-2.776999999999999957e+01
6.160000000000000142e+01
-3.342999999999999972e+01
-1.237099999999999937e+02
4.396999999999999886e+01
1.080499999999999972e+02
4.471000000000000085e+01
-4.352000000000000313e+01
-6.390999999999999659e+01
1.132600000000000051e+02
-1.858999999999999986e+01
-1.819399999999999977e+02
2.570400000000000205e+02
-1.530999999999999943e+02
-7.293000000000000682e+01
1.400000000000000133e-01
4.602000000000000313e+01
2.673000000000000043e+01
-2.094999999999999929e+01
-2.958999999999999986e+01
3.399999999999999911e+00
-1.123199999999999932e+02
1.061599999999999966e+02
5.859000000000000341e+01
-4.209000000000000341e+01
-2.022199999999999989e+02
-5.500000000000000000e+00
1.144099999999999966e+02
-5.120000000000000284e+01
-8.762999999999999545e+01
4.667000000000000171e+01
1.198900000000000006e+02
1.610999999999999943e+01
-7.520000000000000284e+01
-3.257000000000000028e+01
-1.206899999999999977e+02
-1.493999999999999950e+01
1.918100000000000023e+02
9.685999999999999943e+01
-3.299000000000000199e+01
-1.343700000000000045e+02
-1.067999999999999972e+01
2.986399999999999864e+02
-1.922700000000000102e+02
-9.170000000000000284e+01
5.509999999999999787e+00
-6.882999999999999829e+01
1.244699999999999989e+02
2.398100000000000023e+02
1.495099999999999909e+02
-1.107000000000000028e+02
-2.595899999999999750e+02
1.361699999999999875e+02
2.817999999999999972e+01
-4.660000000000000142e+01
1.671999999999999886e+01
2.923999999999999844e+01
2.601999999999999957e+01
-3.996999999999999886e+01
3.029999999999999805e+00
4.092000000000000171e+01
-5.043999999999999773e+01
-3.175000000000000000e+01
1.470200000000000102e+02
4.892999999999999972e+01
-1.435999999999999943e+02
-7.526000000000000512e+01
2.046800000000000068e+02
-4.917000000000000171e+01
-2.404900000000000091e+02
7.745999999999999375e+01
1.642000000000000171e+01
2.667000000000000171e+01
-1.540000000000000036e+00
-4.459999999999999964e+00
-3.917000000000000171e+01
-1.077500000000000000e+02
1.371699999999999875e+02
6.470999999999999375e+01
-1.326999999999999957e+01
-5.178000000000000114e+01
-6.399000000000000199e+01
1.288499999999999943e+02
8.245999999999999375e+01
-4.134000000000000341e+01
-2.089199999999999875e+02
-6.682999999999999829e+01
2.023100000000000023e+02
-1.819000000000000128e+01
-8.226000000000000512e+01
2.496000000000000085e+01
-8.350000000000000000e+01
4.360000000000000142e+01
1.373300000000000125e+02
1.984000000000000057e+02
-1.225799999999999983e+02
-1.316000000000000014e+01
1.862000000000000099e+01
1.110999999999999943e+01
-4.990000000000000213e+00
1.151200000000000045e+02
-6.240000000000000213e+00
-1.035900000000000034e+02
-1.727800000000000011e+02
5.660000000000000142e+00
1.373700000000000045e+02
-7.981999999999999318e+01
-5.664000000000000057e+01
3.934000000000000341e+01
2.151000000000000156e+01
-1.035900000000000034e+02
1.134099999999999966e+02
5.888000000000000256e+01
2.555000000000000071e+01
-6.695000000000000284e+01
7.106000000000000227e+01
1.428000000000000114e+02
-1.351999999999999886e+02
-4.799000000000000199e+01
1.546000000000000085e+01
-3.030999999999999872e+01
-8.995999999999999375e+01
1.314799999999999898e+02
1.310999999999999943e+01
-1.186899999999999977e+02
-8.490000000000000213e+00
-5.570000000000000284e+00
-5.288000000000000256e+01
-1.143100000000000023e+02
3.954999999999999716e+01
-1.460999999999999943e+01
-1.237999999999999972e+02
2.751000000000000156e+01
7.685999999999999943e+01
1.747800000000000011e+02
-2.844000000000000128e+01
-6.088000000000000256e+01
6.328999999999999915e+01
5.407000000000000028e+01
1.560000000000000053e+00
4.657999999999999829e+01
2.372400000000000091e+02
-1.345000000000000000e+02
-2.304699999999999989e+02
1.119800000000000040e+02
-1.464000000000000057e+01
-4.607999999999999829e+01
4.082000000000000028e+01
1.556899999999999977e+02
1.753999999999999915e+01
-7.975000000000000000e+01
-1.049099999999999966e+02
1.031500000000000057e+02
-9.435999999999999943e+01
2.448999999999999844e+01
-5.200999999999999801e+01
-3.198000000000000043e+01
7.049999999999999822e+00
-4.782000000000000028e+01
9.509999999999999787e+00
-1.735000000000000142e+01
-1.095199999999999960e+02
1.267300000000000040e+02
3.990999999999999659e+01
-8.876999999999999602e+01
-1.240300000000000011e+02
7.260999999999999943e+01
1.202399999999999949e+02
-1.613799999999999955e+02
-1.485900000000000034e+02
2.866899999999999977e+02
-2.350000000000000089e+00
-2.208499999999999943e+02
1.778100000000000023e+02
1.331899999999999977e+02
-1.267300000000000040e+02
1.438799999999999955e+02
4.580000000000000071e+00
9.446999999999999886e+01
-1.900800000000000125e+02
-1.719300000000000068e+02
1.460500000000000114e+02
1.571299999999999955e+02
-1.333899999999999864e+02
2.737999999999999901e+01
-2.894000000000000128e+01
-1.086400000000000006e+02
7.026000000000000512e+01
-1.716000000000000014e+01
-4.432999999999999829e+01
-6.357999999999999829e+01
-9.123000000000000398e+01
-5.290999999999999659e+01
1.878700000000000045e+02
-2.015999999999999943e+02
4.634000000000000341e+01
2.937300000000000182e+02
-1.556699999999999875e+02
-6.465999999999999659e+01
-5.579999999999999716e+01
-2.166599999999999966e+02
6.311999999999999744e+01
-3.284000000000000341e+01
6.818999999999999773e+01
-6.643000000000000682e+01
1.369199999999999875e+02
5.446000000000000085e+01
3.835000000000000142e+01
-6.795000000000000284e+01
-1.849199999999999875e+02
2.848299999999999841e+02
4.581000000000000227e+01
-6.729999999999999716e+01
-5.064999999999999858e+01
-8.237999999999999545e+01
-3.034900000000000091e+02
2.056399999999999864e+02
1.662100000000000080e+02
8.167000000000000171e+01
1.091200000000000045e+02
-4.238000000000000256e+01
-1.785600000000000023e+02
1.213100000000000023e+02
-5.971999999999999886e+01
-1.105400000000000063e+02
-4.292999999999999972e+01
-1.191000000000000014e+01
2.151999999999999957e+01
-2.848000000000000043e+01
-7.556000000000000227e+01
-5.603000000000000114e+01
-9.146999999999999886e+01
1.103700000000000045e+02
1.139000000000000057e+01
1.072399999999999949e+02
3.470000000000000195e+00
-7.760999999999999943e+01
-9.070000000000000284e+00
3.986999999999999744e+01
-6.628000000000000114e+01
-8.349999999999999645e+00
2.921000000000000085e+01
-3.378999999999999915e+01
-2.880000000000000071e+01
-4.956000000000000227e+01
1.927100000000000080e+02
-3.173000000000000043e+01
-9.845999999999999375e+01
5.685000000000000142e+01
1.179300000000000068e+02
-1.901000000000000156e+01
-1.519099999999999966e+02
-3.003000000000000114e+01
5.242000000000000171e+01
5.030000000000000249e+00
2.130999999999999872e+01
3.607000000000000028e+01
6.589999999999999858e+00
-1.153999999999999915e+01
9.873999999999999488e+01
-1.904799999999999898e+02
7.475000000000000000e+01
-4.085999999999999943e+01
-9.973999999999999488e+01
9.612000000000000455e+01
-5.450999999999999801e+01
-1.751999999999999957e+01
-3.620000000000000107e+00
5.689000000000000057e+01
-6.359000000000000341e+01
-1.072800000000000011e+02
-6.184000000000000341e+01
5.390999999999999659e+01
1.371500000000000057e+02
-8.551999999999999602e+01
-5.492999999999999972e+01
-3.169999999999999929e+01
9.026000000000000512e+01
-7.948000000000000398e+01
-2.369300000000000068e+02
1.324600000000000080e+02
1.106800000000000068e+02
6.371999999999999886e+01
5.664000000000000057e+01
5.189999999999999858e+01
-4.579999999999999716e+01
-1.229200000000000017e+02
-2.917099999999999795e+02
9.970999999999999375e+01
8.103000000000000114e+01
5.054999999999999716e+01
-5.500000000000000000e+00
-2.250000000000000000e+01
-4.959000000000000341e+01
-7.023999999999999488e+01
-5.974000000000000199e+01
-9.089999999999999858e+00
-1.422899999999999920e+02
-8.818000000000000682e+01
1.785600000000000023e+02
2.189000000000000057e+01
9.565000000000000568e+01
-2.717000000000000171e+01
-1.900000000000000000e+01
5.289000000000000057e+01
-1.086700000000000017e+02
2.003999999999999915e+01
4.139999999999999858e+01
9.998000000000000398e+01
1.153999999999999915e+01
-9.295999999999999375e+01
8.787000000000000455e+01
-8.279000000000000625e+01
-1.584399999999999977e+02
5.259000000000000341e+01
8.459999999999999432e+01
6.598000000000000398e+01
-7.950000000000000178e+00
3.959999999999999964e+00
-4.653000000000000114e+01
-1.561999999999999922e+01
5.557000000000000028e+01
5.075000000000000000e+01
2.021000000000000085e+01
-8.040000000000000568e+01
9.273999999999999488e+01
-1.976000000000000156e+01
-4.410999999999999943e+01
1.123799999999999955e+02
-6.523999999999999488e+01
7.500000000000000000e+01
1.080000000000000071e+01
3.722999999999999687e+01
5.479999999999999716e+01
-4.634000000000000341e+01
3.196999999999999886e+01
-4.067000000000000171e+01
-3.209000000000000341e+01
1.136999999999999922e+01
-7.976999999999999602e+01
4.290000000000000036e+00
1.566999999999999993e+01
-8.965999999999999659e+01
2.285999999999999943e+01
5.034000000000000341e+01
-1.196899999999999977e+02
4.986999999999999744e+01
3.568999999999999773e+01
2.869000000000000128e+01
-7.278000000000000114e+01
-6.620000000000000107e+00
5.019999999999999574e+00
-9.099999999999999645e+00
-5.028999999999999915e+01
4.650000000000000000e+01
-6.079999999999999716e+01
4.449000000000000199e+01
9.278000000000000114e+01
-5.530000000000000249e+00
-1.009099999999999966e+02
-3.461999999999999744e+01
-8.921999999999999886e+01
1.739600000000000080e+02
4.743999999999999773e+01
-2.710999999999999943e+01
1.169999999999999929e+00
5.346000000000000085e+01
-1.198000000000000043e+01
1.021599999999999966e+02
7.067000000000000171e+01
-2.310000000000000053e+00
-5.989000000000000057e+01
-6.860000000000000320e+00
5.089999999999999858e+00
2.375000000000000000e+01
-5.592999999999999972e+01
5.879999999999999893e+00
4.564999999999999858e+01
-1.780999999999999872e+01
3.545000000000000284e+01
-4.768999999999999773e+01
-6.203000000000000114e+01
-2.719999999999999929e+01
3.675000000000000000e+01
4.690999999999999659e+01
-2.300000000000000100e-01
-3.817999999999999972e+01
2.175000000000000000e+01
-1.267999999999999972e+01
1.642000000000000171e+01
-2.428000000000000114e+01
3.767000000000000171e+01
4.917000000000000171e+01
5.009999999999999787e+00
-9.104000000000000625e+01
2.792000000000000171e+01
1.406000000000000050e+01
-3.486999999999999744e+01
1.676000000000000156e+01
2.821999999999999886e+01
5.000000000000000000e+00
-1.592999999999999972e+01
1.926000000000000156e+01
8.289999999999999147e+00
-5.253000000000000114e+01
-3.094999999999999929e+01
6.230000000000000426e+00
9.279999999999999361e+00
-1.174800000000000040e+02
4.506000000000000227e+01
9.962000000000000455e+01
-2.250000000000000000e+00
-1.178999999999999915e+01
-5.378999999999999915e+01
-4.154999999999999716e+01
-7.730000000000000426e+00
3.832000000000000028e+01
7.853000000000000114e+01
5.168999999999999773e+01
-3.790999999999999659e+01
-5.650999999999999801e+01
-5.288000000000000256e+01
3.004700000000000273e+02
7.585999999999999943e+01
-1.097800000000000011e+02
-2.322800000000000011e+02
-4.099999999999999645e+00
9.993000000000000682e+01
3.325999999999999801e+01
-3.934000000000000341e+01
8.198000000000000398e+01
-4.332999999999999829e+01
3.531000000000000227e+01
1.330000000000000071e+00
-8.181999999999999318e+01
6.548999999999999488e+01
-2.052700000000000102e+02
2.054600000000000080e+02
-7.360999999999999943e+01
-7.004000000000000625e+01
-5.339999999999999858e+01
1.333400000000000034e+02
7.614000000000000057e+01
-1.286200000000000045e+02
7.618000000000000682e+01
-1.810000000000000053e+00
1.328300000000000125e+02
-1.152600000000000051e+02
-9.045000000000000284e+01
-5.953000000000000114e+01
