1.587556854000000000e+09
-2.999999999999999889e-02
5.059999999999999609e+00
1.791000000000000014e+01
7.934000000000000341e+01
2.282500000000000000e+02
-4.865000000000000000e+02
-5.900000000000000355e+00
1.561500000000000057e+02
4.678000000000000114e+01
4.049999999999999822e+00
1.199999999999999956e-01
6.800000000000000488e-01
2.279999999999999805e+00
9.730000000000000426e+00
7.919999999999999929e+00
-4.139000000000000057e+01
8.120999999999999375e+01
-4.977000000000000313e+01
1.036700000000000017e+02
5.210999999999999943e+01
-5.597999999999999687e+01
-2.436899999999999977e+02
1.413300000000000125e+02
-1.910000000000000000e+02
-3.482999999999999829e+01
1.387800000000000011e+02
-5.200999999999999801e+01
1.779699999999999989e+02
-1.022199999999999989e+02
-5.121000000000000085e+01
1.772500000000000000e+02
4.221999999999999886e+01
-4.368999999999999773e+01
5.919999999999999929e+00
-1.712999999999999901e+01
8.595000000000000284e+01
-2.344499999999999886e+02
2.658999999999999986e+01
-1.579699999999999989e+02
6.264000000000000057e+01
1.098000000000000043e+01
1.118599999999999994e+02
7.179000000000000625e+01
7.218000000000000682e+01
-1.431299999999999955e+02
-6.707999999999999829e+01
6.200000000000000178e+00
6.956000000000000227e+01
1.442599999999999909e+02
-3.224300000000000068e+02
1.035300000000000011e+02
2.450000000000000000e+01
-1.421500000000000057e+02
1.678100000000000023e+02
2.594200000000000159e+02
8.539000000000000057e+01
8.703000000000000114e+01
-3.245699999999999932e+02
-1.114000000000000057e+02
-9.831999999999999318e+01
3.173999999999999844e+01
1.309999999999999964e+01
-3.721999999999999886e+01
8.993000000000000682e+01
1.190199999999999960e+02
2.476999999999999957e+01
1.417700000000000102e+02
-1.767100000000000080e+02
5.057999999999999829e+01
-6.990000000000000213e+00
2.455999999999999872e+01
-1.045000000000000000e+02
-2.774200000000000159e+02
3.119999999999999929e+01
3.939499999999999886e+02
9.487999999999999545e+01
1.933000000000000114e+02
-1.221200000000000045e+02
-3.465999999999999659e+01
-1.991100000000000136e+02
-2.273300000000000125e+02
-1.698499999999999943e+02
4.975999999999999801e+01
3.004399999999999977e+02
-2.263000000000000114e+02
8.287000000000000455e+01
-1.496699999999999875e+02
1.501800000000000068e+02
-1.017800000000000011e+02
4.240999999999999659e+01
-5.352000000000000313e+01
8.417000000000000171e+01
-8.429999999999999716e+01
1.130699999999999932e+02
7.351000000000000512e+01
-5.703000000000000114e+01
-8.970000000000000639e+00
3.614999999999999858e+01
1.055900000000000034e+02
3.950999999999999801e+01
6.335999999999999943e+01
5.660000000000000142e+00
1.210900000000000034e+02
-1.310099999999999909e+02
-2.817999999999999972e+01
1.248400000000000034e+02
-2.237899999999999920e+02
-2.923199999999999932e+02
3.302900000000000205e+02
1.035900000000000034e+02
1.366999999999999993e+01
-3.407000000000000028e+01
-4.696000000000000085e+01
-1.016800000000000068e+02
-3.621999999999999886e+01
-1.835000000000000142e+01
-1.453999999999999915e+01
-6.238000000000000256e+01
1.298000000000000114e+02
8.593000000000000682e+01
4.139000000000000057e+01
-6.845000000000000284e+01
-4.282000000000000028e+01
4.967999999999999972e+01
5.285999999999999943e+01
3.522999999999999687e+01
-7.539000000000000057e+01
1.473199999999999932e+02
-7.851999999999999602e+01
1.219999999999999929e+01
1.160900000000000034e+02
-1.241899999999999977e+02
4.057900000000000205e+02
2.309900000000000091e+02
-6.024000000000000199e+01
-7.035700000000000500e+02
1.172099999999999937e+02
-2.403199999999999932e+02
5.007999999999999829e+01
1.444199999999999875e+02
-5.193999999999999773e+01
-5.290000000000000036e+00
4.018600000000000136e+02
-7.865999999999999659e+01
-2.577300000000000182e+02
1.033599999999999994e+02
-1.683999999999999986e+01
1.424799999999999898e+02
6.154999999999999716e+01
-8.570000000000000284e+01
5.468999999999999773e+01
-3.282000000000000028e+01
-2.450600000000000023e+02
4.996999999999999886e+01
6.460999999999999943e+01
-6.095000000000000284e+01
-7.929999999999999716e+01
5.257000000000000028e+01
2.467299999999999898e+02
2.137000000000000099e+01
-1.456999999999999886e+02
1.038400000000000034e+02
3.106899999999999977e+02
-4.975000000000000000e+01
-3.862900000000000205e+02
-4.274700000000000273e+02
3.779100000000000250e+02
1.404000000000000057e+02
-1.411999999999999922e+01
-2.442400000000000091e+02
-1.782999999999999829e+01
8.843999999999999773e+01
1.600800000000000125e+02
3.475999999999999801e+01
-9.010999999999999943e+01
-1.033000000000000007e+01
9.615999999999999659e+01
-7.360000000000000320e+00
5.610000000000000320e+00
-1.091000000000000014e+01
9.230000000000000426e+00
6.059999999999999609e+00
6.692000000000000171e+01
2.166800000000000068e+02
6.728000000000000114e+01
-1.983799999999999955e+02
-7.837899999999999636e+02
-1.983199999999999932e+02
2.217599999999999909e+02
4.336600000000000250e+02
-1.166500000000000057e+02
3.349700000000000273e+02
-3.919999999999999929e+00
-1.983100000000000023e+02
8.118999999999999773e+01
-4.035000000000000142e+01
-4.006399999999999864e+02
2.263400000000000034e+02
1.452599999999999909e+02
-2.376899999999999977e+02
-4.842999999999999972e+01
3.989000000000000057e+01
-3.026000000000000156e+01
2.636399999999999864e+02
-6.670000000000000284e+01
-1.243299999999999983e+02
-1.305200000000000102e+02
-1.120900000000000034e+02
1.483000000000000007e+01
1.303600000000000136e+02
-1.274500000000000028e+02
1.049899999999999949e+02
-3.162000000000000099e+01
6.443999999999999773e+01
-4.114000000000000057e+01
-1.568700000000000045e+02
2.247500000000000000e+02
7.609000000000000341e+01
-3.452000000000000313e+01
-4.917999999999999972e+01
-5.339999999999999858e+00
1.092399999999999949e+02
-9.087000000000000455e+01
-9.320000000000000284e+01
7.590000000000000568e+01
6.959000000000000341e+01
-8.109999999999999432e+01
-7.514000000000000057e+01
-4.225000000000000000e+01
-1.006000000000000050e+01
2.919999999999999929e+00
2.601000000000000156e+01
-1.875000000000000000e+01
-9.932999999999999829e+01
-1.751999999999999957e+01
8.050000000000000000e+01
4.389999999999999858e+01
-8.320000000000000284e+00
1.935000000000000142e+01
3.302000000000000313e+01
-3.822999999999999687e+01
-5.330000000000000071e+00
6.601999999999999602e+01
4.964999999999999858e+01
-3.055000000000000071e+01
-1.098799999999999955e+02
3.704999999999999716e+01
2.000000000000000042e-02
-8.353000000000000114e+01
-1.283300000000000125e+02
7.500000000000000000e+00
1.341999999999999993e+01
-2.146999999999999886e+01
1.026200000000000045e+02
-1.603999999999999915e+01
-6.345000000000000284e+01
6.769999999999999574e+00
2.789999999999999858e+01
2.096999999999999886e+01
1.603000000000000114e+01
2.035000000000000142e+01
-3.212900000000000205e+02
2.406100000000000136e+02
6.814000000000000057e+01
-4.458000000000000114e+02
9.153000000000000114e+01
1.116700000000000017e+02
-5.117000000000000171e+01
2.007500000000000000e+02
-7.498999999999999488e+01
-7.621999999999999886e+01
7.889999999999999680e+00
6.060999999999999943e+01
3.840999999999999659e+01
-1.192999999999999972e+01
-7.790999999999999659e+01
-4.281000000000000227e+01
-3.611999999999999744e+01
1.901000000000000156e+01
3.406000000000000227e+01
-1.118999999999999950e+01
2.367999999999999972e+01
1.671999999999999886e+01
-6.189999999999999858e+01
-5.592999999999999972e+01
-6.830000000000000071e+00
2.326999999999999957e+01
8.618000000000000682e+01
6.385999999999999943e+01
-1.401999999999999957e+01
-6.188000000000000256e+01
-5.743999999999999773e+01
-9.859000000000000341e+01
4.660000000000000142e+01
4.668999999999999773e+01
8.790000000000000568e+01
-3.763199999999999932e+02
-1.013799999999999955e+02
2.706100000000000136e+02
-4.098399999999999750e+02
1.612500000000000000e+02
2.249699999999999989e+02
-1.042600000000000051e+02
1.108599999999999994e+02
1.183799999999999955e+02
-4.379999999999999716e+01
7.001000000000000512e+01
-5.634000000000000341e+01
5.209999999999999964e+00
1.792999999999999972e+01
-1.823000000000000043e+01
-3.978000000000000114e+01
2.046000000000000085e+01
7.696999999999999886e+01
-1.594999999999999929e+01
-2.014000000000000057e+01
-9.669999999999999929e+00
3.882000000000000028e+01
8.554999999999999716e+01
-4.771999999999999886e+01
-3.442000000000000171e+01
4.389999999999999858e+01
2.894999999999999929e+01
-3.739999999999999858e+01
-2.050000000000000000e+01
1.894999999999999929e+01
2.346000000000000085e+01
1.673000000000000043e+01
-7.762999999999999545e+01
9.418999999999999773e+01
2.867999999999999972e+01
-3.098999999999999844e+01
-1.083299999999999983e+02
-1.870000000000000107e+00
1.676999999999999957e+01
3.300999999999999801e+01
-3.736999999999999744e+01
5.040000000000000036e+00
-2.319999999999999840e+00
2.196999999999999886e+01
-2.899999999999999911e+00
5.764999999999999858e+01
8.928000000000000114e+01
-2.667099999999999795e+02
2.825000000000000000e+01
6.984000000000000341e+01
-2.733799999999999955e+02
9.495000000000000284e+01
3.228999999999999915e+01
1.069999999999999929e+01
2.578999999999999915e+01
-9.543000000000000682e+01
-3.099999999999999978e-01
-2.373999999999999844e+01
-3.265999999999999659e+01
-2.962000000000000099e+01
2.276000000000000156e+01
9.939999999999999503e+00
-2.737999999999999901e+01
-6.009999999999999787e+00
-6.349999999999999645e+00
1.814999999999999858e+01
2.921999999999999886e+01
3.657999999999999829e+01
-6.801999999999999602e+01
-1.502999999999999936e+01
-4.442000000000000171e+01
8.251999999999999602e+01
3.123000000000000043e+01
-3.329999999999999716e+01
-3.315999999999999659e+01
3.500999999999999801e+01
3.839000000000000057e+01
-2.678999999999999915e+01
-9.820000000000000284e+00
-4.821000000000000085e+01
2.850000000000000000e+01
-3.490000000000000213e+00
-2.198999999999999844e+01
-5.360000000000000320e+00
9.990000000000000213e+00
2.582000000000000028e+01
-8.070000000000000284e+00
3.967000000000000171e+01
-3.217999999999999972e+01
2.039999999999999858e+01
-4.010000000000000142e+01
3.259000000000000341e+01
-2.764999999999999858e+01
-1.460999999999999943e+01
-2.892000000000000171e+01
5.840999999999999659e+01
-6.642000000000000171e+01
1.007000000000000028e+01
-5.565999999999999659e+01
4.043999999999999773e+01
7.410000000000000142e+00
-9.479999999999999716e+01
-2.789000000000000057e+01
7.371999999999999886e+01
-1.457000000000000028e+01
-1.812000000000000099e+01
-1.810999999999999943e+01
6.732999999999999829e+01
-3.203999999999999915e+01
6.370000000000000107e+00
-3.155999999999999872e+01
3.603999999999999915e+01
-4.330000000000000071e+00
9.250000000000000000e+00
-2.098000000000000043e+01
8.082999999999999829e+01
-4.867000000000000171e+01
-1.726000000000000156e+01
-2.317000000000000171e+01
3.187000000000000099e+01
-4.700000000000000178e+00
2.637000000000000099e+01
-2.185999999999999943e+01
1.355000000000000071e+01
4.271999999999999886e+01
5.500000000000000000e+00
-4.778999999999999915e+01
-2.039999999999999858e+01
7.818999999999999773e+01
4.522999999999999687e+01
-3.311999999999999744e+01
9.609999999999999432e+00
5.800999999999999801e+01
-9.081999999999999318e+01
4.719999999999999751e+00
-9.551000000000000512e+01
1.235699999999999932e+02
1.769000000000000128e+01
-2.919999999999999929e+00
-6.177000000000000313e+01
4.442000000000000171e+01
4.990999999999999659e+01
-3.300000000000000000e+01
-5.156000000000000227e+01
-3.085000000000000142e+01
-4.879999999999999893e+00
-4.410000000000000142e+00
-4.189999999999999858e+01
3.114999999999999858e+01
-1.118999999999999950e+01
9.599999999999999645e-01
-4.032000000000000028e+01
7.550000000000000000e+01
-2.619999999999999929e+01
-1.601000000000000156e+01
-3.021000000000000085e+01
6.535999999999999943e+01
-3.449000000000000199e+01
1.342999999999999972e+01
-3.094999999999999929e+01
9.975000000000000000e+01
-4.490000000000000213e+00
-3.511999999999999744e+01
-4.896999999999999886e+01
4.161999999999999744e+01
3.094999999999999929e+01
-1.966000000000000014e+01
-9.825000000000000000e+01
6.570000000000000284e+01
3.155999999999999872e+01
2.276000000000000156e+01
-3.638000000000000256e+01
-3.410000000000000142e+00
3.817999999999999972e+01
-3.479999999999999982e+00
-5.570000000000000284e+00
7.454000000000000625e+01
-3.952000000000000313e+01
-1.991699999999999875e+02
1.693799999999999955e+02
2.117700000000000102e+02
-1.668400000000000034e+02
-2.302899999999999920e+02
2.160600000000000023e+02
3.840999999999999659e+01
-5.521999999999999886e+01
2.180900000000000034e+02
-1.419999999999999929e+00
6.360000000000000320e+00
3.954999999999999716e+01
1.035999999999999943e+02
2.185900000000000034e+02
6.706999999999999318e+01
-1.213100000000000023e+02
-7.235900000000000318e+02
-2.698899999999999864e+02
-8.810000000000000497e+00
2.106699999999999875e+02
5.731100000000000136e+02
8.581000000000000227e+01
1.037199999999999989e+02
-1.616500000000000057e+02
-1.383199999999999932e+02
-5.515999999999999659e+01
2.348199999999999932e+02
-2.163499999999999943e+02
3.560000000000000000e+02
-2.373400000000000034e+02
1.112699999999999960e+02
9.943999999999999773e+01
3.680199999999999818e+02
-6.303999999999999915e+01
-1.083199999999999932e+02
-6.408400000000000318e+02
-1.173900000000000006e+02
3.414399999999999977e+02
3.683600000000000136e+02
-2.450099999999999909e+02
-4.522699999999999818e+02
5.974000000000000199e+01
4.006100000000000136e+02
1.896399999999999864e+02
-2.401000000000000156e+01
1.546999999999999886e+02
2.225500000000000114e+02
-1.289000000000000057e+02
-3.467200000000000273e+02
9.759999999999999787e+00
-3.492000000000000171e+01
8.340999999999999659e+01
-2.333300000000000125e+02
-8.246999999999999886e+01
1.095900000000000034e+02
8.576999999999999602e+01
2.917500000000000000e+02
3.510999999999999943e+01
1.130000000000000071e+01
2.192000000000000171e+01
-1.333000000000000007e+01
-4.835999999999999943e+01
1.146000000000000085e+01
1.085999999999999943e+01
1.075000000000000000e+01
-5.622999999999999687e+01
1.748000000000000043e+01
4.110000000000000142e+01
-5.575000000000000000e+01
2.730000000000000071e+01
1.750000000000000000e+00
8.887000000000000455e+01
4.578999999999999915e+01
-1.180000000000000071e+01
8.898000000000000398e+01
-1.011800000000000068e+02
-8.040999999999999659e+01
-3.110000000000000142e+01
1.199999999999999956e-01
1.380000000000000071e+01
4.481000000000000227e+01
4.995000000000000284e+01
2.683999999999999773e+02
-3.568199999999999932e+02
8.200000000000000000e+01
2.867999999999999972e+01
-2.071500000000000057e+02
-7.082999999999999829e+01
3.088199999999999932e+02
-2.496399999999999864e+02
-6.904000000000000625e+01
-1.509000000000000057e+02
1.048299999999999983e+02
1.116700000000000017e+02
4.831000000000000227e+01
3.353999999999999915e+01
3.528000000000000114e+01
-8.289999999999999147e+00
1.078499999999999943e+02
2.160999999999999943e+01
3.589999999999999858e+00
-7.165000000000000568e+01
-6.951999999999999602e+01
5.672999999999999687e+01
-3.565999999999999659e+01
1.255000000000000000e+02
4.418999999999999773e+01
9.043000000000000682e+01
-2.371899999999999977e+02
4.353000000000000114e+01
4.507000000000000028e+01
-1.498100000000000023e+02
7.650000000000000000e+01
1.733899999999999864e+02
-1.134099999999999966e+02
-1.453199999999999932e+02
-9.100000000000000000e+01
2.185999999999999943e+02
-3.953199999999999932e+02
-8.034000000000000341e+01
1.903600000000000136e+02
-1.794199999999999875e+02
5.603000000000000114e+01
-1.822400000000000091e+02
8.559000000000000341e+01
1.971000000000000085e+01
2.318400000000000034e+02
-1.284399999999999977e+02
1.557599999999999909e+02
-1.020199999999999960e+02
-2.278100000000000023e+02
-4.975999999999999801e+01
1.892000000000000171e+01
-1.812599999999999909e+02
5.846000000000000085e+01
-2.842000000000000171e+01
1.929799999999999898e+02
1.405300000000000011e+02
-2.309300000000000068e+02
7.178000000000000114e+01
-9.840000000000000568e+01
-6.538099999999999454e+02
-2.333300000000000125e+02
1.427599999999999909e+02
3.143500000000000227e+02
1.382100000000000080e+02
-3.622900000000000205e+02
8.906000000000000227e+01
8.620999999999999375e+01
9.451999999999999602e+01
3.409599999999999795e+02
3.346999999999999886e+01
-5.421000000000000227e+02
-6.479000000000000625e+01
1.419099999999999966e+02
1.150499999999999972e+02
-2.280800000000000125e+02
-2.184900000000000091e+02
1.366899999999999977e+02
-1.902500000000000000e+02
3.356600000000000250e+02
2.362199999999999989e+02
-3.372200000000000273e+02
-1.990200000000000102e+02
8.131999999999999318e+01
2.789000000000000057e+01
-2.821999999999999886e+01
-2.435999999999999943e+02
-5.353999999999999915e+01
-9.223000000000000398e+01
3.148899999999999864e+02
6.460999999999999943e+01
-1.559499999999999886e+02
4.497999999999999687e+01
1.885200000000000102e+02
5.622999999999999687e+01
-3.553600000000000136e+02
1.206700000000000017e+02
-2.388300000000000125e+02
-7.548300000000000409e+02
1.578899999999999864e+02
7.484000000000000341e+01
4.331000000000000227e+01
2.712200000000000273e+02
9.003000000000000114e+01
1.404900000000000091e+02
-1.826999999999999957e+01
-1.256200000000000045e+02
-1.509999999999999964e+01
6.784000000000000341e+01
1.589799999999999898e+02
5.739999999999999858e+01
-9.109999999999999432e+01
-2.408799999999999955e+02
2.516500000000000057e+02
-1.518100000000000023e+02
1.130100000000000051e+02
5.177000000000000313e+01
-4.257999999999999829e+01
3.110000000000000142e+01
-7.910000000000000142e+00
-2.140000000000000124e+00
1.877400000000000091e+02
1.063400000000000034e+02
-2.018400000000000034e+02
1.107500000000000000e+02
-8.240000000000000568e+01
-1.023900000000000006e+02
6.701999999999999602e+01
6.476000000000000512e+01
-6.032999999999999829e+01
-3.734000000000000341e+01
1.020100000000000051e+02
-4.640999999999999659e+01
-8.381000000000000227e+01
3.078700000000000045e+02
-9.148999999999999488e+01
-5.862400000000000091e+02
-3.749100000000000250e+02
1.754199999999999875e+02
3.564499999999999886e+02
-2.900500000000000114e+02
1.716200000000000045e+02
2.054499999999999886e+02
-2.636700000000000159e+02
1.000900000000000034e+02
2.841000000000000014e+01
-1.567700000000000102e+02
-2.239999999999999858e+01
1.507899999999999920e+02
2.980000000000000071e+01
-3.308199999999999932e+02
1.345900000000000034e+02
3.061800000000000068e+02
-4.171800000000000068e+02
-2.962500000000000000e+02
4.096299999999999955e+02
8.800000000000000711e+00
7.164000000000000057e+01
2.564700000000000273e+02
-3.739700000000000273e+02
-2.410000000000000142e+00
1.524099999999999966e+02
1.875000000000000000e+01
-4.477000000000000313e+01
1.407899999999999920e+02
7.353000000000000114e+01
-1.647599999999999909e+02
-1.611500000000000057e+02
2.923799999999999955e+02
-5.713000000000000256e+01
-5.029599999999999795e+02
3.898799999999999955e+02
1.484399999999999977e+02
6.587000000000000455e+01
-1.110300000000000011e+02
4.275899999999999750e+02
1.762299999999999898e+02
-3.645699999999999932e+02
-6.198300000000000409e+02
2.257800000000000011e+02
1.363600000000000136e+02
4.863000000000000256e+01
6.989000000000000057e+01
8.017000000000000171e+01
2.620000000000000107e+00
1.725300000000000011e+02
4.814000000000000057e+01
-6.970999999999999375e+01
2.070800000000000125e+02
-3.943600000000000136e+02
-9.919999999999999929e+00
-3.950000000000000178e+00
-8.084999999999999432e+01
2.282299999999999898e+02
4.742999999999999972e+01
1.417999999999999972e+01
1.253499999999999943e+02
9.945999999999999375e+01
2.853000000000000114e+01
-5.554800000000000182e+02
-9.143000000000000682e+01
5.324900000000000091e+02
-5.211999999999999744e+01
-1.519300000000000068e+02
5.091999999999999886e+02
-5.550099999999999909e+02
2.923399999999999750e+02
-3.399900000000000091e+02
1.071099999999999994e+02
1.368000000000000114e+02
9.589000000000000057e+01
1.685900000000000034e+02
-2.613299999999999841e+02
1.079899999999999949e+02
1.275999999999999979e+01
-3.749000000000000199e+01
-2.867000000000000171e+01
2.847099999999999795e+02
-1.130699999999999932e+02
5.447999999999999687e+01
1.819000000000000128e+01
1.181899999999999977e+02
1.873400000000000034e+02
1.903000000000000114e+02
-3.499399999999999977e+02
-2.275699999999999932e+02
-3.857999999999999829e+01
5.675000000000000000e+01
1.792599999999999909e+02
1.354000000000000057e+02
-2.830500000000000114e+02
-3.474100000000000250e+02
2.552199999999999989e+02
3.139300000000000068e+02
1.997100000000000080e+02
-1.167399999999999949e+02
2.123000000000000043e+01
-3.766200000000000045e+02
3.299999999999999822e+00
5.906000000000000227e+01
1.423300000000000125e+02
-8.603000000000000114e+01
-1.574000000000000021e+01
1.549000000000000021e+01
7.771999999999999886e+01
2.003000000000000114e+01
-1.306800000000000068e+02
-6.921999999999999886e+01
2.095399999999999920e+02
-2.269099999999999966e+02
3.410099999999999909e+02
-2.810400000000000205e+02
1.421200000000000045e+02
-9.446999999999999886e+01
-1.054200000000000017e+02
-1.305600000000000023e+02
-1.539199999999999875e+02
4.825999999999999801e+01
-3.458100000000000023e+02
7.346999999999999886e+01
-4.460999999999999943e+01
-8.789999999999999147e+00
-1.431100000000000136e+02
1.161800000000000068e+02
5.609000000000000341e+01
1.214000000000000057e+01
-5.165999999999999659e+01
-4.652000000000000313e+01
-5.379999999999999893e+00
1.192000000000000028e+02
-4.427799999999999727e+02
7.882999999999999829e+01
-8.326000000000000512e+01
2.112999999999999901e+01
1.653000000000000114e+01
1.448600000000000136e+02
-1.626000000000000156e+01
-2.740000000000000213e+00
9.731000000000000227e+01
1.232699999999999960e+02
-6.689000000000000057e+01
-1.581000000000000050e+01
1.011800000000000068e+02
4.535000000000000142e+01
-4.078999999999999773e+02
-1.227999999999999972e+02
5.125999999999999801e+01
-4.900000000000000355e+00
-1.190400000000000063e+02
3.174599999999999795e+02
2.404399999999999977e+02
-5.311299999999999955e+02
-1.795399999999999920e+02
2.055300000000000011e+02
1.381699999999999875e+02
7.019999999999999574e+00
5.971999999999999886e+01
-2.767000000000000171e+01
-9.201999999999999602e+01
2.548899999999999864e+02
1.242800000000000011e+02
-2.901000000000000227e+02
2.245800000000000125e+02
5.985000000000000142e+01
-4.218999999999999773e+01
3.004800000000000182e+02
-3.731000000000000227e+02
2.910000000000000142e+01
6.832999999999999829e+01
1.618400000000000034e+02
-2.039600000000000080e+02
4.360000000000000142e+01
8.248000000000000398e+01
1.617000000000000171e+01
2.737999999999999901e+01
-3.957999999999999829e+01
-1.352599999999999909e+02
5.796000000000000085e+01
1.066400000000000006e+02
2.052100000000000080e+02
7.170999999999999375e+01
-2.473199999999999932e+02
-1.546100000000000136e+02
8.009999999999999432e+01
1.532899999999999920e+02
-4.157500000000000000e+02
-1.375000000000000000e+01
7.125000000000000000e+01
1.225900000000000034e+02
1.088799999999999955e+02
-6.556999999999999318e+01
-9.937000000000000455e+01
3.585000000000000142e+01
1.283999999999999986e+01
1.100100000000000051e+02
1.232199999999999989e+02
1.423899999999999864e+02
3.953000000000000114e+01
-1.201999999999999957e+01
-4.018000000000000114e+02
-5.477200000000000273e+02
-1.244000000000000057e+02
5.767999999999999972e+01
1.729000000000000057e+02
2.298100000000000023e+02
2.580199999999999818e+02
3.263000000000000256e+01
-5.375000000000000000e+01
5.021000000000000085e+01
9.619999999999999218e+00
-1.073000000000000043e+01
2.800000000000000266e-01
1.914999999999999858e+01
3.324000000000000199e+01
3.632000000000000028e+01
-3.531499999999999773e+02
-7.435999999999999943e+01
6.723000000000000398e+01
6.014000000000000057e+01
1.824199999999999875e+02
-4.978999999999999915e+01
-5.752000000000000313e+01
-5.595000000000000284e+01
-8.659999999999999432e+01
-1.574499999999999886e+02
1.292299999999999898e+02
3.850000000000000000e+01
1.949999999999999956e+00
1.043700000000000045e+02
-2.714999999999999858e+01
-9.510999999999999943e+01
1.204699999999999989e+02
-3.317999999999999972e+01
-1.733999999999999986e+01
1.778000000000000114e+01
-1.098000000000000043e+01
-2.008999999999999986e+01
-2.200000000000000000e+01
-5.999999999999999778e-02
2.450000000000000178e+00
-2.529999999999999805e+00
5.120000000000000107e+00
-1.117999999999999972e+01
5.650000000000000000e+01
-6.371999999999999886e+01
-6.406999999999999318e+01
3.484000000000000341e+01
9.429999999999999716e+00
-4.489000000000000057e+01
3.885999999999999943e+01
1.912000000000000099e+01
-1.396000000000000085e+01
3.567000000000000171e+01
5.556000000000000227e+01
-6.531999999999999318e+01
-1.812999999999999901e+01
3.259999999999999787e+00
3.960999999999999943e+01
-3.614000000000000057e+01
6.219999999999999751e+00
2.085999999999999943e+01
1.080000000000000071e+01
1.770000000000000018e+00
-2.879999999999999893e+00
-5.309999999999999609e+00
-7.030000000000000249e+00
2.467999999999999972e+01
-7.889999999999999680e+00
3.879999999999999893e+00
1.439199999999999875e+02
-7.843999999999999773e+01
-3.151999999999999957e+01
2.260000000000000142e+01
-5.456000000000000227e+01
-1.044999999999999929e+01
-8.369999999999999218e+00
8.500000000000000000e+00
4.892000000000000171e+01
-7.830000000000000071e+00
-3.675000000000000000e+01
3.770000000000000284e+01
1.733999999999999986e+01
5.830000000000000071e+00
-3.071000000000000085e+01
4.620000000000000107e+00
-6.639999999999999680e+00
3.229999999999999982e+00
6.790000000000000036e+00
4.580000000000000071e+00
-1.230000000000000071e+01
1.416999999999999993e+01
5.679999999999999716e+00
-1.089000000000000057e+01
-8.439999999999999503e+00
-1.703999999999999915e+01
6.150000000000000355e+00
1.676000000000000156e+01
-2.899999999999999800e-01
3.600999999999999801e+01
-5.370000000000000107e+00
-2.232000000000000028e+01
6.940000000000000391e+00
-1.008999999999999986e+01
2.342000000000000171e+01
1.153799999999999955e+02
1.539099999999999966e+02
-1.882899999999999920e+02
-3.538000000000000256e+01
9.240000000000000213e+00
1.950000000000000000e+01
6.314999999999999858e+01
9.396999999999999886e+01
-2.992000000000000171e+01
1.967999999999999972e+01
1.185999999999999943e+01
-4.490999999999999659e+01
-1.193499999999999943e+02
-4.171999999999999886e+01
-1.492999999999999972e+01
2.428000000000000114e+01
3.042000000000000171e+01
-2.029999999999999805e+00
4.646999999999999886e+01
-9.401999999999999602e+01
-4.328999999999999915e+01
-7.493999999999999773e+01
-2.221000000000000085e+01
6.512000000000000455e+01
9.169999999999999929e+00
2.589999999999999858e+01
4.750000000000000000e+00
2.107000000000000028e+01
3.979999999999999982e+00
-8.339999999999999858e+00
-2.892000000000000171e+01
-8.240000000000000213e+00
-8.519999999999999574e+00
3.207000000000000028e+01
1.601000000000000156e+01
1.280000000000000071e+01
9.460999999999999943e+01
1.143100000000000023e+02
-1.640699999999999932e+02
1.135999999999999943e+01
-1.342999999999999972e+01
-1.150300000000000011e+02
-3.194999999999999929e+01
-2.050000000000000000e+01
-8.849999999999999645e+00
1.315000000000000036e+01
3.008999999999999986e+01
1.064699999999999989e+02
-1.410999999999999943e+01
-5.999000000000000199e+01
-1.919999999999999929e+00
-1.248000000000000043e+01
1.375999999999999979e+01
2.841000000000000014e+01
6.848999999999999488e+01
-4.571999999999999886e+01
-5.875000000000000000e+01
-2.260999999999999943e+01
3.792000000000000171e+01
6.006000000000000227e+01
-3.055999999999999872e+01
-4.932000000000000028e+01
1.196000000000000085e+01
1.671000000000000085e+01
9.830000000000000071e+00
3.879999999999999716e+01
2.412999999999999901e+01
7.657999999999999829e+01
-3.053999999999999915e+01
-6.127000000000000313e+01
-3.924000000000000199e+01
-2.280000000000000071e+01
1.285999999999999943e+01
-1.901000000000000156e+01
3.126000000000000156e+01
2.525000000000000000e+01
3.017999999999999972e+01
2.167999999999999972e+01
2.039000000000000057e+01
-1.197000000000000064e+01
-2.750000000000000000e+01
-5.064000000000000057e+01
1.669000000000000128e+01
-5.604999999999999716e+01
-4.457000000000000028e+01
1.953999999999999915e+01
2.028000000000000114e+01
2.776999999999999957e+01
-1.325999999999999979e+01
1.055000000000000000e+02
3.735000000000000142e+01
-1.766100000000000136e+02
6.246999999999999886e+01
7.404999999999999716e+01
-3.722999999999999687e+01
-7.773999999999999488e+01
-6.420999999999999375e+01
1.844000000000000128e+01
4.969999999999999751e+00
2.655000000000000071e+01
2.501999999999999957e+01
2.009999999999999787e+00
-4.410000000000000142e+00
9.740000000000000213e+00
6.589999999999999858e+00
-4.059999999999999609e+00
2.129999999999999893e+00
-1.056000000000000050e+01
3.740999999999999659e+01
1.289000000000000057e+01
-8.823999999999999488e+01
-2.015500000000000114e+02
1.540399999999999920e+02
7.051000000000000512e+01
1.071899999999999977e+02
4.739000000000000057e+01
-2.873999999999999844e+01
6.000000000000000000e+00
-9.699999999999999734e-01
1.118999999999999950e+01
-4.849999999999999645e+00
7.280000000000000249e+00
2.509999999999999787e+00
3.478999999999999915e+01
7.723000000000000398e+01
9.348999999999999488e+01
5.042999999999999972e+01
-1.000000000000000000e+02
-2.539000000000000057e+02
1.225000000000000000e+01
1.530000000000000071e+01
-7.040000000000000036e+00
9.754999999999999716e+01
-9.556000000000000227e+01
-7.468000000000000682e+01
4.799999999999999822e-01
2.887000000000000099e+01
3.819999999999999840e+00
-1.574000000000000021e+01
-1.288000000000000078e+01
-3.803000000000000114e+01
-3.782000000000000028e+01
9.948000000000000398e+01
-9.643000000000000682e+01
-1.076899999999999977e+02
4.097999999999999687e+01
3.729999999999999982e+00
2.098700000000000045e+02
7.964000000000000057e+01
-9.320999999999999375e+01
-1.419999999999999929e+01
-3.352900000000000205e+02
1.690099999999999909e+02
1.678999999999999915e+01
-2.144000000000000057e+02
3.919599999999999795e+02
-1.377299999999999898e+02
-5.395000000000000284e+01
-1.169300000000000068e+02
6.360000000000000142e+01
-2.919000000000000128e+01
-4.796000000000000085e+01
1.726999999999999886e+02
-4.309999999999999609e+00
1.395300000000000011e+02
1.570600000000000023e+02
-1.966000000000000014e+01
-4.143999999999999773e+02
-2.985999999999999943e+01
-2.267000000000000171e+01
-5.195499999999999545e+02
5.691100000000000136e+02
3.563899999999999864e+02
-1.655699999999999932e+02
-4.760400000000000205e+02
9.254000000000000625e+01
1.496800000000000068e+02
4.340199999999999818e+02
-5.977000000000000313e+01
-1.402599999999999909e+02
-3.932900000000000205e+02
5.331000000000000227e+02
-1.046700000000000017e+02
4.344900000000000091e+02
-1.130100000000000051e+02
-4.772799999999999727e+02
-3.288100000000000023e+02
1.987500000000000000e+02
-4.928999999999999915e+01
9.378000000000000114e+01
9.840000000000000568e+01
3.136600000000000250e+02
5.571100000000000136e+02
6.758200000000000500e+02
-7.949500000000000455e+02
-4.632099999999999795e+02
2.017899999999999920e+02
-3.271999999999999886e+01
1.226099999999999994e+02
9.109999999999999432e+00
9.339000000000000057e+01
-6.125000000000000000e+01
-2.623000000000000114e+02
-1.834000000000000057e+02
-3.272999999999999687e+01
1.384000000000000057e+02
9.590000000000000568e+01
1.959699999999999989e+02
2.622500000000000000e+02
1.592899999999999920e+02
-3.366999999999999886e+02
-7.721699999999999591e+02
-5.415599999999999454e+02
1.102339999999999918e+03
3.297400000000000091e+02
-2.897699999999999818e+02
-1.089289999999999964e+03
3.840899999999999750e+02
1.201599999999999966e+02
-5.067000000000000171e+01
7.669999999999999929e+00
-1.318000000000000114e+02
-1.466999999999999993e+01
-1.092900000000000063e+02
-3.203000000000000114e+01
9.226000000000000512e+01
2.197899999999999920e+02
3.187200000000000273e+02
8.015000000000000568e+01
-7.876999999999999602e+01
-4.721999999999999886e+01
-8.459999999999999432e+01
1.262900000000000063e+02
-7.048000000000000398e+01
-1.170499999999999972e+02
4.964999999999999858e+01
-1.857199999999999989e+02
6.707999999999999829e+01
4.554999999999999716e+01
-6.102000000000000313e+01
1.417500000000000000e+02
2.169199999999999875e+02
-2.235300000000000011e+02
-1.174000000000000057e+02
-1.511500000000000057e+02
-1.085799999999999983e+02
-2.600000000000000000e+01
1.118700000000000045e+02
2.661499999999999773e+02
1.279300000000000068e+02
-1.558000000000000007e+01
-8.831999999999999318e+01
1.695099999999999909e+02
-6.953000000000000114e+01
-1.061999999999999922e+01
1.284999999999999964e+01
2.062999999999999901e+01
-3.896000000000000085e+01
1.368999999999999950e+01
5.572999999999999687e+01
1.304000000000000057e+02
-1.179699999999999989e+02
-3.140299999999999727e+02
2.720299999999999727e+02
-1.491599999999999966e+02
-2.164900000000000091e+02
4.500000000000000000e+00
1.005199999999999960e+02
8.962999999999999545e+01
3.029999999999999805e+00
7.276999999999999602e+01
4.474000000000000199e+01
2.940400000000000205e+02
3.332000000000000028e+01
-3.709800000000000182e+02
-5.380599999999999454e+02
-2.638100000000000023e+02
-1.167600000000000051e+02
2.607799999999999727e+02
2.984700000000000273e+02
-1.444199999999999875e+02
-2.343000000000000114e+02
2.005999999999999943e+02
-3.841700000000000159e+02
-1.569999999999999929e+01
4.398700000000000045e+02
9.160000000000000142e+00
1.640000000000000000e+02
5.377599999999999909e+02
-3.151999999999999886e+02
-1.189699999999999989e+02
-1.830999999999999872e+01
-1.267399999999999949e+02
-1.514000000000000057e+01
-2.812799999999999727e+02
7.987000000000000455e+01
1.035900000000000034e+02
-5.167000000000000171e+01
-5.885999999999999943e+01
1.608199999999999932e+02
-9.367000000000000171e+01
-4.853000000000000114e+01
5.128999999999999915e+01
-5.381000000000000227e+01
7.289000000000000057e+01
1.557199999999999989e+02
-1.505000000000000071e+01
-3.718999999999999773e+01
5.513000000000000256e+01
-1.726299999999999955e+02
-2.420000000000000000e+02
2.344000000000000057e+02
6.339000000000000057e+01
-9.830000000000000071e+00
1.958999999999999986e+01
-1.128999999999999915e+01
-1.337500000000000000e+02
5.464999999999999858e+01
2.980999999999999872e+01
1.493999999999999950e+01
-1.901999999999999957e+01
-6.300999999999999801e+01
4.754999999999999716e+01
1.662100000000000080e+02
-3.421999999999999886e+01
-7.617000000000000171e+01
-9.462999999999999545e+01
5.629999999999999716e+01
-9.460000000000000853e+00
1.093799999999999955e+02
-8.984999999999999432e+01
-2.437100000000000080e+02
7.360000000000000320e+00
2.378400000000000034e+02
6.595999999999999375e+01
2.544300000000000068e+02
-1.012500000000000000e+02
-1.240000000000000000e+02
-3.225999999999999801e+01
-7.989000000000000057e+01
5.040999999999999659e+01
9.331999999999999318e+01
-1.060000000000000053e+00
-8.343999999999999773e+01
9.703000000000000114e+01
6.282999999999999829e+01
-3.101000000000000156e+01
2.914000000000000057e+01
-4.899999999999999911e-01
-3.037000000000000099e+01
2.305999999999999872e+01
-1.471000000000000085e+01
-2.841000000000000014e+01
1.760000000000000142e+01
-3.527000000000000313e+01
-4.215999999999999659e+01
-5.695000000000000284e+01
-3.785000000000000142e+01
-5.299999999999999822e+00
-7.099999999999999645e-01
1.146000000000000085e+01
4.378000000000000114e+01
-6.999999999999999556e-01
-4.589000000000000057e+01
-1.810300000000000011e+02
9.862000000000000455e+01
1.503199999999999932e+02
4.360000000000000142e+01
8.359999999999999432e+00
3.925999999999999801e+01
1.219999999999999929e+01
-9.359999999999999432e+00
-3.668999999999999773e+01
-7.676999999999999602e+01
-1.840200000000000102e+02
3.173000000000000114e+02
1.490500000000000114e+02
2.217999999999999972e+01
-4.878000000000000114e+01
4.959999999999999964e+00
-6.973999999999999488e+01
-1.558199999999999932e+02
2.235600000000000023e+02
-4.156000000000000227e+01
-5.546999999999999886e+01
6.873000000000000398e+01
-8.571999999999999886e+01
-4.321000000000000085e+01
-1.341000000000000014e+01
9.929999999999999716e+01
-2.758999999999999986e+01
-1.239399999999999977e+02
-4.814999999999999858e+01
1.537400000000000091e+02
1.035999999999999943e+01
-3.588000000000000256e+01
9.865999999999999659e+01
-7.115999999999999659e+01
-8.915999999999999659e+01
2.705999999999999872e+01
5.845000000000000284e+01
9.921999999999999886e+01
-1.874399999999999977e+02
2.792999999999999972e+01
-2.452299999999999898e+02
5.270000000000000284e+01
-9.890000000000000568e+00
5.478000000000000114e+01
1.510000000000000009e+00
-5.339000000000000057e+01
-1.889000000000000057e+01
4.190000000000000391e+00
8.910000000000000142e+00
1.076800000000000068e+02
6.446999999999999886e+01
1.127600000000000051e+02
3.182999999999999829e+01
1.229399999999999977e+02
-2.182599999999999909e+02
-1.559600000000000080e+02
-4.084000000000000341e+01
-5.047999999999999687e+01
2.835999999999999943e+01
-5.265999999999999659e+01
-5.106000000000000227e+01
-2.789000000000000057e+01
6.969999999999999751e+00
-5.980000000000000426e+00
5.900000000000000355e+00
2.969999999999999929e+01
1.805999999999999872e+01
2.385000000000000142e+01
3.363000000000000256e+01
1.389999999999999902e+00
-2.853000000000000114e+01
-1.750000000000000000e+01
2.990000000000000213e+00
-7.679999999999999716e+00
-5.309999999999999609e+00
8.879999999999999716e+01
9.779999999999999361e+00
-1.705999999999999872e+01
-5.882999999999999829e+01
4.564000000000000057e+01
-2.592999999999999972e+01
2.146999999999999886e+01
-1.450500000000000114e+02
-6.453000000000000114e+01
-3.825299999999999727e+02
3.908899999999999864e+02
2.058899999999999864e+02
4.864999999999999858e+01
3.768999999999999773e+01
8.500000000000000000e+01
-7.059999999999999609e+00
-9.515000000000000568e+01
-6.643999999999999773e+01
-1.726000000000000156e+01
-1.007800000000000011e+02
6.281000000000000227e+01
1.727700000000000102e+02
-3.182000000000000028e+01
-2.952900000000000205e+02
1.157999999999999972e+02
7.362000000000000455e+01
-1.600000000000000000e+01
-8.529999999999999716e+01
2.044999999999999929e+01
8.250000000000000000e+01
-1.162199999999999989e+02
-3.490000000000000213e+00
9.650000000000000000e+01
1.016400000000000006e+02
2.326000000000000156e+01
4.692000000000000171e+01
1.992999999999999972e+01
-1.157399999999999949e+02
-4.760999999999999943e+01
7.292000000000000171e+01
-8.579000000000000625e+01
1.314600000000000080e+02
-1.305500000000000114e+02
-4.796999999999999886e+01
-1.430200000000000102e+02
9.468999999999999773e+01
9.090000000000000568e+01
3.385999999999999943e+01
-2.087999999999999901e+01
-5.872999999999999687e+01
-2.112000000000000099e+01
-6.639999999999999680e+00
4.110000000000000320e+00
-9.410000000000000142e+00
3.430000000000000160e+00
-2.255999999999999872e+01
-1.005600000000000023e+02
1.520200000000000102e+02
-1.561999999999999922e+01
-4.214999999999999858e+01
-1.108999999999999986e+01
3.300999999999999801e+01
-1.396000000000000085e+01
-8.845999999999999375e+01
9.851000000000000512e+01
-1.574000000000000021e+01
-1.286999999999999922e+01
-2.049999999999999822e+00
1.000000000000000056e-01
-3.367000000000000171e+01
3.599999999999999867e-01
-1.159999999999999920e+00
3.649999999999999911e+00
-9.630000000000000782e+00
-5.269999999999999574e+00
3.419999999999999929e+00
-6.639999999999999680e+00
3.049999999999999822e+00
-2.100000000000000089e+00
-1.469999999999999973e+00
-2.917999999999999972e+01
-4.313000000000000256e+01
1.201500000000000057e+02
8.593000000000000682e+01
-5.125999999999999801e+01
-8.789999999999999147e+00
1.026999999999999957e+01
1.500999999999999979e+01
-2.623999999999999844e+01
-1.751999999999999957e+01
1.753999999999999915e+01
-8.051999999999999602e+01
3.542999999999999972e+01
5.856000000000000227e+01
-3.060000000000000142e+01
-2.253999999999999915e+01
-2.203999999999999915e+01
-2.370000000000000107e+00
-7.099999999999999645e+00
1.228999999999999915e+01
7.230000000000000426e+00
4.929999999999999716e+00
-2.240000000000000213e+00
4.080000000000000071e+00
-2.700000000000000178e+00
-7.099999999999999645e+00
1.933999999999999986e+01
5.175000000000000000e+01
-1.225999999999999943e+02
6.576000000000000512e+01
4.082999999999999829e+01
2.399999999999999911e-01
3.328000000000000114e+01
4.990999999999999659e+01
-3.688000000000000256e+01
-2.467999999999999972e+01
6.321999999999999886e+01
-4.885000000000000142e+01
-3.596000000000000085e+01
-3.863000000000000256e+01
-3.456000000000000227e+01
3.924000000000000199e+01
7.225000000000000000e+01
1.790000000000000036e+00
-1.334999999999999964e+01
1.135999999999999943e+01
7.589999999999999858e+00
-3.189999999999999947e+00
6.759999999999999787e+00
-5.400000000000000355e-01
-7.669999999999999929e+00
7.780000000000000249e+00
3.903000000000000114e+01
3.799999999999999822e+00
5.290999999999999659e+01
-4.132999999999999829e+01
-6.185999999999999943e+01
-2.860999999999999943e+01
1.409999999999999964e+01
1.637999999999999901e+01
2.332999999999999829e+01
-3.001999999999999957e+01
-4.790999999999999659e+01
-1.149000000000000021e+01
1.116000000000000014e+01
3.740000000000000213e+00
-1.531000000000000050e+01
-4.139999999999999680e+00
1.729999999999999982e+00
-1.967000000000000171e+01
2.435999999999999943e+01
3.520000000000000018e+00
1.969000000000000128e+01
1.258999999999999986e+01
-3.069999999999999840e+00
1.130000000000000071e+01
3.447999999999999687e+01
2.453000000000000114e+01
-3.085999999999999943e+01
-2.482000000000000028e+01
-2.555999999999999872e+01
-3.000000000000000000e+01
5.485999999999999943e+01
-6.059999999999999609e+00
-8.000000000000000167e-02
2.789999999999999858e+01
3.621000000000000085e+01
-2.573000000000000043e+01
-9.496999999999999886e+01
4.820000000000000284e+00
5.530000000000000249e+00
1.030000000000000071e+01
3.160999999999999943e+01
2.716000000000000014e+01
-1.794999999999999929e+01
2.709999999999999964e+00
-1.875000000000000000e+01
-3.592000000000000171e+01
-6.650000000000000355e+00
1.443999999999999950e+01
3.149999999999999911e+00
-2.669999999999999929e+00
-1.340000000000000080e+00
-8.769999999999999574e+00
-1.280000000000000027e+00
-2.830000000000000071e+00
2.200000000000000178e+00
1.939999999999999947e+00
-6.690000000000000391e+00
4.099999999999999645e+00
-5.160000000000000142e+00
4.030000000000000249e+00
7.399999999999999911e-01
-1.010000000000000009e+00
7.839999999999999858e+00
-7.429999999999999716e+00
5.950000000000000178e+00
-8.100000000000000533e-01
-2.999999999999999889e-02
4.500000000000000000e+00
-6.959999999999999964e+00
5.660000000000000142e+00
-2.200000000000000011e-01
-8.599999999999999867e-01
4.929999999999999716e+00
-6.299999999999999822e+00
6.660000000000000142e+00
-3.560000000000000053e+00
-4.000000000000000083e-02
-1.870000000000000107e+00
-1.221000000000000085e+01
5.870000000000000107e+00
-1.250000000000000000e+00
3.819999999999999840e+00
2.029999999999999805e+00
-4.290000000000000036e+00
6.709999999999999964e+00
-3.939999999999999947e+00
9.230000000000000426e+00
4.839999999999999858e+00
-4.269999999999999574e+00
5.400000000000000355e-01
-1.072000000000000064e+01
3.729999999999999982e+00
3.900000000000000133e-01
-8.499999999999999778e-01
5.190000000000000391e+00
-3.540000000000000036e+00
7.089999999999999858e+00
-6.400000000000000133e-01
-1.729999999999999982e+00
3.819999999999999840e+00
-8.310000000000000497e+00
-1.286100000000000136e+02
9.001999999999999602e+01
1.324099999999999966e+02
3.202000000000000313e+01
-5.964000000000000057e+01
-5.434000000000000341e+01
-1.318999999999999950e+01
6.299999999999999822e+00
-3.129999999999999893e+00
6.309999999999999609e+00
3.438000000000000256e+01
7.354999999999999716e+01
7.154999999999999716e+01
-1.928700000000000045e+02
-6.890999999999999659e+01
-2.642000000000000171e+01
5.839999999999999858e+00
1.907000000000000028e+01
-2.509999999999999787e+00
8.509999999999999787e+00
2.899999999999999800e-01
4.200000000000000178e+00
-3.009999999999999787e+00
-2.839999999999999858e+00
1.694000000000000128e+01
-4.950000000000000178e+00
8.449999999999999289e+00
2.259999999999999787e+00
1.216999999999999993e+01
6.469999999999999751e+00
-5.379999999999999893e+00
9.490000000000000213e+00
-3.399999999999999911e+00
9.960000000000000853e+00
-1.213700000000000045e+02
9.799999999999999822e-01
1.299199999999999875e+02
4.580000000000000071e+00
-1.602500000000000000e+02
4.434000000000000341e+01
1.307700000000000102e+02
1.316500000000000057e+02
-2.939999999999999858e+01
-8.976000000000000512e+01
5.989999999999999858e+01
6.634999999999999432e+01
4.275000000000000000e+01
-1.023799999999999955e+02
3.927000000000000313e+01
-2.990000000000000213e+00
1.687999999999999901e+01
2.076000000000000156e+01
-7.057999999999999829e+01
2.614000000000000057e+01
-1.701999999999999957e+01
3.906000000000000227e+01
5.089999999999999858e+00
-1.853100000000000023e+02
6.495000000000000284e+01
-1.371800000000000068e+02
1.659000000000000057e+02
1.705500000000000114e+02
1.340999999999999943e+02
-2.512999999999999901e+01
-1.750200000000000102e+02
3.704999999999999716e+01
2.708999999999999986e+01
8.923999999999999488e+01
1.232000000000000028e+02
-6.027000000000000313e+01
4.472999999999999687e+01
1.017900000000000063e+02
-4.993999999999999773e+01
1.017999999999999972e+01
-7.970999999999999375e+01
1.016999999999999993e+01
-2.037999999999999901e+01
7.704000000000000625e+01
1.583999999999999986e+01
-2.105200000000000102e+02
-1.191200000000000045e+02
7.100000000000000000e+01
-8.100000000000000000e+01
-5.009999999999999787e+00
-3.107000000000000028e+01
-2.721000000000000085e+01
-3.657000000000000028e+01
-8.320999999999999375e+01
2.107999999999999829e+01
4.163000000000000256e+01
1.407500000000000000e+02
1.271400000000000006e+02
1.342599999999999909e+02
-1.008400000000000034e+02
-2.405800000000000125e+02
-1.598199999999999932e+02
1.813600000000000136e+02
-6.390999999999999659e+01
-7.465999999999999659e+01
-1.540000000000000036e+00
-7.876000000000000512e+01
7.725000000000000000e+01
1.400200000000000102e+02
5.446999999999999886e+01
1.370699999999999932e+02
-3.247099999999999795e+02
-7.893999999999999773e+01
-8.584999999999999432e+01
1.130100000000000051e+02
5.070000000000000284e+00
1.185999999999999943e+01
2.798000000000000043e+01
6.917000000000000171e+01
-1.178700000000000045e+02
3.231000000000000227e+01
-3.459999999999999964e+00
-2.469000000000000128e+01
-4.707999999999999829e+01
5.040999999999999659e+01
-4.702000000000000313e+01
-1.515399999999999920e+02
1.782100000000000080e+02
1.119999999999999929e+01
-2.514000000000000057e+01
4.820000000000000284e+01
6.190999999999999659e+01
-4.782000000000000028e+01
1.452999999999999936e+01
1.249000000000000021e+01
4.386999999999999744e+01
1.047999999999999972e+02
5.752000000000000313e+01
-2.207000000000000028e+01
8.125000000000000000e+01
-2.522899999999999920e+02
-1.649999999999999911e+00
3.977000000000000313e+01
1.561800000000000068e+02
-4.211299999999999955e+02
-5.169999999999999929e+00
1.353799999999999955e+02
5.460999999999999943e+01
3.246999999999999886e+01
-2.314799999999999898e+02
-1.335900000000000034e+02
-2.855400000000000205e+02
3.724300000000000068e+02
-5.578999999999999915e+01
-1.049300000000000068e+02
-4.301399999999999864e+02
1.563300000000000125e+02
1.490999999999999943e+02
-1.645500000000000114e+02
-2.053999999999999915e+01
3.409000000000000341e+01
-4.099999999999999756e-01
1.227099999999999937e+02
6.278000000000000114e+01
-1.931599999999999966e+02
-1.167999999999999972e+01
-3.201600000000000250e+02
-1.331999999999999886e+02
4.163700000000000045e+02
2.178499999999999943e+02
7.681999999999999318e+01
-1.146200000000000045e+02
-2.187400000000000091e+02
1.079800000000000040e+02
9.239000000000000057e+01
1.885399999999999920e+02
-4.502000000000000313e+01
-3.916999999999999886e+02
-4.639300000000000068e+02
-1.554499999999999886e+02
8.731999999999999318e+01
3.703299999999999841e+02
9.276999999999999602e+01
6.446999999999999886e+01
6.399099999999999682e+02
-2.539499999999999886e+02
-6.006699999999999591e+02
-5.713000000000000256e+01
1.232600000000000051e+02
2.825000000000000000e+02
3.425299999999999727e+02
2.478199999999999932e+02
1.875300000000000011e+02
2.005000000000000071e+01
-3.331200000000000045e+02
-7.172899999999999636e+02
-1.601699999999999875e+02
2.952599999999999909e+02
4.008399999999999750e+02
-6.723999999999999488e+01
2.819999999999999840e+00
2.804200000000000159e+02
-4.057200000000000273e+02
-3.935500000000000114e+02
3.568700000000000045e+02
2.577699999999999818e+02
1.042699999999999960e+02
-3.410000000000000142e+01
-1.177600000000000051e+02
-1.287899999999999920e+02
-4.110000000000000320e+00
4.992000000000000171e+01
-8.699999999999999956e-01
-7.487000000000000455e+01
-3.334000000000000341e+01
-7.307999999999999829e+01
6.018999999999999773e+01
6.554000000000000625e+01
3.203999999999999773e+02
-1.710300000000000011e+02
-1.179699999999999989e+02
-4.656000000000000227e+01
-1.338000000000000078e+01
-4.007000000000000028e+01
1.876399999999999864e+02
-1.098799999999999955e+02
-1.161099999999999994e+02
3.185000000000000142e+01
4.815400000000000205e+02
2.431500000000000057e+02
-1.546800000000000068e+02
-6.362999999999999545e+02
2.641499999999999773e+02
-1.821299999999999955e+02
-3.241000000000000227e+02
1.726100000000000136e+02
4.713299999999999841e+02
-1.440300000000000011e+02
2.060999999999999943e+01
2.103100000000000023e+02
-1.438100000000000023e+02
-2.033300000000000125e+02
-1.521000000000000085e+01
1.669099999999999966e+02
1.845099999999999909e+02
5.802000000000000313e+01
5.525999999999999801e+01
1.946699999999999875e+02
-2.743700000000000045e+02
-6.033799999999999955e+02
-1.836999999999999886e+02
2.362199999999999989e+02
5.820499999999999545e+02
3.750000000000000000e+00
-2.784800000000000182e+02
4.500000000000000000e+01
2.590099999999999909e+02
-1.297800000000000011e+02
1.553899999999999864e+02
1.571800000000000068e+02
1.770699999999999932e+02
-1.095499999999999972e+02
-2.660099999999999909e+02
1.754300000000000068e+02
2.180000000000000160e+00
3.392099999999999795e+02
1.478999999999999915e+01
3.343799999999999955e+02
-6.651999999999999602e+01
-3.000000000000000000e+02
-8.329700000000000273e+02
-1.109500000000000028e+02
1.086500000000000057e+02
4.135099999999999909e+02
1.729600000000000080e+02
-8.406000000000000227e+01
5.913000000000000256e+01
-1.650300000000000011e+02
2.620899999999999750e+02
-1.291599999999999966e+02
-9.431000000000000227e+01
-1.418700000000000045e+02
2.776399999999999864e+02
7.757999999999999829e+01
4.418999999999999773e+01
-1.214599999999999937e+02
-6.035000000000000142e+01
1.548700000000000045e+02
1.160400000000000063e+02
3.479999999999999982e+00
-7.148000000000000398e+01
5.709999999999999964e+00
6.796999999999999886e+01
-1.257300000000000040e+02
-2.598999999999999844e+01
2.177800000000000011e+02
1.077000000000000028e+02
-5.410000000000000142e+00
-7.731000000000000227e+01
-1.949999999999999956e+00
2.449600000000000080e+02
-1.560600000000000023e+02
-1.214699999999999989e+02
-1.750500000000000114e+02
6.300000000000000000e+01
3.271000000000000085e+01
-2.797300000000000182e+02
1.777400000000000091e+02
-1.667500000000000000e+02
-8.519999999999999574e+00
2.401699999999999875e+02
-3.296999999999999886e+01
-1.670000000000000000e+02
-1.472500000000000000e+02
2.344199999999999875e+02
-1.639999999999999858e+01
-1.484799999999999898e+02
-1.541200000000000045e+02
1.224899999999999949e+02
2.669900000000000091e+02
8.706000000000000227e+01
-8.772999999999999545e+02
4.172999999999999687e+01
2.001000000000000156e+01
2.782799999999999727e+02
1.706399999999999864e+02
7.135999999999999943e+01
1.173199999999999932e+02
2.361599999999999966e+02
-2.105600000000000023e+02
-3.096399999999999864e+02
4.514999999999999858e+01
-8.792000000000000171e+01
2.028600000000000136e+02
-1.193599999999999994e+02
-2.924399999999999977e+02
3.533500000000000227e+02
1.119480000000000018e+03
-4.573299999999999841e+02
1.282299999999999898e+02
1.021700000000000017e+02
5.720000000000000284e+01
-4.896999999999999886e+01
-2.859999999999999876e+00
-1.340000000000000080e+00
-4.614999999999999858e+01
-1.828000000000000114e+02
-2.514499999999999886e+02
2.175699999999999932e+02
1.954199999999999875e+02
1.955000000000000071e+01
-6.403000000000000114e+01
-1.167099999999999937e+02
2.160099999999999909e+02
-5.415999999999999659e+01
6.818999999999999773e+01
1.564000000000000057e+01
5.519999999999999574e+00
1.239800000000000040e+02
-3.018100000000000023e+02
-8.585999999999999943e+01
2.719999999999999929e+01
-1.753600000000000136e+02
-2.499300000000000068e+02
1.931800000000000068e+02
8.342000000000000171e+01
4.090600000000000023e+02
1.549600000000000080e+02
-8.051999999999999602e+01
5.650000000000000000e+01
-2.200600000000000023e+02
1.846200000000000045e+02
3.499000000000000199e+01
-1.917000000000000171e+01
5.531000000000000227e+01
-2.679300000000000068e+02
1.657800000000000011e+02
2.524199999999999875e+02
-1.765200000000000102e+02
-2.903999999999999915e+01
1.433700000000000045e+02
-4.591800000000000068e+02
-1.630099999999999909e+02
2.305800000000000125e+02
1.625200000000000102e+02
-4.295899999999999750e+02
-1.834000000000000057e+02
2.186299999999999955e+02
1.978999999999999915e+01
5.220000000000000284e+01
7.398999999999999488e+01
-2.430900000000000034e+02
-8.404000000000000625e+01
4.980199999999999818e+02
5.029999999999999716e+01
1.515500000000000114e+02
-4.431000000000000227e+01
-2.056200000000000045e+02
-1.413700000000000045e+02
4.333700000000000045e+02
-1.128700000000000045e+02
-1.295800000000000125e+02
1.763700000000000045e+02
2.413799999999999955e+02
-9.890999999999999659e+01
-1.780699999999999932e+02
-7.070000000000000284e+00
9.640999999999999659e+01
1.490099999999999909e+02
1.619999999999999929e+01
5.685000000000000142e+01
-2.049199999999999875e+02
-1.810500000000000114e+02
-2.434099999999999966e+02
-4.997999999999999687e+01
9.029999999999999716e+01
-1.005699999999999932e+02
1.748000000000000043e+01
3.700699999999999932e+02
3.382400000000000091e+02
-2.491000000000000014e+01
-3.408000000000000114e+02
5.799999999999999822e+00
-2.324000000000000057e+02
-1.034000000000000057e+02
4.286999999999999744e+01
3.671200000000000045e+02
-1.781299999999999955e+02
-1.679300000000000068e+02
1.217099999999999937e+02
-3.324200000000000159e+02
2.993199999999999932e+02
-1.856899999999999977e+02
-2.798000000000000114e+02
1.388199999999999932e+02
2.459000000000000057e+02
-2.740000000000000213e+00
-4.456399999999999864e+02
5.891299999999999955e+02
3.016000000000000014e+01
-2.989300000000000068e+02
-1.435699999999999932e+02
1.053700000000000045e+02
9.470000000000000639e+00
-1.118999999999999950e+01
-1.917500000000000000e+02
-5.228999999999999915e+01
2.489499999999999886e+02
-1.260300000000000011e+02
3.262099999999999795e+02
-2.794399999999999977e+02
-1.644699999999999989e+02
3.215799999999999841e+02
-1.745699999999999932e+02
-9.382999999999999829e+01
4.023100000000000023e+02
2.464099999999999966e+02
2.426999999999999957e+01
3.196000000000000085e+01
-1.229800000000000040e+02
-4.235699999999999932e+02
-2.731700000000000159e+02
-1.549399999999999977e+02
1.175100000000000051e+02
5.456599999999999682e+02
1.457500000000000000e+02
2.137999999999999901e+01
-2.039999999999999858e+01
-3.252000000000000313e+01
-1.785000000000000142e+01
-2.957000000000000028e+01
8.328000000000000114e+01
4.272999999999999687e+01
-8.679999999999999716e+00
7.062000000000000455e+01
8.448999999999999488e+01
-3.107400000000000091e+02
1.544999999999999929e+01
7.040999999999999659e+01
-1.409499999999999886e+02
-9.849999999999999645e+00
2.426399999999999864e+02
3.252099999999999795e+02
-8.412999999999999545e+01
-5.906499999999999773e+02
-3.329399999999999977e+02
1.885300000000000011e+02
3.648999999999999773e+02
1.429000000000000057e+02
-1.000000000000000056e-01
-2.309900000000000091e+02
-5.845399999999999636e+02
-1.697700000000000102e+02
3.634700000000000273e+02
3.896499999999999773e+02
-6.426999999999999602e+01
1.211200000000000045e+02
-7.339000000000000057e+01
-6.167999999999999972e+01
2.180999999999999872e+01
-8.579999999999999716e+01
-1.041800000000000068e+02
4.875000000000000000e+01
1.642100000000000080e+02
1.120400000000000063e+02
-4.125899999999999750e+02
-2.656000000000000227e+02
1.627500000000000000e+02
1.644000000000000057e+02
-6.193999999999999773e+01
9.337999999999999545e+01
4.559000000000000341e+01
1.531000000000000050e+01
-9.807999999999999829e+01
-1.389999999999999902e+00
-3.142000000000000171e+01
5.724000000000000199e+01
5.036999999999999744e+01
-1.006299999999999955e+02
1.508799999999999955e+02
-7.734000000000000341e+01
-2.258499999999999943e+02
1.828400000000000034e+02
1.409199999999999875e+02
-4.035999999999999943e+01
-2.565400000000000205e+02
1.174000000000000021e+01
3.557699999999999818e+02
1.297100000000000080e+02
-2.078400000000000034e+02
-1.570699999999999932e+02
-3.515799999999999841e+02
3.651000000000000227e+02
1.962800000000000011e+02
-6.966499999999999773e+02
-2.442700000000000102e+02
1.720999999999999943e+02
1.377500000000000000e+02
2.520800000000000125e+02
2.188899999999999864e+02
5.168999999999999773e+01
-4.157999999999999829e+01
-7.170000000000000284e+01
-4.934000000000000341e+01
-5.885000000000000142e+01
8.537999999999999545e+01
8.246999999999999886e+01
-2.345000000000000000e+02
-2.437999999999999901e+01
-2.205000000000000071e+01
1.986999999999999886e+02
2.625000000000000000e+01
-1.137900000000000063e+02
-4.240999999999999659e+01
2.050000000000000000e+01
-6.370000000000000107e+00
-2.367999999999999972e+01
-1.000000000000000021e-02
-3.432000000000000028e+01
-3.818999999999999773e+01
3.303999999999999915e+01
8.948000000000000398e+01
1.583499999999999943e+02
-2.625099999999999909e+02
2.421399999999999864e+02
-5.586999999999999744e+01
-4.879999999999999716e+01
3.198999999999999844e+01
-4.079999999999999716e+01
1.841100000000000136e+02
-1.173299999999999983e+02
-8.534000000000000341e+01
-3.773700000000000045e+02
-4.849000000000000199e+01
4.884000000000000341e+01
1.448899999999999864e+02
3.412099999999999795e+02
-3.977000000000000313e+01
-1.624399999999999977e+02
-5.270000000000000284e+01
-1.803999999999999915e+01
1.099000000000000021e+01
7.809000000000000341e+01
1.755000000000000071e+01
4.257000000000000028e+01
-1.157199999999999989e+02
1.043700000000000045e+02
-4.903000000000000114e+01
1.744000000000000128e+01
-5.114999999999999858e+01
1.043999999999999950e+01
1.789999999999999858e+01
7.264000000000000057e+01
1.070900000000000034e+02
1.058100000000000023e+02
-2.663399999999999750e+02
4.839000000000000057e+01
7.860000000000000320e+00
-2.817000000000000171e+01
6.099999999999999867e-01
2.446999999999999886e+01
-4.768999999999999773e+01
-1.883999999999999986e+01
1.969000000000000128e+01
-4.796999999999999886e+01
8.645000000000000284e+01
-1.489999999999999991e+00
2.780999999999999872e+01
-1.101400000000000006e+02
7.193999999999999773e+01
7.325000000000000000e+01
-1.283899999999999864e+02
1.121500000000000057e+02
1.438100000000000023e+02
-2.525999999999999943e+02
2.438100000000000023e+02
1.680999999999999872e+01
-1.170799999999999983e+02
-2.687999999999999901e+01
-1.375000000000000000e+01
6.800000000000000000e+01
-3.418600000000000136e+02
-2.304900000000000091e+02
2.949499999999999886e+02
-3.232599999999999909e+02
1.283300000000000125e+02
6.779600000000000364e+02
-1.380000000000000000e+02
-1.703300000000000125e+02
-4.842000000000000171e+01
1.194000000000000057e+02
-3.600000000000000089e+00
-2.212000000000000099e+01
-2.250699999999999932e+02
-1.104500000000000028e+02
-1.113400000000000034e+02
-1.230600000000000023e+02
1.484099999999999966e+02
1.510699999999999932e+02
3.693199999999999932e+02
-1.595200000000000102e+02
1.073900000000000006e+02
2.010000000000000000e+02
-6.623000000000000398e+01
2.099099999999999966e+02
-3.038799999999999955e+02
-1.224899999999999949e+02
1.437599999999999909e+02
2.153999999999999915e+01
-2.606800000000000068e+02
1.019699999999999989e+02
2.008899999999999864e+02
-2.110000000000000142e+01
-1.174500000000000028e+02
-1.305399999999999920e+02
-1.042699999999999960e+02
1.365300000000000011e+02
1.078799999999999955e+02
-1.000999999999999979e+01
1.082800000000000011e+02
-1.947700000000000102e+02
4.853999999999999915e+01
2.075000000000000000e+01
1.760399999999999920e+02
2.871000000000000085e+01
1.046599999999999966e+02
2.787000000000000099e+01
-4.279399999999999977e+02
6.304999999999999716e+01
3.051000000000000227e+02
2.182700000000000102e+02
-2.080699999999999932e+02
4.709000000000000341e+01
-7.868999999999999773e+01
-5.428500000000000227e+02
-2.724800000000000182e+02
-3.413000000000000256e+01
2.408100000000000023e+02
3.401100000000000136e+02
-1.607999999999999829e+01
-2.236399999999999864e+02
1.380600000000000023e+02
1.967100000000000080e+02
5.717999999999999972e+01
4.053000000000000114e+01
-1.683999999999999986e+01
-6.800000000000000488e-01
-2.385000000000000142e+01
-2.232000000000000028e+01
-4.000000000000000083e-02
-1.555000000000000071e+01
-1.091999999999999993e+01
-7.690000000000000568e+01
1.259000000000000057e+02
7.323000000000000398e+01
4.928000000000000114e+01
-1.032699999999999960e+02
-1.630999999999999872e+01
4.382000000000000028e+01
-1.898999999999999844e+01
4.160000000000000142e+00
-6.280000000000000249e+00
-3.669999999999999929e+00
-1.123000000000000043e+01
-5.349999999999999645e+00
7.900000000000000355e-01
-2.371999999999999886e+01
5.290000000000000036e+00
-1.559999999999999964e+01
1.785999999999999943e+01
4.410000000000000142e+00
3.014000000000000057e+01
-2.776000000000000156e+01
-4.892999999999999972e+01
1.707999999999999829e+01
-2.271000000000000085e+01
3.078999999999999915e+01
-1.892000000000000171e+01
3.051999999999999957e+01
7.190000000000000391e+00
-1.344999999999999929e+01
1.278999999999999915e+01
1.189999999999999947e+00
1.107000000000000028e+01
-4.699999999999999734e-01
1.340000000000000080e+00
-6.780000000000000249e+00
-1.785000000000000142e+01
2.240000000000000213e+00
-2.898000000000000043e+01
7.299999999999999822e-01
-5.969999999999999751e+00
-1.075999999999999979e+01
-1.356200000000000045e+02
4.082000000000000028e+01
1.080699999999999932e+02
3.707000000000000028e+01
9.576000000000000512e+01
-4.160000000000000142e+00
-1.193299999999999983e+02
1.737199999999999989e+02
-1.552999999999999936e+01
-1.825999999999999943e+02
-2.300900000000000034e+02
5.942999999999999972e+01
4.381000000000000227e+01
6.542000000000000171e+01
1.951899999999999977e+02
-1.611500000000000057e+02
-2.084399999999999977e+02
-4.443999999999999773e+01
3.256000000000000227e+01
1.091299999999999955e+02
-2.578000000000000114e+01
-2.583999999999999986e+01
-6.950000000000000000e+01
-8.982999999999999829e+01
-5.882999999999999829e+01
1.422100000000000080e+02
-4.902000000000000313e+01
-3.450999999999999801e+01
3.829999999999999716e+01
-2.878999999999999773e+02
1.538000000000000114e+02
1.276200000000000045e+02
-1.653100000000000023e+02
3.048600000000000136e+02
8.112000000000000455e+01
-2.009799999999999898e+02
-1.214399999999999977e+02
-2.048999999999999844e+01
-3.849000000000000199e+01
-5.670000000000000284e+01
5.402100000000000364e+02
9.629000000000000625e+01
6.667000000000000171e+01
-9.573000000000000398e+01
-3.683000000000000114e+02
-2.473899999999999864e+02
3.726399999999999864e+02
-1.499600000000000080e+02
-4.309000000000000341e+01
-1.329699999999999989e+02
7.864000000000000057e+01
5.270000000000000284e+01
5.669999999999999929e+00
-1.548000000000000114e+02
3.518999999999999773e+01
1.209999999999999964e+00
-8.501999999999999602e+01
1.359099999999999966e+02
-1.119800000000000040e+02
-4.434000000000000341e+01
5.681000000000000227e+01
4.778999999999999915e+01
3.142999999999999972e+01
-2.937999999999999901e+01
8.699999999999999289e+00
-4.956000000000000227e+01
1.223199999999999932e+02
3.589000000000000057e+01
-1.437299999999999898e+02
2.014300000000000068e+02
-1.285099999999999909e+02
-2.291699999999999875e+02
2.643799999999999955e+02
-1.665900000000000034e+02
2.791000000000000014e+01
-3.999700000000000273e+02
2.598199999999999932e+02
1.929300000000000068e+02
-7.670000000000000284e+01
-1.446800000000000068e+02
-9.539000000000000057e+01
2.283999999999999986e+01
-4.870000000000000107e+00
1.264300000000000068e+02
9.640000000000000568e+01
-4.864999999999999858e+01
-8.592000000000000171e+01
-2.909800000000000182e+02
-2.482999999999999829e+01
-4.246000000000000085e+01
-8.365000000000000568e+01
1.677100000000000080e+02
1.514099999999999966e+02
-7.387999999999999545e+01
-2.634599999999999795e+02
2.862900000000000205e+02
-4.521999999999999886e+01
1.219800000000000040e+02
-1.935200000000000102e+02
1.409499999999999886e+02
8.693000000000000682e+01
-2.301100000000000136e+02
-1.811599999999999966e+02
2.774499999999999886e+02
5.910000000000000142e+01
6.029999999999999716e+01
-6.210999999999999943e+01
6.809999999999999609e+00
1.676599999999999966e+02
-1.855000000000000071e+01
-2.328999999999999915e+01
1.244300000000000068e+02
1.287199999999999989e+02
-2.184499999999999886e+02
-4.018999999999999773e+01
5.389999999999999680e+00
2.163799999999999955e+02
-7.734999999999999432e+01
-1.856100000000000136e+02
2.028999999999999915e+01
-4.020000000000000284e+01
4.654999999999999716e+01
1.181099999999999994e+02
2.992599999999999909e+02
-2.889100000000000250e+02
3.193700000000000045e+02
-8.768000000000000682e+01
-6.522699999999999818e+02
1.712800000000000011e+02
-2.646000000000000227e+02
2.520300000000000011e+02
-3.972500000000000000e+02
1.790000000000000000e+02
2.459699999999999989e+02
1.305999999999999943e+02
1.077800000000000011e+02
-2.145300000000000011e+02
-3.759599999999999795e+02
-6.489000000000000057e+01
1.600699999999999932e+02
3.226999999999999886e+02
-2.842200000000000273e+02
-6.531499999999999773e+02
-1.673499999999999943e+02
6.368999999999999773e+01
4.774000000000000199e+01
5.286399999999999864e+02
1.927899999999999920e+02
1.014800000000000040e+02
-8.768999999999999773e+01
1.311999999999999922e+01
6.931999999999999318e+01
-1.692599999999999909e+02
-1.115000000000000036e+01
9.095000000000000284e+01
8.750000000000000000e+00
1.485600000000000023e+02
-6.288000000000000256e+01
-3.892000000000000171e+01
-4.835999999999999943e+01
-1.151200000000000045e+02
-1.333000000000000007e+01
5.265999999999999659e+01
1.395000000000000000e+02
-2.762500000000000000e+02
-4.364700000000000273e+02
-2.004699999999999989e+02
3.896899999999999977e+02
-3.463000000000000256e+01
-3.686999999999999886e+02
-7.062999999999999545e+01
4.706700000000000159e+02
1.310999999999999943e+02
-6.483700000000000045e+02
7.049999999999999822e+00
6.072100000000000364e+02
-4.070199999999999818e+02
3.861999999999999744e+01
7.987999999999999545e+01
-1.760000000000000009e+00
1.298700000000000045e+02
4.077000000000000313e+01
8.470000000000000639e+00
2.505000000000000071e+01
2.603000000000000114e+01
-2.730000000000000071e+01
-1.150000000000000000e+01
-2.051000000000000156e+01
1.590399999999999920e+02
-2.330300000000000011e+02
-3.928000000000000114e+01
-4.728999999999999915e+01
-6.882999999999999829e+01
6.234000000000000341e+01
-1.638799999999999955e+02
1.295399999999999920e+02
2.958999999999999986e+01
-4.013000000000000256e+01
-6.707999999999999829e+01
5.495000000000000284e+01
2.033300000000000125e+02
-4.774000000000000199e+01
-1.182199999999999989e+02
-1.228900000000000006e+02
2.492199999999999989e+02
6.470999999999999375e+01
1.308899999999999864e+02
-1.267000000000000028e+02
-1.325399999999999920e+02
-6.549999999999999822e+00
-9.130000000000000782e+00
6.099999999999999645e+00
3.535999999999999943e+01
6.976000000000000512e+01
-4.621000000000000085e+01
-1.049500000000000028e+02
2.487999999999999901e+01
6.562000000000000455e+01
-2.268799999999999955e+02
-2.321999999999999886e+01
2.705699999999999932e+02
6.006000000000000227e+01
-6.807999999999999829e+01
-2.583999999999999986e+01
-2.119000000000000128e+01
1.228400000000000034e+02
1.822100000000000080e+02
1.182199999999999989e+02
1.280099999999999909e+02
-4.739000000000000057e+01
-3.314200000000000159e+02
-1.289699999999999989e+02
-1.191500000000000057e+02
-2.685199999999999818e+02
4.102400000000000091e+02
1.083199999999999932e+02
-8.031000000000000227e+01
4.595000000000000284e+01
-1.545300000000000011e+02
-3.293999999999999773e+01
5.312100000000000364e+02
-2.291000000000000014e+01
5.232000000000000028e+01
-2.026999999999999957e+01
6.313000000000000256e+01
1.209000000000000057e+02
4.246999999999999886e+01
-3.162500000000000000e+02
-1.217099999999999937e+02
3.666000000000000227e+02
-2.751100000000000136e+02
4.680199999999999818e+02
2.180000000000000071e+01
-3.672999999999999687e+01
1.014599999999999937e+02
9.037999999999999545e+01
-4.098700000000000045e+02
6.917000000000000171e+01
-3.029700000000000273e+02
-3.847999999999999687e+01
9.743000000000000682e+01
-1.513000000000000078e+01
-2.526000000000000156e+01
-4.597999999999999687e+01
1.070499999999999972e+02
1.488100000000000023e+02
-3.659300000000000068e+02
-4.789999999999999858e+01
-1.985699999999999932e+02
2.230300000000000011e+02
1.053700000000000045e+02
3.702000000000000313e+01
2.642999999999999972e+01
-6.322999999999999687e+01
7.712999999999999545e+01
1.290600000000000023e+02
-6.363000000000000256e+01
-3.272900000000000205e+02
1.981999999999999886e+02
9.593000000000000682e+01
-2.662300000000000182e+02
-7.009000000000000341e+01
1.586399999999999864e+02
-7.390000000000000568e+01
-1.873000000000000043e+01
9.499999999999999556e-01
3.925000000000000000e+01
2.387999999999999901e+01
-1.122999999999999972e+02
6.725000000000000000e+01
2.971700000000000159e+02
-3.471999999999999886e+01
-2.810000000000000000e+02
-2.554900000000000091e+02
-3.028999999999999773e+02
-3.744499999999999886e+02
3.354399999999999977e+02
4.488600000000000136e+02
3.014000000000000057e+01
-1.530000000000000027e+00
1.432199999999999989e+02
-1.982599999999999909e+02
2.152400000000000091e+02
1.216000000000000014e+01
-2.110500000000000114e+02
1.484999999999999964e+01
-1.086400000000000006e+02
2.092000000000000171e+01
8.293000000000000682e+01
1.464000000000000057e+02
5.689000000000000057e+01
2.919000000000000128e+01
8.812999999999999545e+01
1.235999999999999943e+02
-1.107800000000000011e+02
-1.486699999999999875e+02
-3.397099999999999795e+02
-1.485300000000000011e+02
-1.540399999999999920e+02
6.730000000000000426e+00
1.001700000000000017e+02
2.444000000000000128e+01
4.217300000000000182e+02
-1.061200000000000045e+02
3.624800000000000182e+02
4.667000000000000171e+01
-3.965000000000000000e+02
-1.191899999999999977e+02
2.205699999999999932e+02
-2.630699999999999932e+02
-2.725000000000000000e+02
4.498799999999999955e+02
-1.323499999999999943e+02
-4.235600000000000023e+02
3.987300000000000182e+02
-1.132900000000000063e+02
1.423000000000000043e+01
-6.721599999999999682e+02
-1.038400000000000034e+02
3.241200000000000045e+02
2.023400000000000034e+02
7.493999999999999773e+02
-2.753100000000000023e+02
-4.603899999999999864e+02
-3.148000000000000043e+01
-1.608799999999999955e+02
2.169999999999999929e+00
4.085500000000000114e+02
-1.973000000000000043e+01
8.725000000000000000e+01
-4.892999999999999972e+01
-2.218600000000000136e+02
1.270100000000000051e+02
1.474499999999999886e+02
-1.573300000000000125e+02
5.872999999999999687e+01
1.092500000000000000e+02
-1.507899999999999920e+02
4.247999999999999687e+01
-2.329900000000000091e+02
4.549000000000000199e+01
5.257000000000000028e+01
3.419999999999999929e+00
1.256200000000000045e+02
-1.981800000000000068e+02
1.582700000000000102e+02
-6.324000000000000199e+01
2.271000000000000085e+01
-9.673999999999999488e+01
-4.166299999999999955e+02
-2.559900000000000091e+02
-1.637000000000000099e+01
2.961399999999999864e+02
2.712799999999999727e+02
2.366000000000000014e+01
-2.044000000000000128e+01
-4.317000000000000171e+01
2.494000000000000128e+01
1.333499999999999943e+02
1.520000000000000000e+02
-1.034599999999999937e+02
-1.600600000000000023e+02
-6.549999999999999822e+00
-7.859000000000000341e+01
-1.994999999999999929e+01
2.335000000000000142e+01
-3.306000000000000227e+01
-1.259999999999999964e+01
2.614999999999999858e+01
-5.485999999999999943e+01
-1.041999999999999993e+01
8.748999999999999488e+01
-3.571000000000000085e+01
-1.311800000000000068e+02
1.566800000000000068e+02
1.363000000000000078e+01
-1.508499999999999943e+02
-2.125000000000000000e+01
1.695999999999999943e+02
1.573000000000000043e+01
-8.460999999999999943e+01
1.475399999999999920e+02
-1.861899999999999977e+02
1.837100000000000080e+02
-2.058999999999999986e+01
-2.457400000000000091e+02
9.731000000000000227e+01
6.347999999999999687e+01
5.250000000000000000e+00
-1.035900000000000034e+02
7.229000000000000625e+01
8.581999999999999318e+01
3.206000000000000227e+01
-2.348000000000000043e+01
8.587999999999999545e+01
-4.377000000000000313e+01
6.445000000000000284e+01
1.090799999999999983e+02
-2.620500000000000114e+02
1.052699999999999960e+02
-1.079399999999999977e+02
3.020699999999999932e+02
-1.202500000000000000e+02
-1.516999999999999886e+02
1.780099999999999909e+02
-3.261299999999999955e+02
-2.470699999999999932e+02
1.287500000000000000e+02
2.150399999999999920e+02
-2.381299999999999955e+02
-3.115099999999999909e+02
2.235500000000000114e+02
3.056100000000000136e+02
-1.656500000000000057e+02
1.428199999999999932e+02
-9.959000000000000341e+01
-1.800000000000000000e+02
5.527000000000000313e+01
9.768999999999999773e+01
1.135999999999999943e+01
-3.302000000000000313e+01
6.128000000000000114e+01
-9.531000000000000227e+01
-1.183299999999999983e+02
-5.646999999999999886e+01
7.303000000000000114e+01
-1.789199999999999875e+02
1.836800000000000068e+02
-1.532599999999999909e+02
9.682999999999999829e+01
-1.163100000000000023e+02
1.668600000000000136e+02
4.959999999999999964e+00
-4.377000000000000313e+01
1.255000000000000000e+02
-1.042099999999999937e+02
-6.676000000000000512e+01
1.308600000000000136e+02
-4.029999999999999716e+01
5.060999999999999943e+01
-5.556000000000000227e+01
-2.880999999999999872e+01
1.058400000000000034e+02
-1.219000000000000057e+02
2.310999999999999943e+01
9.779000000000000625e+01
-7.467000000000000171e+01
-1.858499999999999943e+02
1.482299999999999898e+02
1.592100000000000080e+02
-3.014999999999999858e+01
-6.895999999999999375e+01
6.484999999999999432e+01
-3.665999999999999659e+01
3.180000000000000071e+01
2.637999999999999901e+01
1.455300000000000011e+02
-1.629799999999999898e+02
1.693499999999999943e+02
-8.381000000000000227e+01
2.469999999999999929e+01
-2.501999999999999957e+01
5.442999999999999972e+01
1.519600000000000080e+02
-6.509000000000000341e+01
-1.041400000000000006e+02
2.336100000000000136e+02
2.396999999999999886e+02
-1.607299999999999898e+02
-4.143399999999999750e+02
-1.440800000000000125e+02
-1.310300000000000011e+02
-3.289999999999999858e+01
1.275799999999999983e+02
1.939300000000000068e+02
6.200999999999999801e+01
3.182999999999999829e+01
7.581999999999999318e+01
-1.973100000000000023e+02
-2.755999999999999872e+01
-4.207400000000000091e+02
1.936100000000000136e+02
1.073400000000000034e+02
4.825999999999999801e+01
-1.771000000000000085e+01
1.773000000000000043e+01
7.206999999999999318e+01
-1.184999999999999964e+01
3.302000000000000313e+01
1.139899999999999949e+02
-7.323999999999999488e+01
-6.809999999999999609e+00
3.250000000000000000e+01
7.932999999999999829e+01
-4.556000000000000227e+01
-7.031999999999999318e+01
-2.380000000000000071e+01
-4.780000000000000249e+00
-2.255000000000000071e+01
-5.365999999999999659e+01
8.751000000000000512e+01
8.737999999999999545e+01
1.866000000000000014e+01
-9.153000000000000114e+01
-6.161999999999999744e+01
-2.053000000000000114e+01
1.194300000000000068e+02
1.023000000000000043e+01
-4.678999999999999915e+01
-9.699999999999999289e+00
-2.640000000000000124e+00
6.186999999999999744e+01
-2.500600000000000023e+02
-2.157999999999999829e+01
1.500300000000000011e+02
1.417999999999999972e+01
-5.434000000000000341e+01
-5.450000000000000178e+00
-8.259999999999999787e+00
1.755000000000000071e+01
2.853999999999999915e+01
1.091000000000000014e+01
-3.003000000000000114e+01
-1.039000000000000057e+01
-4.699999999999999734e-01
8.740000000000000213e+00
6.410000000000000142e+00
6.870000000000000107e+00
2.426000000000000156e+01
-7.490999999999999659e+01
1.635600000000000023e+02
-4.289999999999999858e+01
-1.525999999999999943e+02
-3.014000000000000057e+01
1.321000000000000085e+01
-2.569999999999999840e+00
1.066999999999999993e+01
8.000000000000000167e-02
1.243999999999999950e+01
-1.566999999999999993e+01
-8.099999999999999645e+00
-6.980000000000000426e+00
-3.585000000000000142e+01
3.000000000000000000e+01
1.085999999999999943e+01
-5.450000000000000178e+00
-3.614000000000000057e+01
-4.089999999999999858e+00
3.910000000000000142e+01
4.440000000000000391e+00
-8.119999999999999218e+00
-5.628999999999999915e+01
8.668000000000000682e+01
4.679999999999999716e+01
-2.841000000000000014e+01
-7.259999999999999787e+00
4.390999999999999659e+01
3.800000000000000044e-01
-2.535999999999999943e+01
1.418999999999999950e+01
-4.769999999999999574e+00
9.520000000000000284e+01
2.874200000000000159e+02
2.842000000000000171e+01
7.668000000000000682e+01
4.614000000000000057e+01
-1.034599999999999937e+02
2.694000000000000128e+01
-5.543999999999999773e+01
-6.537999999999999545e+01
-9.040999999999999659e+01
-1.963100000000000023e+02
-5.359299999999999500e+02
-4.989700000000000273e+02
2.212999999999999901e+01
1.394099999999999966e+02
1.458400000000000034e+02
4.678399999999999750e+02
3.333000000000000114e+02
2.148100000000000023e+02
-2.299600000000000080e+02
-2.438700000000000045e+02
1.995800000000000125e+02
2.490800000000000125e+02
1.654399999999999977e+02
1.189599999999999937e+02
-3.190099999999999909e+02
2.442000000000000171e+01
5.952000000000000455e+02
-3.859900000000000091e+02
1.034699999999999989e+02
-6.334000000000000341e+01
-1.229099999999999966e+02
-3.381000000000000227e+01
4.792999999999999972e+01
7.434999999999999432e+01
-2.993199999999999932e+02
8.968000000000000682e+01
3.015299999999999727e+02
4.992000000000000171e+01
-1.041899999999999977e+02
2.788500000000000227e+02
3.790999999999999659e+01
-6.509700000000000273e+02
3.579499999999999886e+02
2.739999999999999858e+01
4.132000000000000028e+01
1.994600000000000080e+02
-3.789100000000000250e+02
-5.646000000000000085e+01
-2.682999999999999829e+01
2.259799999999999898e+02
2.846999999999999886e+01
-6.600000000000000311e-01
7.334000000000000341e+01
-1.043199999999999932e+02
4.384000000000000341e+01
1.299199999999999875e+02
1.432700000000000102e+02
-1.271700000000000017e+02
-8.521999999999999886e+01
1.814300000000000068e+02
-3.506600000000000250e+02
-8.397500000000000000e+02
6.385099999999999909e+02
8.139000000000000057e+01
7.067000000000000171e+01
6.598000000000000398e+01
6.350999999999999801e+01
-4.971000000000000085e+01
-4.333799999999999955e+02
1.157199999999999989e+02
2.211500000000000057e+02
2.169199999999999875e+02
1.834799999999999898e+02
3.120099999999999909e+02
-2.083700000000000045e+02
-2.426999999999999886e+02
1.711100000000000136e+02
-2.204099999999999966e+02
2.504699999999999989e+02
4.604999999999999716e+01
-1.396599999999999966e+02
-1.918700000000000045e+02
-3.192000000000000171e+01
1.100000000000000006e-01
1.804300000000000068e+02
-1.601599999999999966e+02
5.029999999999999716e+01
-2.691000000000000227e+02
2.048700000000000045e+02
5.389999999999999858e+01
-5.375999999999999801e+01
-2.154099999999999966e+02
2.375900000000000034e+02
2.573000000000000043e+01
1.554000000000000057e+02
-2.127700000000000102e+02
1.796800000000000068e+02
-3.039999999999999858e+01
-8.635999999999999943e+01
-2.269699999999999989e+02
8.376000000000000512e+01
3.799300000000000068e+02
2.538300000000000125e+02
-5.885999999999999943e+01
-3.615299999999999727e+02
1.822899999999999920e+02
-3.952699999999999818e+02
1.430200000000000102e+02
3.172599999999999909e+02
1.386399999999999864e+02
1.190699999999999932e+02
2.342500000000000000e+02
-2.155000000000000000e+02
-8.153000000000000114e+01
9.818000000000000682e+01
7.065999999999999659e+01
-3.918999999999999773e+01
-7.054999999999999716e+01
-2.571600000000000250e+02
3.214000000000000057e+01
3.493100000000000023e+02
4.907999999999999829e+01
-6.906999999999999318e+01
-2.885000000000000142e+01
8.037999999999999545e+01
1.135600000000000023e+02
-8.764000000000000057e+01
-1.974000000000000057e+02
-2.183999999999999986e+01
-4.503000000000000114e+01
-1.177199999999999989e+02
1.305500000000000114e+02
2.071000000000000085e+01
3.646200000000000045e+02
1.592199999999999989e+02
1.407000000000000028e+01
-2.085800000000000125e+02
-1.276700000000000017e+02
-6.354999999999999716e+01
1.525000000000000000e+01
2.280999999999999872e+01
6.432999999999999829e+01
5.000999999999999801e+01
-6.274000000000000199e+01
3.378000000000000114e+01
2.554499999999999886e+02
1.437899999999999920e+02
-2.133700000000000045e+02
-1.769000000000000128e+01
-1.192999999999999972e+01
-4.814000000000000057e+01
1.252600000000000051e+02
-1.565500000000000114e+02
-2.944000000000000128e+01
6.696999999999999886e+01
-1.269800000000000040e+02
1.916800000000000068e+02
-3.235099999999999909e+02
-2.451699999999999875e+02
3.043600000000000136e+02
1.132000000000000028e+02
5.759999999999999787e+00
3.554999999999999716e+01
-4.240000000000000213e+00
4.389999999999999680e+00
-2.873000000000000043e+01
-1.730600000000000023e+02
8.348999999999999488e+01
-3.322999999999999687e+01
-1.260000000000000009e+00
1.070000000000000062e+00
9.090999999999999659e+01
-1.855000000000000071e+01
4.442999999999999972e+01
2.123000000000000043e+01
-6.914000000000000057e+01
5.089000000000000057e+01
2.200000000000000011e-01
7.709999999999999964e+00
-8.699999999999999289e+00
3.460999999999999943e+01
-5.179999999999999716e+00
-2.364999999999999858e+01
-1.712000000000000099e+01
3.859999999999999876e+00
3.911999999999999744e+01
-2.023000000000000043e+01
1.056599999999999966e+02
-1.235100000000000051e+02
-4.325999999999999801e+01
5.152000000000000313e+01
-4.280000000000000249e+00
-5.690000000000000391e+00
8.050000000000000711e+00
8.498999999999999488e+01
-2.600000000000000089e-01
-9.939000000000000057e+01
-3.756000000000000227e+01
3.292000000000000171e+01
1.382000000000000028e+01
1.428999999999999915e+01
2.235000000000000142e+01
2.355000000000000071e+01
1.678000000000000114e+01
9.259999999999999787e+00
-6.540000000000000568e+01
1.390000000000000036e+01
-1.628000000000000114e+01
-5.525999999999999801e+01
9.839999999999999858e+00
-4.230000000000000426e+00
4.690000000000000391e+00
-8.454000000000000625e+01
1.726000000000000156e+01
-2.269999999999999929e+01
6.937999999999999545e+01
-7.240000000000000213e+00
-2.153999999999999915e+01
6.509999999999999787e+00
-6.660000000000000142e+00
-9.039999999999999147e+00
3.453999999999999915e+01
1.620000000000000107e+00
-4.839000000000000057e+01
9.190999999999999659e+01
-6.315999999999999659e+01
-4.632000000000000028e+01
4.974000000000000199e+01
4.361999999999999744e+01
-3.699999999999999956e-01
-1.116000000000000014e+01
-8.660000000000000142e+00
-1.489000000000000057e+01
-1.004800000000000040e+02
2.074300000000000068e+02
9.771999999999999886e+01
-8.548999999999999488e+01
1.283400000000000034e+02
4.028000000000000114e+01
-1.604699999999999989e+02
1.187099999999999937e+02
7.459000000000000341e+01
9.085999999999999943e+01
2.687999999999999901e+01
-6.531999999999999318e+01
4.082000000000000028e+01
-1.133199999999999932e+02
-3.144000000000000128e+01
1.251999999999999957e+01
3.249000000000000199e+01
-2.769999999999999929e+01
-3.252000000000000313e+01
-1.762999999999999901e+01
3.765999999999999659e+01
-5.330000000000000071e+00
-1.279200000000000017e+02
2.999399999999999977e+02
2.239099999999999966e+02
-6.017000000000000171e+01
-2.946600000000000250e+02
-1.471500000000000057e+02
2.061299999999999955e+02
2.075399999999999920e+02
6.834999999999999432e+01
5.570000000000000284e+00
-1.753000000000000114e+01
7.160000000000000142e+00
5.724000000000000199e+01
3.503000000000000114e+01
-6.275000000000000000e+01
1.619000000000000057e+02
9.710999999999999943e+01
-5.710399999999999636e+02
-2.195900000000000034e+02
2.525000000000000000e+02
2.274699999999999989e+02
5.304999999999999716e+01
-5.479999999999999716e+01
-2.858999999999999986e+01
-4.750000000000000000e+00
-3.750000000000000000e+00
5.625999999999999801e+01
-1.957000000000000028e+01
-2.817999999999999972e+01
-2.636000000000000227e+02
1.150499999999999972e+02
2.641499999999999773e+02
2.401999999999999957e+01
-9.804000000000000625e+01
-9.740000000000000213e+00
2.857999999999999829e+01
-4.124000000000000199e+01
3.868999999999999773e+01
-3.777000000000000313e+01
2.292999999999999972e+01
-1.230000000000000071e+01
-1.298000000000000043e+01
2.194000000000000128e+01
1.378999999999999915e+01
-8.203000000000000114e+01
-1.152999999999999936e+01
5.924000000000000199e+01
-4.299999999999999933e-01
-2.219000000000000128e+01
-5.250000000000000000e+00
1.133000000000000007e+01
-1.021000000000000085e+01
1.825000000000000000e+01
1.907000000000000028e+01
4.617000000000000171e+01
3.775999999999999801e+01
-6.537000000000000455e+01
-1.925600000000000023e+02
1.998199999999999932e+02
-1.525999999999999979e+01
-4.560999999999999943e+01
-3.709999999999999964e+00
-3.160000000000000142e+00
-1.265000000000000000e+02
1.654300000000000068e+02
3.554999999999999716e+01
-3.029999999999999805e+00
3.917999999999999972e+01
-1.398499999999999943e+02
6.374000000000000199e+01
2.892000000000000171e+01
1.265000000000000036e+01
2.528999999999999915e+01
-6.551999999999999602e+01
-1.782999999999999829e+01
3.130999999999999872e+01
-1.434999999999999964e+01
-7.160000000000000142e+00
-9.539999999999999147e+00
-1.500999999999999979e+01
5.179999999999999716e+00
-5.299000000000000199e+01
-1.076999999999999957e+01
2.876000000000000156e+01
5.280000000000000249e+00
-2.617000000000000171e+01
-3.049999999999999822e+00
-1.366000000000000014e+01
1.855000000000000071e+01
3.029999999999999805e+00
-5.711999999999999744e+01
-3.048999999999999844e+01
-2.985000000000000142e+01
3.353999999999999915e+01
5.860000000000000320e+00
-5.752000000000000313e+01
2.521000000000000085e+01
-1.434999999999999964e+01
-1.907999999999999829e+01
4.804999999999999716e+01
-4.500999999999999801e+01
-2.251999999999999957e+01
2.408999999999999986e+01
1.905000000000000071e+01
4.018999999999999773e+01
-3.590999999999999659e+01
-1.589000000000000057e+01
4.938000000000000256e+01
-7.450000000000000178e+00
-1.703999999999999915e+01
1.721000000000000085e+01
-1.499999999999999944e-01
-1.424000000000000021e+01
5.524000000000000199e+01
3.570000000000000284e+01
3.475000000000000000e+01
-1.119899999999999949e+02
-7.648999999999999488e+01
1.920000000000000000e+02
-1.933999999999999986e+01
4.378999999999999915e+01
4.531000000000000227e+01
-2.044000000000000128e+01
-5.624000000000000199e+01
-9.512000000000000455e+01
8.056000000000000227e+01
4.265999999999999659e+01
-2.319999999999999840e+00
1.805999999999999872e+01
5.240000000000000213e+00
-9.689999999999999503e+00
-5.830000000000000071e+00
5.209999999999999964e+00
2.542999999999999972e+01
2.491000000000000014e+01
3.496999999999999886e+01
-1.678000000000000114e+01
-3.066000000000000014e+01
1.080000000000000071e+01
3.680000000000000160e+00
1.366999999999999993e+01
4.900000000000000355e+00
2.549999999999999822e+00
-1.301999999999999957e+01
1.331000000000000050e+01
-3.169999999999999929e+00
-1.183999999999999986e+01
4.049999999999999822e+00
9.830000000000000071e+00
2.830999999999999872e+01
2.576000000000000156e+01
-4.310000000000000142e+01
5.270000000000000284e+01
5.688000000000000256e+01
-3.496999999999999886e+01
-1.117300000000000040e+02
1.101999999999999957e+01
-6.299000000000000199e+01
-2.116000000000000014e+01
-7.700000000000000178e-01
6.889999999999999680e+00
2.123000000000000043e+01
3.055000000000000071e+01
-6.200000000000000178e+00
-2.305000000000000071e+01
1.325999999999999979e+01
3.589000000000000057e+01
3.910000000000000142e+01
7.360000000000000320e+00
1.267000000000000028e+02
-1.239300000000000068e+02
-2.935999999999999943e+01
-6.431999999999999318e+01
-3.621999999999999886e+01
-5.839999999999999858e+00
2.292000000000000171e+01
-1.153999999999999915e+01
5.311999999999999744e+01
2.389999999999999858e+01
-8.345999999999999375e+01
-3.754999999999999716e+01
2.396000000000000085e+01
5.281000000000000227e+01
7.650000000000000355e+00
-1.746000000000000085e+01
-1.820000000000000062e+00
-1.459999999999999964e+01
8.859999999999999432e+00
-6.196999999999999886e+01
-8.099999999999999645e+00
4.109000000000000341e+01
3.554999999999999716e+01
-1.247000000000000064e+01
-2.719999999999999929e+01
-2.692000000000000171e+01
-3.260999999999999943e+01
3.353000000000000114e+01
7.150000000000000000e+01
-8.310999999999999943e+01
-1.932000000000000028e+01
-8.581000000000000227e+01
-1.041999999999999993e+01
-1.268999999999999950e+01
1.532000000000000028e+01
5.639999999999999680e+00
1.637000000000000099e+01
3.827000000000000313e+01
-1.557000000000000028e+01
-9.859999999999999432e+00
-1.567999999999999972e+01
3.192999999999999972e+01
-5.892999999999999972e+01
2.910000000000000142e+01
1.494999999999999929e+01
3.439999999999999947e+00
-1.835999999999999943e+01
1.748000000000000043e+01
3.000000000000000000e+00
3.286999999999999744e+01
-5.256000000000000227e+01
-1.336999999999999922e+01
3.125000000000000000e+01
-1.209999999999999964e+00
-8.849999999999999645e+00
-2.700000000000000178e-01
-1.513000000000000078e+01
3.564999999999999858e+01
-1.446000000000000085e+01
-1.455000000000000071e+01
1.649999999999999911e+00
-1.091999999999999993e+01
4.343999999999999773e+01
-6.200000000000000178e+00
-2.437999999999999901e+01
-9.070999999999999375e+01
-4.331000000000000227e+01
3.585000000000000142e+01
6.971999999999999886e+01
-3.522999999999999687e+01
3.667999999999999972e+01
3.879999999999999716e+01
-7.643999999999999773e+01
-1.497000000000000064e+01
3.418999999999999773e+01
1.955999999999999872e+01
-1.987999999999999901e+01
2.389000000000000057e+01
-6.600000000000000311e-01
-1.432000000000000028e+01
-1.912999999999999901e+01
4.040000000000000036e+00
1.382000000000000028e+01
4.349999999999999645e+00
2.483999999999999986e+01
2.183999999999999986e+01
6.850000000000000000e+01
-8.793999999999999773e+01
-6.509000000000000341e+01
-7.769999999999999574e+00
4.349999999999999645e+00
1.950000000000000000e+01
2.287999999999999901e+01
-2.000000000000000111e-01
-4.129999999999999893e+00
8.570000000000000284e+00
-5.629999999999999893e+00
3.200999999999999801e+01
9.730000000000000426e+00
-6.046000000000000085e+01
-2.130000000000000071e+01
-1.875000000000000000e+01
-1.750000000000000000e+00
3.725000000000000000e+01
3.657999999999999829e+01
-7.481000000000000227e+01
-9.728000000000000114e+01
3.814999999999999858e+01
6.578000000000000114e+01
-4.359000000000000341e+01
2.869999999999999929e+01
9.089999999999999858e+00
-4.520000000000000284e+01
-8.000000000000000444e-01
-3.431000000000000227e+01
-2.269000000000000128e+01
2.870000000000000107e+00
4.977000000000000313e+01
9.285999999999999943e+01
-1.275999999999999979e+01
-4.672999999999999687e+01
5.190000000000000391e+00
-4.121000000000000085e+01
-2.821999999999999886e+01
-4.575999999999999801e+01
2.826000000000000156e+01
4.995000000000000284e+01
2.101000000000000156e+01
1.700000000000000000e+01
4.906000000000000227e+01
-7.803000000000000114e+01
-4.900000000000000355e+00
-7.506999999999999318e+01
1.446000000000000085e+01
3.439999999999999947e+00
-9.580000000000000071e+00
-2.817000000000000171e+01
8.150000000000000355e+00
-6.320000000000000284e+00
8.949999999999999289e+00
4.286999999999999744e+01
9.723999999999999488e+01
1.667899999999999920e+02
-3.731499999999999773e+02
-8.048000000000000398e+01
3.882000000000000028e+01
1.069200000000000017e+02
7.640999999999999659e+01
-7.878000000000000114e+01
-2.025399999999999920e+02
2.339399999999999977e+02
1.403799999999999955e+02
-5.197999999999999687e+01
9.130000000000000782e+00
-2.112999999999999901e+01
-2.328999999999999915e+01
-5.750000000000000000e+00
6.685999999999999943e+01
-1.117000000000000028e+02
-4.485299999999999727e+02
-6.146999999999999886e+01
-4.064000000000000057e+01
1.932999999999999829e+01
6.637000000000000455e+01
2.808500000000000227e+02
8.828099999999999454e+02
-6.937500000000000000e+02
-6.273899999999999864e+02
-4.250999999999999801e+01
-7.717000000000000171e+01
2.311399999999999864e+02
-2.542000000000000171e+01
7.143000000000000682e+01
5.927000000000000313e+01
2.250600000000000023e+02
-1.257600000000000051e+02
-6.681900000000000546e+02
1.081299999999999955e+02
2.173799999999999955e+02
1.373000000000000043e+01
-9.609999999999999432e+00
9.689999999999999503e+00
-7.059000000000000341e+01
-3.517999999999999972e+01
1.063000000000000078e+01
2.875000000000000000e+01
-2.132999999999999829e+01
-5.240000000000000213e+00
-7.389999999999999680e+00
1.047000000000000064e+01
6.889999999999999680e+00
-5.535999999999999943e+01
-2.982999999999999829e+01
1.826000000000000156e+01
-6.100999999999999801e+01
5.795000000000000284e+01
-6.309999999999999609e+00
-1.500999999999999979e+01
3.005999999999999872e+01
-6.489000000000000057e+01
4.060999999999999943e+01
4.142000000000000171e+01
-5.036999999999999744e+01
-5.900000000000000355e+00
1.328999999999999915e+01
-4.278000000000000114e+01
1.404300000000000068e+02
2.925000000000000000e+01
-2.092400000000000091e+02
-1.895999999999999943e+02
7.673000000000000398e+01
1.375500000000000114e+02
4.281499999999999773e+02
2.194000000000000128e+01
1.178100000000000023e+02
1.154899999999999949e+02
-1.485999999999999943e+01
-1.234599999999999937e+02
-1.206599999999999966e+02
-1.857700000000000102e+02
-4.903100000000000023e+02
-1.260900000000000034e+02
2.330800000000000125e+02
3.931100000000000136e+02
5.125199999999999818e+02
-2.147400000000000091e+02
-4.172799999999999727e+02
-2.431599999999999966e+02
-3.378999999999999915e+01
9.787000000000000455e+01
2.939599999999999795e+02
-3.142000000000000171e+01
1.662199999999999989e+02
-8.599999999999999645e+00
-3.178999999999999915e+01
-5.367999999999999972e+01
4.969999999999999751e+00
-4.438000000000000256e+01
-5.900000000000000355e+00
-3.680000000000000160e+00
-2.003000000000000114e+01
1.307000000000000028e+01
2.823999999999999844e+01
-3.799999999999999822e+00
3.044999999999999929e+01
5.442000000000000171e+01
-2.003000000000000114e+01
-5.499000000000000199e+01
-2.221000000000000085e+01
-1.397000000000000064e+01
-1.625000000000000000e+01
-4.935999999999999943e+01
2.192000000000000171e+01
2.103999999999999915e+01
-4.464000000000000057e+01
1.269800000000000040e+02
-1.626699999999999875e+02
2.285200000000000102e+02
7.715999999999999659e+01
-1.208400000000000034e+02
-4.607599999999999909e+02
-7.684900000000000091e+02
3.581499999999999773e+02
2.346399999999999864e+02
1.012600000000000051e+02
2.000000000000000111e-01
-5.089999999999999858e+00
5.315999999999999659e+01
2.550500000000000114e+02
1.066500000000000057e+02
4.706000000000000227e+01
-2.237999999999999901e+01
-1.737000000000000099e+01
-4.250000000000000000e+00
-6.250000000000000000e+00
-3.810000000000000053e+00
2.133999999999999986e+01
1.059899999999999949e+02
4.933999999999999773e+02
-4.253899999999999864e+02
-4.076499999999999773e+02
-9.781000000000000227e+01
5.870000000000000284e+01
2.028000000000000114e+01
7.293000000000000682e+01
1.618100000000000023e+02
4.246000000000000085e+01
-1.846999999999999886e+01
-5.745000000000000284e+01
-2.067400000000000091e+02
-2.193199999999999932e+02
2.201999999999999957e+01
4.096000000000000085e+01
6.682999999999999829e+01
4.338000000000000256e+01
-2.796000000000000085e+01
2.303000000000000114e+01
-6.519999999999999574e+00
9.300000000000000488e-01
2.919999999999999929e+00
6.990000000000000213e+00
-2.978999999999999915e+01
-1.566999999999999993e+01
3.490000000000000213e+00
3.645000000000000284e+01
2.705000000000000071e+01
-3.149599999999999795e+02
3.373299999999999841e+02
1.492800000000000011e+02
-2.828000000000000114e+01
-1.471299999999999955e+02
-7.240999999999999659e+01
-4.607000000000000028e+01
1.249300000000000068e+02
3.301600000000000250e+02
7.037999999999999545e+01
-7.754999999999999716e+01
2.562999999999999901e+01
-5.257999999999999829e+01
-2.700000000000000000e+01
-6.625000000000000000e+01
-2.339499999999999886e+02
2.833100000000000023e+02
8.818999999999999773e+01
1.007500000000000000e+02
-1.258400000000000034e+02
-7.893999999999999773e+01
-9.740999999999999659e+01
8.490000000000000568e+01
2.406500000000000057e+02
-1.828499999999999943e+02
-1.161500000000000057e+02
-2.505000000000000071e+01
1.277300000000000040e+02
8.293000000000000682e+01
1.798899999999999864e+02
-8.121999999999999886e+01
-1.222199999999999989e+02
-5.357999999999999829e+01
3.052799999999999727e+02
-3.689000000000000057e+01
-2.264199999999999875e+02
4.857000000000000028e+01
2.999999999999999889e-02
-1.789199999999999875e+02
7.382999999999999829e+01
-1.207800000000000011e+02
-8.878000000000000114e+01
-2.737999999999999901e+01
-3.096999999999999886e+01
1.173000000000000043e+01
-3.529999999999999805e+00
-2.260000000000000142e+01
-1.141000000000000014e+01
-2.101000000000000156e+01
4.332000000000000028e+01
4.003999999999999915e+01
-2.119999999999999929e+01
-7.848000000000000398e+01
-7.542000000000000171e+01
-2.614999999999999858e+01
3.447999999999999687e+01
2.290200000000000102e+02
2.562599999999999909e+02
2.724700000000000273e+02
-2.115399999999999920e+02
-2.270500000000000114e+02
-4.082400000000000091e+02
1.115000000000000000e+02
8.293999999999999773e+01
-2.645299999999999727e+02
-4.175000000000000000e+01
1.312599999999999909e+02
4.177200000000000273e+02
2.715500000000000114e+02
-1.669000000000000057e+02
-1.037199999999999989e+02
9.140999999999999659e+01
2.250000000000000000e+00
7.292000000000000171e+01
1.619999999999999929e+01
3.721000000000000227e+02
-3.275699999999999932e+02
1.386999999999999886e+02
3.374000000000000199e+01
-9.004000000000000625e+01
-4.076899999999999977e+02
-5.233600000000000136e+02
-2.392999999999999972e+01
6.414000000000000057e+01
8.493999999999999773e+01
-9.493000000000000682e+01
1.616699999999999875e+02
4.171999999999999886e+02
3.413500000000000227e+02
-6.099999999999999645e+00
-1.361999999999999922e+01
-2.692999999999999972e+01
-4.754999999999999716e+01
-4.220000000000000284e+01
2.718199999999999932e+02
9.269500000000000455e+02
-5.949400000000000546e+02
-2.298700000000000045e+02
-3.657599999999999909e+02
-6.362699999999999818e+02
1.651100000000000136e+02
6.392999999999999972e+01
3.336299999999999955e+02
3.141499999999999773e+02
-6.637000000000000455e+01
3.132000000000000028e+01
1.091000000000000014e+01
2.698000000000000043e+01
-4.103000000000000114e+01
-1.116999999999999993e+01
-5.461999999999999744e+01
5.235000000000000142e+01
1.137800000000000011e+02
-2.545000000000000000e+02
-8.890999999999999659e+01
1.479999999999999982e+00
1.735000000000000142e+01
-3.321999999999999886e+01
-4.456000000000000227e+01
1.583999999999999986e+01
-6.709999999999999964e+00
1.181899999999999977e+02
-2.105099999999999909e+02
2.051999999999999957e+01
3.576499999999999773e+02
-6.190999999999999659e+01
1.167999999999999972e+02
4.400999999999999801e+01
-5.018999999999999773e+01
-1.710999999999999943e+01
-5.760000000000000142e+01
-8.060999999999999943e+01
-2.229999999999999982e+00
3.000000000000000000e+01
-3.689999999999999858e+01
6.050999999999999801e+01
-9.759999999999999787e+00
-3.381000000000000227e+01
2.728000000000000114e+01
-1.144999999999999929e+01
1.531000000000000050e+01
8.470000000000000639e+00
-3.254999999999999716e+01
9.781999999999999318e+01
-1.589000000000000057e+01
1.590000000000000080e+00
4.129999999999999893e+00
3.997999999999999687e+01
-1.357700000000000102e+02
8.335999999999999943e+01
3.370000000000000284e+01
-3.640999999999999659e+01
9.821999999999999886e+01
-4.450999999999999801e+01
-5.735000000000000142e+01
-3.232999999999999829e+01
-1.238000000000000078e+01
-5.231000000000000227e+01
-1.307299999999999898e+02
8.590999999999999659e+01
1.879799999999999898e+02
1.842800000000000011e+02
-9.209999999999999432e+01
-3.532000000000000028e+01
7.120000000000000284e+01
1.371999999999999886e+02
-2.136599999999999966e+02
1.324600000000000080e+02
1.042199999999999989e+02
-2.778999999999999915e+01
7.589999999999999858e+00
-7.299999999999999822e-01
-8.939999999999999503e+00
2.632999999999999829e+01
-9.928000000000000114e+01
1.633600000000000136e+02
1.832999999999999829e+01
-2.578999999999999915e+01
-1.277199999999999989e+02
6.014999999999999858e+01
5.150000000000000000e+01
1.481000000000000050e+01
-2.726999999999999957e+01
-2.551000000000000156e+01
1.816800000000000068e+02
-5.952000000000000313e+01
-1.143599999999999994e+02
1.302599999999999909e+02
-4.039999999999999858e+01
-1.274899999999999949e+02
-1.253599999999999994e+02
5.102000000000000313e+01
-7.532999999999999829e+01
4.653999999999999915e+01
-3.622999999999999687e+01
-1.105000000000000071e+01
2.778999999999999915e+01
-4.939999999999999858e+01
-2.619000000000000128e+01
1.980000000000000071e+01
-2.287999999999999901e+01
3.586999999999999744e+01
-3.370000000000000284e+01
-8.289999999999999147e+00
7.580000000000000071e+00
-5.103000000000000114e+01
2.289999999999999858e+01
1.814999999999999858e+01
-5.535999999999999943e+01
3.456000000000000227e+01
-8.279999999999999716e+01
-8.487999999999999545e+01
-1.117699999999999960e+02
2.779900000000000091e+02
2.144000000000000128e+01
-2.520000000000000018e+00
4.653000000000000114e+01
2.746000000000000085e+01
-2.410000000000000142e+00
-2.917000000000000171e+01
2.360000000000000142e+01
1.486999999999999922e+01
-4.721000000000000085e+01
2.055999999999999872e+01
2.244999999999999929e+01
-5.603000000000000114e+01
-9.339999999999999858e+00
-6.556999999999999318e+01
2.382999999999999829e+01
1.484999999999999964e+01
2.351999999999999957e+01
2.185900000000000034e+02
2.736200000000000045e+02
-1.382400000000000091e+02
-1.882000000000000028e+01
-1.296000000000000085e+01
-1.040000000000000036e+01
-3.609000000000000341e+01
5.360000000000000320e+00
-1.150000000000000000e+01
-6.599999999999999645e+00
-2.537999999999999901e+01
-3.479999999999999982e+00
-1.170100000000000051e+02
1.863400000000000034e+02
-2.261599999999999966e+02
2.281299999999999955e+02
-6.280000000000000249e+00
-1.109300000000000068e+02
-5.066100000000000136e+02
1.053599999999999994e+02
1.551899999999999977e+02
1.439799999999999898e+02
3.665999999999999659e+01
1.645500000000000114e+02
-3.562099999999999795e+02
2.891700000000000159e+02
-6.257999999999999829e+01
1.490999999999999943e+02
1.843600000000000136e+02
-8.929000000000000625e+01
-7.610700000000000500e+02
5.000000000000000278e-02
3.427599999999999909e+02
-1.356500000000000057e+02
2.237500000000000000e+02
7.742000000000000171e+01
-2.506599999999999966e+02
-3.627000000000000313e+01
3.401999999999999886e+02
3.977200000000000273e+02
-2.049699999999999989e+02
-1.618199999999999932e+02
4.148100000000000023e+02
-5.815299999999999727e+02
-1.623000000000000043e+01
2.096999999999999886e+01
2.395999999999999943e+02
2.800699999999999932e+02
2.919999999999999929e+00
-5.114000000000000057e+01
-7.964000000000000057e+01
-8.515000000000000568e+01
-2.098600000000000136e+02
-2.592500000000000000e+02
-8.820000000000000284e+00
3.506000000000000227e+01
-2.619000000000000128e+01
-2.149999999999999911e+00
3.629999999999999893e+00
-3.037000000000000099e+01
3.335999999999999943e+01
-1.084399999999999977e+02
3.446000000000000085e+01
1.397000000000000064e+01
-6.450000000000000178e+00
-6.543000000000000682e+01
-9.628000000000000114e+01
-9.196999999999999886e+01
7.310800000000000409e+02
-4.501499999999999773e+02
-2.506699999999999875e+02
3.026999999999999957e+01
4.210000000000000142e+01
5.967000000000000171e+01
2.999599999999999795e+02
1.629799999999999898e+02
-4.250000000000000000e+01
4.480000000000000426e+00
-5.089999999999999858e+00
-1.090000000000000036e+01
3.121000000000000085e+01
7.980000000000000426e+00
-5.190000000000000391e+00
8.070000000000000284e+00
-9.529999999999999361e+00
8.823999999999999488e+01
2.721000000000000227e+02
8.481999999999999318e+01
-5.587699999999999818e+02
-4.032999999999999829e+01
-2.143100000000000023e+02
-1.026200000000000045e+02
1.694799999999999898e+02
3.120199999999999818e+02
1.507299999999999898e+02
-2.731100000000000136e+02
-5.656799999999999500e+02
1.529000000000000057e+02
3.112300000000000182e+02
-2.367199999999999989e+02
1.478700000000000045e+02
1.251599999999999966e+02
2.556399999999999864e+02
-2.009300000000000068e+02
-1.532000000000000028e+01
1.728199999999999932e+02
-6.843000000000000682e+01
-4.456000000000000227e+01
-8.554000000000000625e+01
-9.310000000000000497e+00
5.399000000000000199e+01
5.971000000000000085e+01
-8.381000000000000227e+01
-4.969999999999999751e+00
-8.980000000000000426e+00
-1.536999999999999922e+01
9.789999999999999147e+00
7.306999999999999318e+01
-5.888000000000000256e+01
-4.400999999999999801e+01
-5.382000000000000028e+01
2.812999999999999901e+01
4.075000000000000000e+01
-2.519999999999999929e+01
-1.104200000000000017e+02
-7.403000000000000114e+01
-2.346999999999999886e+01
1.247900000000000063e+02
-4.368999999999999773e+01
-1.946999999999999886e+01
1.008799999999999955e+02
-1.786100000000000136e+02
-1.089699999999999989e+02
1.710200000000000102e+02
-1.000999999999999943e+02
1.577999999999999936e+01
1.003599999999999994e+02
-3.151000000000000156e+01
-4.257000000000000028e+01
-7.095999999999999375e+01
-6.454000000000000625e+01
1.418999999999999950e+01
4.538000000000000256e+01
3.091000000000000014e+01
3.533999999999999773e+02
-1.416000000000000014e+01
-1.130199999999999960e+02
2.708999999999999986e+01
9.834999999999999432e+01
3.596000000000000227e+02
-1.269099999999999966e+02
-3.024599999999999795e+02
-1.125000000000000000e+01
-2.283799999999999955e+02
2.400399999999999920e+02
6.265999999999999659e+01
-1.085100000000000051e+02
-4.693999999999999773e+01
-7.030000000000000249e+00
-4.896000000000000085e+01
-8.400000000000000000e+01
-3.811000000000000227e+02
-1.042300000000000040e+02
3.890999999999999659e+01
1.754000000000000057e+02
4.388999999999999773e+02
1.638400000000000034e+02
-1.992999999999999972e+01
8.940000000000000568e+01
-6.043999999999999773e+01
-8.526000000000000512e+01
8.153000000000000114e+01
-9.387000000000000455e+01
1.344499999999999886e+02
-1.247999999999999972e+02
-6.379999999999999893e+00
-3.231000000000000227e+01
-1.148000000000000043e+01
1.435999999999999943e+01
1.457000000000000028e+01
-7.959999999999999964e+00
1.052999999999999936e+01
-1.381000000000000050e+01
4.602000000000000313e+01
3.807999999999999829e+01
1.732999999999999829e+01
-7.679999999999999716e+00
6.590000000000000568e+01
-8.662000000000000455e+01
-1.357000000000000028e+01
-7.917000000000000171e+01
-7.154000000000000625e+01
1.215000000000000000e+02
-4.835000000000000142e+01
5.239000000000000057e+01
-1.110999999999999943e+01
2.294999999999999929e+01
-5.657999999999999829e+01
1.332000000000000028e+01
5.778000000000000114e+01
-6.798000000000000398e+01
-3.799999999999999822e+00
3.620000000000000107e+00
2.433999999999999986e+01
1.885399999999999920e+02
-1.214899999999999949e+02
-6.292999999999999972e+01
-4.188000000000000256e+01
-6.875000000000000000e+01
1.101800000000000068e+02
1.251999999999999957e+01
4.240000000000000213e+00
-2.569000000000000128e+01
-6.400000000000000355e+00
2.491000000000000014e+01
7.600000000000000089e-01
-5.914000000000000057e+01
4.592000000000000171e+01
-8.039999999999999147e+00
-1.669999999999999929e+01
6.714000000000000057e+01
-4.050999999999999801e+01
1.780000000000000027e+00
2.879999999999999893e+00
9.029999999999999361e+00
2.191000000000000014e+01
-2.028000000000000114e+01
7.381999999999999318e+01
1.591800000000000068e+02
-2.239000000000000057e+01
6.482999999999999829e+01
-2.016800000000000068e+02
-5.614999999999999858e+01
-3.610999999999999943e+01
-4.059000000000000341e+01
-3.557000000000000028e+01
2.234799999999999898e+02
5.503999999999999915e+01
-4.556000000000000227e+01
6.367000000000000171e+01
5.800000000000000000e+01
-2.053700000000000045e+02
-9.215999999999999659e+01
-4.343999999999999773e+01
2.523000000000000043e+01
2.105300000000000011e+02
1.391999999999999886e+02
-5.400000000000000355e+00
-5.453000000000000114e+01
-2.129999999999999893e+00
-1.851000000000000156e+01
1.479999999999999982e+00
2.049999999999999822e+00
-1.356000000000000050e+01
1.316999999999999993e+01
4.139999999999999680e+00
-1.400000000000000000e+01
7.719999999999999751e+00
-4.049999999999999822e+00
5.759999999999999787e+00
-3.270000000000000018e+00
-1.565000000000000036e+01
1.812000000000000099e+01
1.013000000000000078e+01
-5.879999999999999893e+00
4.450000000000000178e+00
1.632000000000000028e+01
8.073999999999999488e+01
-3.808500000000000227e+02
1.541399999999999864e+02
3.310999999999999943e+01
-3.173999999999999844e+01
2.628000000000000114e+01
-1.408000000000000114e+02
-1.400099999999999909e+02
6.167000000000000171e+01
-7.000000000000000666e-02
-2.101000000000000156e+01
1.383999999999999986e+01
2.428000000000000114e+01
-2.419999999999999929e+00
1.183000000000000007e+01
-5.209999999999999964e+00
8.369999999999999218e+00
2.573000000000000043e+01
-1.878000000000000114e+01
-7.679999999999999716e+00
2.250000000000000000e+00
-1.186999999999999922e+01
4.110000000000000320e+00
-2.125000000000000000e+01
2.539999999999999858e+01
8.171999999999999886e+01
-1.116800000000000068e+02
1.359300000000000068e+02
-1.629600000000000080e+02
4.510000000000000142e+01
8.318000000000000682e+01
2.056699999999999875e+02
-1.946999999999999886e+01
-8.710000000000000853e+00
3.032000000000000028e+01
-4.314000000000000057e+01
2.934399999999999977e+02
3.622999999999999687e+01
-6.320000000000000284e+01
-1.524399999999999977e+02
3.821999999999999886e+01
7.215000000000000568e+01
-1.328400000000000034e+02
-5.042000000000000171e+01
2.255200000000000102e+02
-9.048999999999999488e+01
-3.578000000000000114e+01
3.546000000000000085e+01
1.553999999999999915e+01
-4.849999999999999645e+00
3.082000000000000028e+01
5.592999999999999972e+01
-4.896999999999999886e+01
2.027199999999999989e+02
-1.004500000000000028e+02
-5.121999999999999886e+01
2.587000000000000099e+01
3.062000000000000099e+01
3.071999999999999886e+01
-7.754999999999999716e+01
-1.642999999999999972e+01
-1.876999999999999957e+01
3.282000000000000028e+01
8.968000000000000682e+01
-1.022300000000000040e+02
-1.036999999999999922e+01
-3.772999999999999687e+01
-4.135999999999999943e+01
3.285000000000000142e+01
1.082000000000000028e+01
-1.074000000000000021e+01
6.870000000000000107e+00
-5.339999999999999858e+00
8.464000000000000057e+01
-1.016700000000000017e+02
-4.302000000000000313e+01
-7.312000000000000455e+01
1.419799999999999898e+02
-1.694900000000000091e+02
8.720000000000000639e+00
1.389000000000000057e+01
1.208799999999999955e+02
1.106899999999999977e+02
1.713400000000000034e+02
-4.707900000000000205e+02
-1.882000000000000028e+01
3.769599999999999795e+02
-7.240999999999999659e+01
-2.129999999999999893e+00
-3.829800000000000182e+02
2.994000000000000128e+01
-2.466800000000000068e+02
1.036800000000000068e+02
6.905800000000000409e+02
-2.320600000000000023e+02
-1.070100000000000051e+02
-1.600600000000000023e+02
6.881000000000000227e+01
8.571999999999999886e+01
2.025200000000000102e+02
1.525999999999999979e+01
-4.242000000000000171e+01
5.639999999999999680e+00
-2.620000000000000107e+00
1.141000000000000014e+01
-1.270000000000000018e+00
-1.325900000000000034e+02
1.548600000000000136e+02
-5.574000000000000199e+01
-5.500000000000000000e+01
-1.717000000000000171e+01
7.509999999999999787e+00
-5.089000000000000057e+01
1.650000000000000000e+01
-1.357000000000000028e+01
1.113000000000000078e+01
4.990000000000000213e+00
-1.689000000000000057e+01
4.889999999999999858e+01
-4.813000000000000256e+01
6.370000000000000107e+00
1.742999999999999972e+01
-1.138000000000000078e+01
3.640000000000000124e+00
1.435800000000000125e+02
-2.018000000000000114e+02
2.491599999999999966e+02
-2.770000000000000018e+00
5.157000000000000028e+01
-5.127000000000000313e+01
3.192900000000000205e+02
3.749000000000000199e+01
-2.721000000000000227e+02
-8.492000000000000171e+01
-1.499799999999999898e+02
1.556200000000000045e+02
-1.594699999999999989e+02
-1.157000000000000028e+01
-1.110499999999999972e+02
2.168400000000000034e+02
2.073899999999999864e+02
4.078000000000000114e+01
-3.007999999999999829e+01
-4.690000000000000391e+00
-4.668999999999999773e+01
-1.896000000000000085e+01
3.990000000000000213e+00
-1.011999999999999922e+01
1.128900000000000006e+02
-3.637599999999999909e+02
3.067099999999999795e+02
7.354000000000000625e+01
-3.689000000000000057e+01
1.491599999999999966e+02
-4.680600000000000023e+02
8.353000000000000114e+01
2.117100000000000080e+02
-4.247999999999999687e+01
6.565000000000000568e+01
7.620000000000000107e+00
-6.750000000000000000e+00
-4.295000000000000284e+01
2.582999999999999829e+01
1.210999999999999943e+01
-6.940000000000000391e+00
2.999999999999999889e-02
4.719999999999999751e+00
-9.899999999999999911e-01
-1.476999999999999957e+01
-3.732999999999999829e+01
-5.459999999999999964e+00
2.794000000000000128e+01
6.309999999999999609e+00
-2.890000000000000124e+00
1.051999999999999957e+01
8.100000000000000533e-01
-5.500000000000000000e+00
-3.339999999999999858e+00
-3.649999999999999911e+00
1.929999999999999938e+00
-6.899999999999999467e-01
-9.789999999999999147e+00
9.230000000000000426e+00
-1.270000000000000018e+00
3.419999999999999929e+00
2.310000000000000053e+00
2.119000000000000128e+01
6.049999999999999822e+00
1.144999999999999929e+01
7.642000000000000171e+01
-1.878199999999999932e+02
7.501000000000000512e+01
-4.350000000000000000e+01
8.070000000000000284e+00
-9.339000000000000057e+01
1.549399999999999977e+02
-2.564000000000000057e+01
-8.440999999999999659e+01
5.531000000000000227e+01
9.060000000000000497e+00
-1.465900000000000034e+02
8.309999999999999432e+01
4.425000000000000000e+01
-1.160600000000000023e+02
-7.500000000000000000e+01
3.314000000000000057e+01
2.073000000000000043e+01
-2.482999999999999829e+01
1.141000000000000014e+01
-3.078999999999999915e+01
7.849999999999999645e+00
6.823999999999999488e+01
7.000000000000000666e-02
5.610000000000000320e+00
3.895000000000000284e+01
-4.759000000000000341e+01
7.890000000000000568e+01
7.454999999999999716e+01
-1.278100000000000023e+02
8.804999999999999716e+01
5.160000000000000142e+00
-1.090000000000000000e+02
-2.178999999999999915e+01
-2.892999999999999972e+01
-1.887000000000000099e+01
2.090000000000000000e+02
-2.129600000000000080e+02
-7.576000000000000512e+01
1.196899999999999977e+02
1.711599999999999966e+02
-7.915000000000000568e+01
4.046000000000000085e+01
-6.684999999999999432e+01
6.990999999999999659e+01
3.492000000000000171e+01
1.327999999999999936e+01
-3.053999999999999915e+01
-4.307999999999999829e+01
5.179999999999999716e+01
2.351000000000000156e+01
-1.985000000000000142e+01
1.957999999999999829e+01
3.759999999999999787e+00
1.240000000000000036e+01
3.411999999999999744e+01
-5.400000000000000355e+00
6.860000000000000320e+00
1.094999999999999929e+01
-1.444999999999999929e+01
9.990000000000000213e+00
-7.230000000000000426e+00
-1.892999999999999972e+01
7.179999999999999716e+00
-1.000000000000000000e+00
1.020000000000000018e+00
-5.750999999999999801e+01
9.373000000000000398e+01
-3.428999999999999915e+01
-1.292999999999999972e+01
3.260999999999999943e+01
6.990999999999999659e+01
4.184000000000000341e+01
-4.063000000000000256e+01
6.899999999999999467e-01
-2.346999999999999886e+01
-8.812999999999999545e+01
8.984999999999999432e+01
-5.077000000000000313e+01
-1.614799999999999898e+02
-4.754999999999999716e+01
8.240000000000000213e+00
8.329999999999999716e+01
-3.540999999999999659e+01
6.575000000000000000e+01
-6.501000000000000512e+01
6.252000000000000313e+01
-2.953999999999999915e+01
4.415999999999999659e+01
-1.940000000000000000e+02
3.146499999999999773e+02
-1.574000000000000021e+01
-3.334200000000000159e+02
1.762800000000000011e+02
4.419999999999999929e+00
-3.934000000000000341e+01
1.862500000000000000e+02
6.390999999999999659e+01
7.185999999999999943e+01
-2.177199999999999989e+02
-1.297800000000000011e+02
1.238199999999999932e+02
-6.959000000000000341e+01
1.886800000000000068e+02
-2.506399999999999864e+02
8.807999999999999829e+01
3.561999999999999744e+01
-1.450900000000000034e+02
2.751800000000000068e+02
7.849999999999999645e+00
-2.064699999999999989e+02
9.148000000000000398e+01
3.524000000000000199e+01
-9.268999999999999773e+01
-3.439000000000000057e+01
8.346999999999999886e+01
2.810999999999999943e+01
-6.931000000000000227e+01
3.252099999999999795e+02
-1.142699999999999960e+02
1.045999999999999943e+02
9.917000000000000171e+01
2.410000000000000142e+01
6.019999999999999574e+00
-3.064000000000000057e+01
-2.351000000000000156e+01
1.327999999999999936e+01
6.139999999999999680e+00
-2.870000000000000107e+00
7.219999999999999751e+00
1.205900000000000034e+02
4.261999999999999744e+01
1.751899999999999977e+02
-2.535200000000000102e+02
-3.593899999999999864e+02
-1.599600000000000080e+02
1.521899999999999977e+02
5.595000000000000284e+01
9.860999999999999943e+01
7.109999999999999432e+01
1.395999999999999943e+02
-3.843999999999999773e+01
-1.150000000000000000e+02
3.779999999999999805e+00
-2.500000000000000000e+01
7.868999999999999773e+01
-2.870000000000000107e+00
-2.436999999999999886e+02
-2.005999999999999872e+01
1.193199999999999932e+02
-1.140300000000000011e+02
-6.915000000000000568e+01
8.289999999999999147e+00
3.757000000000000028e+01
-6.534000000000000341e+01
-7.990000000000000213e+00
6.782999999999999829e+01
-7.830000000000000071e+00
-4.259999999999999787e+00
4.260999999999999943e+01
1.485999999999999943e+01
-1.232600000000000051e+02
-2.312199999999999989e+02
4.022200000000000273e+02
8.304999999999999716e+01
-1.328899999999999864e+02
-3.368999999999999773e+01
-2.650000000000000000e+01
-5.549999999999999822e+00
-3.371999999999999886e+01
3.761999999999999744e+01
8.939999999999999503e+00
1.057000000000000028e+01
2.694999999999999929e+01
-1.455000000000000071e+01
3.001999999999999957e+01
1.413000000000000078e+01
-1.525999999999999979e+01
1.835999999999999943e+01
6.950000000000000178e+00
1.753000000000000114e+01
2.194000000000000128e+01
2.307000000000000028e+01
1.457899999999999920e+02
2.841000000000000227e+02
-3.757500000000000000e+02
6.275000000000000000e+01
-2.930400000000000205e+02
7.568000000000000682e+01
4.582999999999999829e+01
-8.042000000000000171e+01
-2.623299999999999841e+02
2.183000000000000114e+02
-1.235100000000000051e+02
-1.394399999999999977e+02
1.691800000000000068e+02
-3.486999999999999744e+01
-3.932400000000000091e+02
1.894000000000000057e+02
1.975000000000000000e+02
-8.206999999999999318e+01
-1.052099999999999937e+02
-1.695600000000000023e+02
2.266200000000000045e+02
1.810099999999999909e+02
2.267100000000000080e+02
-2.782799999999999727e+02
-1.553899999999999864e+02
-6.664000000000000057e+01
2.384600000000000080e+02
4.871999999999999886e+01
-1.734900000000000091e+02
-2.430000000000000000e+02
3.399300000000000068e+02
-1.909499999999999886e+02
3.014200000000000159e+02
-2.127500000000000000e+02
1.328899999999999864e+02
1.575999999999999979e+01
1.670800000000000125e+02
-3.849800000000000182e+02
9.689999999999999503e+00
-4.152000000000000313e+01
-4.259999999999999787e+00
2.515500000000000114e+02
-1.985999999999999943e+02
-2.467999999999999972e+01
-3.443999999999999773e+01
-2.178999999999999915e+01
5.320000000000000284e+00
-9.807999999999999829e+01
-1.182999999999999972e+02
1.102000000000000028e+02
4.456800000000000068e+02
2.696999999999999886e+01
2.581200000000000045e+02
-2.801499999999999773e+02
-1.865600000000000023e+02
1.292500000000000000e+02
-1.190199999999999960e+02
-4.613000000000000256e+01
1.077099999999999937e+02
-2.336299999999999955e+02
-5.528999999999999915e+01
-1.048499999999999943e+02
8.757999999999999829e+01
-9.459999999999999432e+01
1.285999999999999943e+02
3.065400000000000205e+02
1.766599999999999966e+02
-3.268999999999999773e+01
-2.567999999999999972e+01
-7.651000000000000512e+01
2.799999999999999822e+00
-1.055000000000000071e+01
-7.045000000000000284e+01
3.775999999999999801e+01
6.584999999999999432e+01
-9.199999999999999289e+00
3.265999999999999659e+01
-1.864900000000000091e+02
-4.399200000000000159e+02
-1.573600000000000136e+02
3.105299999999999727e+02
2.389999999999999858e+01
2.776399999999999864e+02
6.184000000000000341e+01
-6.759999999999999787e+00
-5.043999999999999773e+01
7.189000000000000057e+01
-6.239999999999999858e+01
8.717000000000000171e+01
9.210999999999999943e+01
-4.128999999999999915e+01
3.221000000000000085e+01
2.011500000000000057e+02
-1.909799999999999898e+02
-2.451200000000000045e+02
-1.583000000000000007e+01
2.092000000000000171e+01
8.201999999999999602e+01
-5.999999999999999778e-02
-1.520000000000000018e+00
1.258000000000000007e+01
-4.750000000000000000e+00
1.869999999999999929e+01
-6.469999999999999751e+00
3.450999999999999801e+01
2.785000000000000142e+01
-2.234199999999999875e+02
9.862000000000000455e+01
1.433999999999999986e+01
-3.020000000000000018e+00
6.540000000000000036e+00
-6.269999999999999574e+00
1.501999999999999957e+01
2.660000000000000142e+01
-1.635999999999999943e+01
-6.040000000000000036e+00
4.370000000000000107e+00
1.001999999999999957e+01
-1.500000000000000000e+00
1.989999999999999991e+00
2.099999999999999922e-01
-1.945900000000000034e+02
9.176000000000000512e+01
4.046000000000000085e+01
4.589999999999999858e+00
-8.900000000000000133e-01
