1593091052.00
64.000000
-0.00
-0.00
-0.00
-0.00
-0.00
-0.00
-0.00
-0.00
-0.00
-0.00
0.00
0.01
0.01
-0.00
-0.03
-0.05
-0.05
0.00
0.13
0.36
0.66
1.01
1.37
1.72
2.06
2.40
2.79
3.24
3.80
4.42
5.06
5.66
6.20
6.68
7.15
7.68
8.31
9.14
10.09
11.04
11.88
12.56
13.14
13.76
14.65
15.96
17.91
20.32
22.90
25.38
27.58
29.57
31.68
34.32
37.81
42.54
48.15
54.10
59.83
64.97
69.58
74.14
79.34
85.71
93.76
103.00
112.62
121.73
129.77
136.75
143.30
150.75
157.77
166.64
177.95
191.79
206.97
220.57
228.25
225.36
208.53
176.87
132.76
80.05
23.07
-34.94
-92.44
-149.16
-205.23
-260.37
-313.74
-363.87
-409.83
-450.91
-486.50
-515.74
-537.23
-549.22
-549.96
-538.37
-514.21
-478.67
-433.88
-382.45
-327.02
-269.84
-212.63
-156.66
-102.95
-52.37
-5.90
35.58
71.43
101.35
125.50
144.38
158.69
169.15
176.37
180.75
182.57
182.07
179.51
175.23
169.65
163.18
156.15
148.81
141.30
133.69
126.02
118.33
110.69
103.16
95.80
88.68
81.83
75.25
68.95
62.95
57.25
51.86
46.78
42.03
37.59
33.45
29.61
26.07
22.81
19.83
17.11
14.67
12.48
10.54
8.83
7.35
6.07
4.97
4.05
3.27
2.62
2.09
1.65
1.30
1.01
0.79
0.61
0.47
0.37
0.29
0.23
0.19
0.16
0.15
0.14
0.15
0.17
0.19
0.22
0.25
0.29
0.33
0.37
0.42
0.47
0.51
0.56
0.62
0.67
0.73
0.79
0.85
0.92
1.01
1.11
1.23
1.35
1.45
1.54
1.60
1.66
1.75
1.89
2.09
2.35
2.65
2.96
3.26
3.54
3.84
4.19
4.62
5.15
5.75
6.37
6.96
7.47
7.94
8.40
8.95
9.68
10.59
11.65
12.74
13.70
14.44
14.99
15.45
16.03
16.85
17.92
19.02
19.76
19.71
18.55
16.22
12.91
9.03
4.97
0.89
-3.29
-7.87
-13.17
-19.30
-25.95
-32.49
-38.11
-42.23
-44.69
-45.80
-46.23
-46.61
-47.42
-48.90
-51.22
-54.36
-57.83
-60.46
-60.46
-56.00
-46.12
-31.54
-14.63
1.44
13.96
21.70
25.16
25.88
25.40
24.49
23.04
20.65
17.26
13.56
10.77
10.12
12.17
16.55
22.08
27.16
30.49
31.57
30.77
29.06
27.35
25.88
24.13
21.16
16.43
10.32
4.14
-0.36
-1.98
-0.65
2.49
5.71
7.54
7.48
5.97
4.05
2.62
1.95
1.66
1.10
-0.27
-2.47
-5.00
-7.07
-8.13
-8.20
-7.86
-7.80
-8.45
-9.69
-10.96
-11.63
-11.46
-10.79
-10.41
-11.09
-13.10
-16.05
-19.07
-21.25
-22.11
-21.94
-21.65
-22.42
-25.03
-29.49
-34.90
-39.62
-41.88
-40.37
-34.76
-25.72
-14.57
-2.77
8.60
19.08
28.57
37.02
44.05
48.93
51.01
50.09
46.71
42.11
37.61
34.04
31.39
28.97
25.86
21.56
16.20
10.50
5.29
0.98
-2.62
-6.22
-10.59
-16.13
-22.68
-29.58
-36.07
-41.74
-46.69
-51.45
-56.67
-62.76
-69.76
-77.29
-84.90
-92.33
-99.68
-107.32
-115.56
-124.47
-133.72
-142.83
-151.55
-160.21
-169.79
-181.37
-195.23
-210.21
-223.36
-230.59
-227.91
-212.88
-185.54
-148.10
-103.87
-55.58
-4.40
49.61
105.77
161.06
210.05
246.90
268.17
274.60
270.44
260.38
246.35
226.70
198.10
158.83
110.96
59.58
10.10
-34.46
-73.91
-109.13
-139.76
-163.23
-176.17
-176.80
-166.28
-148.12
-125.89
-101.23
-73.43
-40.57
-1.42
43.21
90.62
137.14
179.14
213.81
239.20
254.18
258.29
251.64
235.16
210.61
180.57
148.00
115.60
85.11
57.06
30.89
5.50
-20.15
-46.72
-74.43
-102.93
-131.10
-156.94
-177.81
-191.33
-196.53
-194.52
-188.27
-181.21
-175.76
-172.58
-170.77
-168.75
-165.10
-158.80
-148.93
-134.48
-114.59
-89.33
-60.17
-29.76
-0.85
24.90
47.26
67.08
85.21
101.83
116.64
129.56
141.33
153.17
165.86
178.77
189.79
196.30
196.66
191.14
181.81
171.34
161.62
153.01
144.71
135.61
125.25
114.04
102.81
92.14
81.91
71.49
60.31
48.45
36.83
27.04
20.74
19.05
22.16
29.19
38.51
48.19
56.55
62.56
65.98
67.10
66.45
64.34
60.88
56.11
50.35
44.28
38.72
34.24
30.72
27.46
23.53
18.41
12.35
6.27
1.24
-2.19
-4.27
-5.85
-7.74
-10.20
-12.82
-14.85
-15.88
-16.16
-16.59
-18.10
-21.03
-24.91
-28.64
-31.09
-31.72
-30.80
-29.02
-27.06
-25.11
-22.94
-20.25
-17.08
-13.98
-11.78
-11.14
-12.03
-13.69
-14.96
-14.84
-12.92
-9.44
-5.10
-0.55
3.98
8.66
13.80
19.46
25.26
30.42
34.03
35.40
34.33
31.14
26.49
21.26
16.27
12.12
9.01
6.75
4.94
3.19
1.39
-0.25
-1.33
-1.65
-1.40
-1.16
-1.62
-3.12
-5.46
-7.97
-9.90
-10.87
-11.11
-11.37
-12.44
-14.69
-17.84
-21.09
-23.60
-24.88
-25.11
-24.93
-25.06
-25.86
-27.31
-29.04
-30.75
-32.43
-34.30
-36.61
-39.21
-41.37
-41.96
-39.88
-34.52
-26.06
-15.50
-4.27
6.27
15.19
22.14
27.26
30.85
33.13
34.16
33.90
32.49
30.38
28.25
26.74
26.13
26.15
26.07
25.11
22.81
19.31
15.15
11.05
7.42
4.31
1.36
-1.73
-5.04
-8.33
-11.17
-13.26
-14.64
-15.72
-17.06
-19.11
-21.89
-24.94
-27.54
-29.08
-29.43
-29.03
-28.77
-29.54
-31.81
-35.39
-39.47
-42.96
-44.82
-44.45
-41.69
-36.85
-30.42
-22.98
-15.07
-7.12
0.49
7.45
13.39
18.08
21.40
23.45
24.46
24.76
24.50
23.71
22.24
20.00
17.08
13.82
10.72
8.29
6.81
6.19
6.04
5.89
5.33
4.20
2.64
0.98
-0.46
-1.56
-2.41
-3.32
-4.62
-6.47
-8.83
-11.47
-14.15
-16.79
-19.45
-22.18
-24.97
-27.63
-29.91
-31.73
-33.32
-35.23
-37.96
-41.60
-45.54
-48.59
-49.36
-46.88
-41.05
-32.62
-22.93
-13.32
-4.65
2.87
9.54
15.75
21.62
26.80
30.66
32.66
32.71
31.27
29.21
27.36
26.08
25.18
24.08
22.31
19.86
17.25
15.17
14.05
13.74
13.52
12.57
10.41
7.19
3.61
0.50
-1.52
-2.45
-2.79
-3.37
-4.91
-7.72
-11.55
-15.70
-19.37
-22.00
-23.62
-24.70
-25.98
-27.93
-30.62
-33.70
-36.77
-39.63
-42.27
-44.64
-46.33
-46.53
-44.32
-39.10
-31.05
-21.12
-10.72
-1.09
7.07
13.74
19.26
24.05
28.22
31.57
33.71
34.36
33.55
31.68
29.40
27.40
26.06
25.38
24.95
24.30
23.07
21.26
19.10
16.94
15.02
13.30
11.54
9.47
6.93
4.05
1.16
-1.38
-3.42
-5.11
-6.86
-9.13
-12.12
-15.69
-19.39
-22.63
-25.05
-26.67
-27.84
-29.04
-30.67
-32.90
-35.67
-38.66
-41.44
-43.47
-44.17
-42.94
-39.40
-33.46
-25.50
-16.23
-6.59
2.52
10.43
16.88
21.90
25.74
28.66
30.80
32.09
32.38
31.51
29.58
26.91
24.00
21.35
19.26
17.76
16.58
15.41
14.02
12.40
10.75
9.30
8.14
7.13
5.94
4.23
1.88
-0.85
-3.53
-5.68
-7.08
-7.96
-8.83
-10.22
-12.43
-15.36
-18.59
-21.62
-24.13
-26.10
-27.87
-29.91
-32.64
-36.21
-40.33
-44.22
-46.89
-47.38
-45.20
-40.42
-33.62
-25.61
-17.14
-8.67
-0.46
7.29
14.31
20.27
24.92
28.18
30.21
31.34
31.91
32.19
32.29
32.16
31.69
30.81
29.54
28.03
26.52
25.19
24.04
22.90
21.53
19.82
17.81
15.72
13.79
12.02
10.17
7.91
5.06
1.79
-1.48
-4.26
-6.29
-7.68
-8.89
-10.40
-12.51
-15.18
-18.09
-20.82
-23.15
-25.15
-27.13
-29.47
-32.39
-35.85
-39.52
-42.87
-45.32
-46.35
-45.63
-42.94
-38.25
-31.67
-23.53
-14.36
-4.88
4.20
12.20
18.77
23.83
27.56
30.22
32.08
33.27
33.80
33.63
32.75
31.34
29.63
27.91
26.43
25.27
24.35
23.43
22.31
20.86
19.18
17.41
15.72
14.15
12.54
10.61
8.15
5.17
1.91
-1.20
-3.81
-5.77
-7.24
-8.59
-10.19
-12.19
-14.47
-16.73
-18.67
-20.19
-21.49
-22.94
-24.84
-27.25
-29.98
-32.77
-35.43
-37.98
-40.45
-42.66
-44.01
-43.59
-40.53
-34.47
-25.83
-15.82
-5.87
2.75
9.53
14.65
18.67
22.15
25.34
28.05
29.93
30.65
30.17
28.78
26.99
25.34
24.22
23.66
23.37
22.89
21.82
20.08
17.97
16.04
14.73
14.08
13.64
12.65
10.52
7.22
3.30
-0.38
-3.12
-4.82
-5.95
-7.25
-9.20
-11.78
-14.52
-16.85
-18.48
-19.51
-20.35
-21.39
-22.78
-24.47
-26.35
-28.39
-30.65
-33.15
-35.67
-37.68
-38.40
-37.08
-33.31
-27.13
-19.12
-10.22
-1.45
6.37
12.78
17.78
21.66
24.74
27.20
29.01
30.01
30.15
29.62
28.85
28.27
28.08
28.08
27.83
26.88
25.06
22.62
20.12
18.15
17.06
16.79
16.97
17.00
16.43
15.06
13.04
10.61
7.98
5.20
2.17
-1.17
-4.66
-7.92
-10.56
-12.34
-13.48
-14.45
-15.87
-18.07
-20.95
-24.02
-26.75
-28.86
-30.52
-32.26
-34.60
-37.74
-41.31
-44.35
-45.64
-44.06
-39.16
-31.26
-21.49
-11.33
-2.06
5.53
11.35
15.79
19.35
22.33
24.70
26.25
26.81
26.47
25.49
24.29
23.12
22.08
21.02
19.72
18.09
16.35
14.87
13.84
13.15
12.38
11.00
8.62
5.22
1.26
-2.49
-5.34
-7.44
-9.44
-12.25
-16.41
-21.83
-27.78
-33.24
-37.25
-39.76
-42.17
-46.36
-53.88
-64.71
-77.52
-90.43
-101.87
-110.97
-117.80
-123.39
-128.30
-132.29
-133.71
-131.25
-124.91
-116.31
-107.37
-95.43
-79.55
-60.88
-42.94
-28.09
-16.86
-7.87
0.71
11.49
24.70
38.02
48.74
55.39
60.93
70.98
92.16
126.12
172.78
229.78
293.06
357.84
406.58
423.11
397.67
332.61
241.54
143.89
57.88
-4.30
-38.98
-51.15
-49.55
-43.67
-40.10
-41.17
-45.05
-48.42
-48.86
-46.32
-42.97
-40.19
-38.26
-36.25
-33.04
-27.58
-21.33
-16.72
-16.22
-21.38
-30.92
-41.61
-49.53
-51.71
-47.23
-37.60
-25.87
-15.57
-9.47
-8.03
-9.62
-11.53
-11.39
-8.28
-3.08
2.32
5.98
6.81
5.06
2.22
0.00
-0.50
0.69
2.61
4.17
4.60
3.81
2.31
0.92
0.23
0.39
1.09
1.77
1.98
1.52
0.53
-0.71
-1.94
-3.09
-4.25
-5.46
-6.59
-7.36
-7.50
-7.00
-6.15
-5.44
-5.27
-5.70
-6.43
-7.06
-7.35
-7.52
-8.28
-10.49
-14.79
-21.10
-28.38
-34.79
-38.17
-36.84
-30.50
-20.68
-10.43
-3.21
-1.50
-5.66
-13.83
-22.72
-29.10
-31.04
-28.52
-23.05
-16.95
-12.45
-11.03
-13.27
-18.79
-26.45
-34.55
-41.23
-44.85
-44.46
-39.87
-31.63
-20.83
-8.81
3.09
13.78
22.63
29.61
35.19
40.09
44.83
49.51
53.78
57.07
58.86
58.90
57.14
53.63
48.40
41.54
33.36
24.55
16.13
9.16
4.28
1.45
-0.12
-1.69
-4.36
-8.63
-14.20
-20.26
-25.91
-30.62
-34.25
-36.84
-38.18
-37.70
-34.70
-28.86
-20.62
-11.23
-2.30
4.81
9.60
12.42
14.15
15.67
17.43
19.31
20.86
21.63
21.50
20.72
19.87
19.46
19.74
20.45
21.01
20.78
19.43
17.19
14.62
12.39
10.84
9.83
8.83
7.32
5.18
2.73
0.52
-1.01
-1.87
-2.57
-3.78
-6.05
-9.43
-13.45
-17.39
-20.50
-22.43
-23.30
-23.68
-24.35
-25.96
-28.75
-32.37
-35.98
-38.50
-39.04
-37.13
-32.94
-27.03
-20.13
-12.85
-5.59
1.43
8.04
13.97
18.90
22.57
24.87
25.89
25.80
24.80
23.06
20.81
18.42
16.38
15.17
14.95
15.52
16.35
16.79
16.45
15.39
14.14
13.41
13.76
15.29
17.56
19.73
21.04
21.20
20.61
20.32
21.58
25.37
32.08
41.32
52.08
62.78
71.30
75.17
72.11
61.01
42.72
20.17
-2.48
-21.59
-35.36
-44.33
-50.38
-55.18
-59.04
-60.96
-59.78
-55.46
-49.44
-43.97
-40.65
-39.57
-39.37
-38.33
-35.55
-31.38
-27.10
-23.94
-22.35
-21.93
-21.76
-21.06
-19.51
-17.23
-14.46
-11.36
-7.94
-4.20
-0.28
3.33
6.02
7.15
6.47
4.24
1.18
-1.75
-3.76
-4.61
-4.66
-4.67
-5.42
-7.37
-10.51
-14.45
-18.65
-22.65
-26.19
-29.16
-31.53
-33.47
-35.27
-37.49
-40.78
-45.71
-52.30
-59.67
-66.04
-69.14
-66.95
-58.54
-44.57
-27.10
-8.96
7.35
20.31
29.66
36.06
40.43
43.42
45.17
45.53
44.46
42.32
39.81
37.75
36.61
36.27
36.05
35.10
32.88
29.49
25.64
22.35
20.35
19.73
19.89
19.85
18.88
16.77
13.89
10.87
8.10
5.48
2.48
-1.47
-6.55
-12.30
-17.75
-21.96
-24.45
-25.48
-25.87
-26.65
-28.62
-32.04
-36.57
-41.34
-45.28
-47.37
-46.99
-44.01
-38.87
-32.34
-25.29
-18.30
-11.62
-5.24
0.84
6.41
11.19
14.90
17.52
19.30
20.63
21.75
22.59
22.68
21.60
19.31
16.25
13.12
10.51
8.72
7.65
6.92
5.81
3.88
1.20
-1.83
-4.88
-7.90
-11.03
-14.32
-17.66
-21.18
-24.64
-27.55
-29.55
-30.78
-31.89
-33.59
-36.24
-39.74
-44.17
-49.14
-54.09
-58.61
-62.94
-67.64
-72.82
-77.66
-76.01
-63.99
-42.47
-16.45
8.20
27.16
38.20
41.43
39.05
35.63
34.52
38.46
49.54
68.62
94.28
122.59
147.78
164.22
162.94
140.24
99.24
49.48
3.41
-28.48
-41.49
-37.58
-23.48
-7.24
5.26
11.51
11.86
7.95
1.31
-6.87
-15.18
-21.51
-23.30
-18.09
-5.22
13.27
32.98
48.56
55.91
54.07
45.74
36.02
30.30
31.38
38.27
46.77
51.66
49.37
39.61
25.39
11.44
2.28
0.43
5.82
16.29
28.72
39.92
47.39
49.50
45.77
37.12
25.76
14.83
7.55
6.16
11.04
20.61
31.83
41.39
46.88
47.23
42.62
33.79
21.52
6.41
-10.72
-28.43
-44.63
-57.07
-64.29
-66.28
-64.55
-61.44
-59.10
-58.68
-60.18
-62.97
-66.31
-69.86
-73.56
-77.40
-81.08
-84.05
-85.74
-85.86
-84.53
-82.25
-79.70
-77.49
-75.99
-75.19
-74.74
-74.06
-72.49
-69.35
-64.21
-57.01
-48.04
-37.76
-26.71
-15.46
-4.60
5.20
13.45
19.78
24.11
26.65
27.96
28.66
29.30
30.10
30.88
31.73
32.59
33.31
33.70
33.78
33.65
33.68
34.00
34.36
35.22
36.74
38.51
39.78
40.03
39.18
38.02
37.41
37.86
40.83
46.59
53.59
58.98
60.29
56.52
49.83
44.15
43.91
54.28
77.07
109.30
144.33
175.12
196.62
208.27
211.90
197.94
162.59
110.54
53.29
1.92
-34.25
-56.93
-68.25
-71.19
-69.85
-66.30
-62.46
-59.91
-59.42
-60.44
-62.08
-62.84
-62.60
-62.36
-61.91
-60.91
-59.24
-57.07
-54.46
-51.59
-48.03
-43.98
-40.20
-36.68
-33.41
-30.50
-28.12
-26.32
-25.22
-24.69
-24.97
-26.40
-28.56
-30.51
-31.37
-30.77
-29.09
-27.42
-26.77
-27.76
-30.26
-33.26
-35.56
-36.37
-35.63
-33.73
-31.21
-28.28
-24.90
-20.89
-16.19
-10.94
-5.49
-0.25
4.42
8.27
11.19
13.23
14.70
16.04
17.77
20.27
23.60
27.45
31.29
34.66
37.21
38.72
38.86
37.13
33.04
26.52
18.36
10.16
3.83
0.75
1.13
3.87
7.18
9.46
9.97
8.96
7.27
5.67
4.44
3.46
2.48
1.37
0.21
-0.88
-1.88
-2.99
-4.54
-6.77
-9.70
-13.05
-16.35
-19.04
-20.74
-21.31
-20.93
-19.87
-18.31
-16.12
-12.89
-8.10
-1.53
6.49
15.05
22.94
29.22
33.44
35.86
37.13
37.96
38.85
39.92
41.04
41.88
42.10
41.36
39.51
36.60
33.00
29.28
26.07
23.86
22.77
22.59
22.87
23.03
22.54
20.90
17.84
13.32
7.73
1.87
-3.18
-6.36
-7.07
-5.45
-2.44
0.47
1.71
0.20
-4.32
-11.25
-19.40
-27.48
-34.42
-39.49
-42.21
-42.14
-38.77
-31.75
-21.16
-7.64
7.56
22.85
36.63
47.53
54.51
56.94
54.77
48.62
39.87
30.33
21.79
15.45
11.52
9.23
7.32
4.66
0.86
-3.53
-7.33
-9.37
-9.12
-7.02
-4.29
-2.28
-1.75
-2.58
-3.91
-4.84
-5.00
-4.83
-5.19
-6.74
-9.39
-12.27
-14.26
-14.69
-13.78
-12.55
-12.30
-13.83
-17.03
-20.96
-24.30
-26.05
-25.88
-24.38
-22.65
-21.84
-22.77
-26.03
-31.93
-40.38
-50.68
-61.39
-70.60
-76.17
-76.38
-70.40
-58.89
-43.63
-27.12
-11.83
0.25
7.65
9.74
6.96
1.00
-5.89
-11.33
-13.56
-11.91
-7.16
-1.84
1.39
0.99
-2.20
-6.76
-10.96
-13.69
-14.57
-14.19
-15.07
-19.53
-28.38
-39.17
-49.77
-58.23
-63.56
-65.17
-63.33
-61.04
-61.16
-65.10
-70.39
-76.39
-83.47
-92.85
-104.11
-114.77
-123.13
-126.68
-123.28
-110.06
-91.11
-74.20
-67.89
-76.32
-82.29
-71.71
-40.07
-12.16
7.12
17.57
27.52
39.87
56.05
75.56
93.34
104.03
104.78
99.62
92.23
86.16
83.06
83.61
87.05
89.74
88.72
83.27
77.09
72.11
68.82
65.93
62.55
58.42
52.78
45.66
37.92
32.22
29.33
28.91
29.68
30.67
31.23
30.28
27.14
21.90
16.05
10.62
6.20
2.71
-0.10
-2.65
-5.59
-9.36
-14.08
-19.29
-24.52
-29.17
-32.57
-33.93
-32.57
-28.28
-21.43
-12.97
-4.16
3.80
10.14
14.76
18.09
20.79
23.32
25.64
27.25
27.55
26.30
23.93
21.38
19.61
19.08
19.40
19.64
18.91
16.87
13.98
11.18
9.30
8.57
8.52
8.33
7.34
5.48
3.16
1.13
0.08
0.33
1.65
3.33
4.48
4.41
2.88
0.14
-3.18
-6.30
-8.68
-10.36
-11.87
-13.89
-16.74
-20.11
-23.42
-26.11
-27.93
-29.02
-29.63
-29.78
-28.81
-25.37
-18.07
-6.73
7.14
20.55
30.17
33.62
30.67
23.54
16.07
13.38
18.62
30.54
44.42
55.21
59.99
58.46
52.26
44.21
37.10
32.59
31.71
35.00
42.75
54.15
66.23
74.22
72.92
59.18
33.41
0.38
-32.66
-58.51
-72.79
-72.71
-62.38
-48.49
-36.37
-29.30
-24.92
-20.17
-13.07
-3.35
7.19
15.55
19.50
18.44
13.64
7.40
1.37
-4.73
-10.36
-15.56
-20.31
-23.61
-23.77
-19.25
-9.29
5.13
20.91
35.75
48.97
61.13
72.85
83.67
91.70
94.50
89.60
73.92
47.55
14.05
-21.28
-54.06
-82.40
-106.88
-129.34
-152.44
-180.99
-216.86
-257.46
-296.72
-327.92
-345.85
-348.08
-335.03
-294.13
-227.53
-151.31
-85.04
-38.38
-9.58
8.25
21.25
33.90
47.76
60.04
68.70
73.24
73.69
69.56
60.95
46.13
28.03
11.18
-3.56
-17.47
-32.24
-47.59
-59.83
-62.02
-46.64
-9.25
47.04
110.26
165.34
200.19
209.85
196.88
169.16
136.30
106.51
83.75
66.91
52.67
38.10
22.15
5.43
-11.05
-27.14
-43.54
-61.60
-82.20
-104.46
-125.77
-142.82
-152.90
-154.79
-148.89
-136.79
-121.17
-105.30
-92.44
-84.91
-83.11
-85.08
-86.94
-84.14
-72.97
-51.89
-21.82
14.29
52.28
87.84
117.50
139.18
152.42
158.14
158.17
154.64
149.48
143.95
138.26
131.62
122.65
110.28
94.57
77.01
59.83
44.54
30.57
15.06
-5.61
-33.32
-66.07
-97.86
-120.94
-129.44
-122.29
-103.83
-81.64
-63.06
-52.12
-48.50
-48.95
-49.81
-49.09
-47.19
-45.82
-46.19
-47.88
-49.07
-47.93
-44.36
-40.59
-40.14
-45.58
-56.42
-68.62
-75.95
-72.67
-56.10
-27.75
7.26
42.28
71.41
91.20
101.33
104.13
103.44
103.20
106.08
112.60
121.09
128.42
131.38
128.11
118.66
104.89
89.46
74.93
63.33
56.13
54.62
59.80
71.84
89.41
109.35
127.30
139.13
142.50
137.66
127.31
115.16
104.31
96.02
89.52
82.78
73.69
61.14
45.56
28.86
13.77
3.03
-1.67
-0.69
3.04
4.37
-2.47
-21.71
-53.78
-94.50
-135.84
-168.49
-184.99
-182.13
-161.65
-128.94
-90.56
-51.68
-14.74
20.36
54.72
88.58
120.25
146.33
163.23
168.96
164.31
152.73
138.98
127.28
120.12
117.82
119.14
122.05
124.37
124.10
119.43
109.00
92.22
69.67
43.12
15.22
-11.17
-33.60
-50.48
-61.29
-66.64
-68.18
-68.34
-69.84
-75.10
-85.44
-100.74
-119.34
-138.60
-155.70
-168.38
-175.46
-176.98
-173.79
-167.00
-157.46
-145.34
-130.18
-111.25
-88.05
-60.90
-31.11
-0.84
27.40
51.39
69.81
82.47
90.26
94.89
98.48
103.06
109.95
119.27
129.57
138.41
142.83
140.43
130.42
114.09
94.77
76.37
61.76
51.79
45.38
40.07
33.24
23.27
10.11
-4.51
-18.23
-29.16
-36.69
-40.89
-42.89
-44.28
-46.65
-51.41
-58.77
-68.48
-80.14
-93.02
-104.24
-110.91
-111.32
-105.55
-95.87
-83.24
-68.61
-53.21
-38.31
-22.03
-3.60
15.13
30.32
36.98
36.78
34.71
36.61
47.44
74.69
120.95
181.52
245.58
297.91
332.07
346.82
344.42
330.78
320.64
327.38
357.23
407.19
464.26
521.30
572.74
613.68
596.81
496.84
324.01
119.85
-45.02
-166.78
-252.94
-310.53
-350.06
-376.53
-388.19
-384.78
-369.88
-350.25
-336.20
-327.84
-322.70
-319.23
-316.44
-309.05
-293.30
-269.54
-242.50
-221.34
-207.86
-201.04
-199.14
-199.71
-197.50
-188.62
-172.57
-152.30
-133.98
-119.41
-108.58
-101.02
-95.67
-90.04
-82.29
-72.14
-60.95
-51.65
-44.94
-40.67
-38.35
-37.18
-35.75
-32.89
-28.16
-21.99
-15.73
-10.20
-5.91
-3.05
-1.36
-0.31
0.66
1.97
3.71
5.73
7.77
9.68
11.44
13.18
14.94
16.61
17.86
18.35
17.88
16.65
15.34
14.97
16.52
20.48
26.48
33.15
38.47
40.43
37.81
30.61
20.17
8.62
-1.86
-9.69
-14.16
-15.25
-13.42
-9.31
-3.74
2.38
7.97
11.91
13.32
11.83
7.85
2.37
-3.34
-8.15
-11.34
-12.66
-12.31
-10.68
-8.14
-4.67
-0.01
6.21
14.25
24.32
36.21
49.23
62.17
73.44
82.02
87.46
89.95
90.25
89.83
90.01
91.36
93.48
95.13
95.82
95.69
95.26
95.11
96.06
98.17
100.28
100.02
94.27
81.64
62.22
37.37
9.60
-16.96
-37.90
-49.75
-51.05
-43.08
-27.54
-7.10
14.79
29.02
28.44
11.66
-15.69
-40.90
-61.25
-76.70
-87.77
-95.57
-100.28
-101.24
-98.03
-91.11
-82.06
-73.65
-67.10
-62.94
-61.36
-62.31
-64.91
-67.95
-70.48
-72.14
-73.61
-74.72
-75.24
-75.18
-74.67
-73.51
-71.36
-68.10
-64.08
-60.32
-57.32
-55.27
-54.17
-53.71
-53.10
-51.34
-47.57
-41.43
-33.28
-23.55
-12.90
-2.08
8.19
17.38
25.21
31.64
36.80
40.94
44.55
48.06
51.66
55.16
57.99
59.20
57.79
53.09
45.22
35.38
25.65
18.39
15.19
16.06
19.34
22.11
21.44
15.62
5.05
-7.82
-19.37
-26.13
-26.06
-19.49
-9.42
-1.02
-0.09
-10.97
-34.43
-66.74
-100.31
-125.94
-135.67
-125.57
-97.13
-56.74
-13.79
21.87
42.36
43.83
27.64
0.77
-26.60
-44.27
-45.42
-28.89
0.83
35.96
69.06
96.18
118.68
139.76
161.19
181.18
194.73
195.61
179.22
145.09
98.14
49.56
11.76
-5.28
3.20
35.81
85.45
141.13
191.37
227.86
249.81
259.80
261.08
255.33
242.43
221.57
192.46
156.49
103.67
35.57
-36.00
-94.80
-131.40
-146.89
-148.77
-145.72
-144.19
-146.88
-150.99
-154.00
-154.24
-151.21
-145.41
-136.44
-123.31
-105.84
-85.54
-65.14
-50.88
-48.05
-58.07
-77.21
-97.68
-110.98
-111.98
-99.94
-71.65
-33.55
4.16
34.17
55.78
72.96
89.25
103.47
110.75
107.05
87.97
54.85
13.95
-27.31
-63.20
-91.33
-113.90
-127.12
-130.20
-125.60
-115.45
-100.68
-82.66
-67.13
-56.36
-53.44
-60.09
-76.49
-100.56
-127.64
-148.46
-157.07
-151.05
-130.87
-99.70
-61.05
-18.63
24.53
66.42
105.26
138.18
162.06
174.50
173.60
158.60
129.11
85.57
30.07
-33.17
-98.00
-156.56
-200.56
-224.07
-224.82
-205.11
-170.42
-127.28
-81.27
-36.17
6.16
44.94
79.06
106.88
126.60
137.39
140.12
137.23
131.64
125.66
120.22
114.73
108.00
99.27
88.87
78.17
68.90
62.20
58.16
55.79
53.61
50.24
44.98
38.01
30.18
22.62
16.33
11.85
9.24
8.18
8.21
8.86
9.75
10.65
11.37
11.78
11.79
11.37
10.47
9.01
6.83
3.84
0.07
-4.20
-8.48
-12.22
-15.05
-16.88
-17.94
-18.58
-19.08
-19.51
-19.75
-19.65
-19.23
-18.68
-18.34
-18.47
-19.10
-20.06
-21.03
-21.73
-22.01
-21.97
-21.87
-22.00
-22.56
-23.55
-24.74
-25.79
-26.35
-26.26
-25.66
-24.92
-24.57
-24.99
-26.28
-28.17
-30.07
-31.36
-31.54
-30.37
-27.88
-24.22
-19.62
-14.31
-8.56
-2.71
2.87
7.86
12.01
15.30
17.81
19.68
21.02
21.86
22.15
21.91
21.21
20.22
19.13
18.10
17.24
16.57
16.11
15.85
15.73
15.67
15.51
15.13
14.45
13.50
12.34
11.07
9.71
8.20
6.46
4.44
2.15
-0.26
-2.64
-4.80
-6.65
-8.15
-9.37
-10.44
-11.54
-12.91
-14.76
-17.21
-20.18
-23.34
-26.17
-28.01
-28.35
-26.96
-24.03
-20.12
-15.88
-11.88
-8.32
-5.10
-1.99
1.19
4.35
7.25
9.55
11.08
11.86
12.05
11.86
11.43
10.82
10.10
9.33
8.60
8.01
7.57
7.25
7.00
6.79
6.62
6.54
6.55
6.63
6.67
6.51
5.96
4.89
3.24
1.10
-1.36
-3.84
-6.11
-8.01
-9.55
-10.83
-12.08
-13.48
-15.19
-17.23
-19.49
-21.72
-23.59
-24.74
-24.89
-23.87
-21.67
-18.43
-14.46
-10.11
-5.73
-1.55
2.33
5.95
9.37
12.57
15.49
17.99
20.00
21.57
22.88
24.15
25.48
26.86
28.13
29.19
30.01
30.74
31.61
32.82
34.44
36.41
38.48
40.41
41.98
43.14
44.03
45.01
46.50
48.87
52.24
56.44
61.03
65.55
69.69
73.54
77.56
82.42
88.71
96.73
106.35
117.03
128.07
138.81
148.94
158.68
168.73
180.19
194.37
212.46
235.05
261.60
290.00
316.68
337.34
348.27
347.63
336.10
316.51
292.56
267.31
242.22
217.05
190.74
162.46
132.33
101.32
70.69
41.31
13.30
-13.79
-40.54
-67.29
-94.09
-120.75
-147.06
-172.75
-197.19
-219.26
-237.30
-249.62
-255.18
-254.15
-248.04
-239.18
-229.80
-221.31
-214.03
-207.77
-202.24
-197.36
-193.47
-191.06
-190.34
-190.84
-191.44
-190.88
-188.63
-184.99
-180.73
-176.68
-173.18
-170.01
-166.39
-161.45
-154.58
-146.42
-137.88
-129.53
-121.31
-112.94
-104.22
-95.17
-86.13
-77.69
-72.50
-72.43
-77.42
-85.55
-94.41
-102.33
-108.58
-113.16
-116.57
-123.35
-136.40
-154.95
-174.92
-192.01
-204.07
-211.23
-215.00
-217.31
-225.98
-245.76
-275.34
-308.15
-337.39
-359.61
-374.32
-382.69
-386.21
-394.23
-413.18
-443.02
-477.68
-510.25
-536.21
-552.47
-557.34
-500.19
-360.77
-160.71
47.99
221.61
345.85
428.01
481.73
515.52
531.41
521.22
483.40
428.50
376.21
344.10
339.78
361.44
399.77
442.65
472.73
477.91
454.42
406.26
340.50
259.61
173.30
94.91
37.79
6.66
0.12
12.45
36.81
66.62
91.13
103.76
104.88
99.16
88.52
73.27
54.15
36.30
23.19
17.45
21.26
34.37
54.56
78.19
103.15
125.51
143.94
157.24
164.29
165.00
158.88
143.97
116.70
72.98
10.25
-69.64
-159.88
-248.87
-322.63
-369.63
-384.33
-368.15
-327.67
-271.83
-208.84
-145.46
-86.46
-34.68
8.33
42.02
66.68
83.58
94.52
101.63
106.49
110.07
112.76
114.35
114.27
112.03
107.55
101.37
94.68
88.61
83.88
80.38
77.41
73.95
69.25
63.17
56.25
49.48
43.88
40.02
37.73
36.10
33.84
29.80
23.48
15.18
5.88
-3.24
-11.28
-17.88
-23.15
-27.46
-31.04
-33.89
-35.82
-36.60
-36.12
-34.47
-31.82
-28.41
-24.40
-19.91
-15.07
-10.08
-5.15
-0.58
3.41
6.67
9.15
10.91
12.06
12.81
13.42
14.15
15.18
16.58
18.28
20.06
21.66
22.84
23.45
23.39
22.68
21.38
19.63
17.67
15.76
14.10
12.81
11.81
10.93
9.91
8.52
6.63
4.22
1.37
-1.77
-5.02
-8.19
-11.20
-14.03
-16.82
-19.68
-22.63
-25.45
-27.72
-28.91
-28.58
-26.55
-22.96
-18.21
-12.76
-6.99
-1.17
4.55
10.04
15.14
19.61
23.23
25.85
27.49
28.28
28.50
28.39
28.11
27.64
26.84
25.58
23.81
21.66
19.38
17.21
15.31
13.67
12.21
10.80
9.39
7.96
6.54
5.08
3.58
2.00
0.37
-1.24
-2.70
-3.94
-4.96
-5.81
-6.63
-7.49
-8.38
-9.19
-9.77
-10.02
-9.98
-9.87
-10.00
-10.61
-11.75
-13.18
-14.49
-15.22
-15.03
-13.81
-11.67
-8.86
-5.69
-2.41
0.79
3.81
6.57
8.98
10.91
12.20
12.77
12.59
11.75
10.40
8.73
6.84
4.79
2.67
0.58
-1.25
-2.60
-3.31
-3.39
-3.02
-2.51
-2.13
-2.01
-2.15
-2.39
-2.51
-2.28
-1.55
-0.26
1.53
3.61
5.74
7.74
9.57
11.32
13.17
15.16
17.10
18.53
18.81
17.38
13.95
8.73
2.34
-4.36
-10.52
-15.55
-19.23
-21.64
-23.02
-23.66
-23.82
-23.72
-23.61
-23.76
-24.39
-25.50
-26.89
-28.11
-28.68
-28.23
-26.68
-24.23
-21.25
-18.07
-14.87
-11.60
-8.09
-4.09
0.59
5.98
11.98
18.28
24.44
30.00
34.56
37.91
39.96
40.80
40.56
39.33
37.20
34.26
30.65
26.56
22.24
17.91
13.74
9.85
6.30
3.16
0.45
-1.85
-3.87
-5.79
-7.80
-9.91
-11.95
-13.57
-14.38
-14.14
-12.85
-10.74
-8.18
-5.49
-2.93
-0.66
1.21
2.56
3.24
3.16
2.28
0.58
-1.85
-4.91
-8.40
-12.04
-15.38
-17.98
-19.45
-19.57
-18.34
-15.87
-12.33
-7.83
-2.51
3.43
9.65
15.65
20.91
24.97
27.60
28.84
28.92
28.12
26.68
24.69
22.16
19.08
15.47
11.47
7.30
3.20
-0.62
-4.04
-6.99
-9.49
-11.60
-13.43
-15.13
-16.87
-18.67
-20.40
-21.69
-22.11
-21.25
-19.02
-15.64
-11.61
-7.55
-3.90
-0.89
1.57
3.71
5.79
7.92
10.02
11.91
13.34
14.17
14.38
14.09
13.44
12.56
11.51
10.32
9.11
8.09
7.52
7.65
8.58
10.19
12.19
14.23
15.98
17.19
17.73
17.52
16.52
14.72
12.22
9.16
5.83
2.56
-0.32
-2.58
-4.15
-5.13
-5.78
-6.37
-7.14
-8.22
-9.65
-11.42
-13.46
-15.69
-17.97
-20.11
-21.87
-23.01
-23.35
-22.80
-21.48
-19.63
-17.68
-15.87
-14.37
-13.24
-12.45
-11.89
-11.27
-10.31
-8.82
-6.85
-4.56
-2.20
-0.02
1.87
3.53
5.33
7.45
9.71
11.56
12.64
12.89
12.62
12.34
12.52
13.79
16.09
18.55
19.68
18.92
16.55
13.43
10.62
9.02
9.93
13.48
18.24
21.46
21.99
20.06
16.90
14.12
13.21
16.27
23.54
32.71
39.32
41.47
39.35
34.47
28.80
24.64
26.14
36.03
54.06
75.60
96.19
110.37
112.31
98.01
56.36
-9.94
-83.07
-132.14
-150.04
-140.82
-114.20
-79.68
-45.29
-15.98
8.25
28.29
43.54
50.81
49.71
41.88
30.20
17.65
6.50
-1.07
-5.13
-8.08
-13.93
-23.55
-35.59
-47.68
-57.69
-64.11
-65.29
-60.75
-51.46
-40.01
-27.91
-16.16
-5.46
3.72
11.27
17.63
22.92
26.48
27.05
24.39
19.21
12.83
6.55
1.07
-3.54
-7.89
-12.78
-18.69
-25.17
-31.14
-35.45
-37.28
-36.37
-32.93
-27.64
-21.40
-15.20
-9.95
-6.13
-3.72
-2.17
-0.77
1.09
3.69
6.96
10.66
14.49
18.12
21.15
23.12
23.55
22.22
19.28
15.29
11.03
7.20
4.17
1.83
-0.25
-2.57
-5.45
-8.90
-12.71
-16.55
-20.20
-23.54
-26.55
-29.23
-31.53
-33.34
-34.56
-35.17
-35.25
-34.93
-34.33
-33.46
-32.27
-30.63
-28.48
-25.83
-22.83
-19.71
-16.65
-13.76
-11.03
-8.36
-5.66
-2.90
-0.16
2.45
4.82
6.88
8.68
10.27
11.71
13.00
14.09
14.89
15.37
15.57
15.55
15.40
15.16
14.78
14.18
13.30
12.13
10.78
9.42
8.18
7.10
6.08
4.87
3.31
1.35
-0.86
-3.02
-4.87
-6.25
-7.22
-8.00
-8.80
-9.81
-11.11
-12.70
-14.52
-16.45
-18.28
-19.68
-20.26
-19.75
-18.06
-15.41
-12.23
-8.99
-6.03
-3.48
-1.23
0.87
2.92
4.81
6.37
7.43
7.96
8.17
8.35
8.71
9.29
9.90
10.27
10.24
9.84
9.29
8.86
8.69
8.77
8.90
8.87
8.51
7.78
6.76
5.54
4.23
2.87
1.48
0.05
-1.42
-2.88
-4.27
-5.48
-6.50
-7.38
-8.29
-9.42
-10.88
-12.61
-14.41
-16.02
-17.24
-17.99
-18.28
-18.13
-17.52
-16.36
-14.59
-12.26
-9.53
-6.67
-3.92
-1.43
0.81
2.92
4.98
6.98
8.81
10.31
11.32
11.81
11.88
11.72
11.55
11.47
11.53
11.61
11.57
11.32
10.84
10.23
9.60
9.07
8.64
8.26
7.85
7.34
6.71
6.03
5.34
4.64
3.87
2.96
1.84
0.54
-0.81
-2.06
-3.06
-3.79
-4.34
-4.88
-5.60
-6.60
-7.91
-9.40
-10.90
-12.20
-13.12
-13.55
-13.43
-12.77
-11.58
-9.91
-7.82
-5.38
-2.74
-0.01
2.63
5.08
7.22
8.97
10.27
11.10
11.53
11.68
11.67
11.62
11.54
11.35
10.96
10.28
9.38
8.43
7.60
7.03
6.69
6.42
6.02
5.37
4.48
3.49
2.56
1.76
1.11
0.56
0.04
-0.48
-1.05
-1.73
-2.56
-3.57
-4.70
-5.79
-6.66
-7.22
-7.50
-7.71
-8.09
-8.80
-9.85
-11.10
-12.33
-13.31
-13.88
-13.95
-13.50
-12.53
-11.09
-9.21
-6.97
-4.46
-1.79
0.89
3.43
5.67
7.51
8.87
9.70
10.03
9.94
9.57
9.07
8.60
8.19
7.84
7.48
7.08
6.68
6.36
6.22
6.30
6.54
6.79
6.89
6.67
6.07
5.14
3.99
2.83
1.80
1.00
0.38
-0.18
-0.84
-1.68
-2.70
-3.83
-5.01
-6.19
-7.34
-8.44
-9.43
-10.25
-10.93
-11.51
-12.06
-12.60
-13.00
-13.01
-12.36
-10.93
-8.78
-6.16
-3.43
-0.83
1.50
3.56
5.42
7.08
8.47
9.50
10.08
10.24
10.12
9.86
9.61
9.45
9.34
9.20
8.99
8.70
8.41
8.20
8.12
8.10
8.03
7.74
7.12
6.19
5.05
3.88
2.84
1.99
1.35
0.84
0.36
-0.19
-0.87
-1.68
-2.56
-3.38
-4.10
-4.73
-5.38
-6.18
-7.19
-8.40
-9.68
-10.90
-11.98
-12.92
-13.74
-14.46
-15.00
-15.21
-14.91
-13.98
-12.40
-10.29
-7.83
-5.25
-2.74
-0.43
1.65
3.51
5.16
6.54
7.58
8.27
8.68
9.02
9.47
10.15
10.97
11.71
12.10
12.02
11.54
10.85
10.19
9.65
9.15
8.53
7.62
6.44
5.13
3.91
2.96
2.27
1.69
1.04
0.22
-0.73
-1.68
-2.49
-3.13
-3.68
-4.26
-4.92
-5.61
-6.21
-6.58
-6.74
-6.81
-6.97
-7.41
-8.16
-9.13
-10.10
-10.80
-10.97
-10.49
-9.33
-7.58
-5.39
-2.91
-0.30
2.31
4.76
6.90
8.55
9.64
10.15
10.14
9.78
9.25
8.73
8.35
8.16
8.09
7.98
7.69
7.12
6.32
5.47
4.72
4.19
3.82
3.48
3.04
2.42
1.66
0.84
0.03
-0.71
-1.33
-1.76
-1.92
-1.74
-1.22
-0.45
0.45
1.30
2.02
2.57
2.93
3.04
2.84
2.25
1.23
-0.18
-1.87
-3.68
-5.45
-7.04
-8.32
-9.20
-9.64
-9.63
-9.21
-8.41
-7.25
-5.72
-3.86
-1.78
0.23
1.84
2.75
2.84
2.31
1.54
0.99
0.97
1.52
2.46
3.45
4.19
4.53
4.56
4.46
4.45
4.67
5.13
5.68
6.16
6.35
6.14
5.51
4.57
3.50
2.50
1.68
1.01
0.32
-0.60
-1.95
-3.71
-5.71
-7.61
-8.99
-9.58
-9.33
-8.44
-7.32
-6.43
-6.13
-6.55
-7.57
-8.86
-10.00
-10.60
-10.38
-9.25
-7.34
-4.93
-2.40
-0.10
1.73
2.94
3.60
3.81
3.78
3.70
3.74
3.99
4.41
4.90
5.27
5.40
5.31
5.14
5.11
5.42
6.12
7.11
8.16
9.04
9.53
9.47
8.80
7.55
5.83
3.87
1.89
0.07
-1.53
-2.90
-4.12
-5.20
-6.13
-6.88
-7.44
-7.84
-8.17
-8.48
-8.79
-9.04
-9.13
-9.04
-8.80
-8.54
-8.38
-8.39
-8.53
-8.65
-8.51
-7.91
-6.74
-4.99
-2.79
-0.31
2.28
4.80
7.09
8.99
10.34
11.03
11.11
10.70
10.04
9.36
8.79
8.35
7.95
7.49
6.91
6.23
5.56
4.98
4.53
4.22
3.96
3.68
3.33
2.90
2.43
1.93
1.41
0.84
0.21
-0.50
-1.26
-2.02
-2.77
-3.55
-4.42
-5.37
-6.35
-7.25
-8.03
-8.73
-9.51
-10.52
-11.74
-12.95
-13.79
-13.90
-13.12
-11.55
-9.50
-7.31
-5.27
-3.48
-1.89
-0.37
1.17
2.77
4.36
5.80
6.94
7.66
7.92
7.76
7.29
6.64
5.96
5.36
4.90
4.64
4.55
4.58
4.66
4.66
4.49
4.09
3.45
2.61
1.65
0.63
-0.34
-1.20
-1.86
-2.29
-2.53
-2.71
-3.03
-3.63
-4.55
-5.67
-6.79
-7.71
-8.38
-8.91
-9.47
-10.24
-11.21
-12.21
-12.95
-13.11
-12.51
-11.14
-9.18
-6.88
-4.47
-2.10
0.15
2.27
4.27
6.11
7.73
8.99
9.83
10.26
10.39
10.36
10.26
10.17
10.09
9.96
9.72
9.38
8.97
8.59
8.23
7.77
7.28
6.86
6.62
6.59
6.74
6.98
7.13
7.00
6.36
5.50
4.89
4.99
5.92
7.49
9.27
10.77
11.42
10.79
9.39
8.09
7.70
8.42
9.85
11.40
12.65
13.57
14.52
17.00
22.52
32.00
45.19
61.16
78.95
98.00
117.92
132.33
134.88
121.69
93.96
57.04
17.44
-19.14
-48.73
-69.50
-81.93
-87.32
-87.51
-84.17
-78.65
-71.90
-64.62
-57.65
-52.01
-48.73
-47.66
-47.74
-47.46
-45.62
-41.76
-36.22
-30.13
-24.98
-22.09
-21.69
-22.96
-24.43
-24.66
-22.85
-19.05
-14.25
-9.83
-7.17
-7.03
-9.51
-14.18
-20.12
-26.07
-29.75
-28.80
-21.43
-7.53
10.81
29.53
44.01
50.98
49.84
42.81
33.64
25.88
21.37
19.85
19.64
18.98
17.11
14.34
11.45
9.08
7.52
6.60
5.99
5.29
4.50
4.04
4.49
5.92
8.16
11.08
14.52
18.13
21.10
22.58
21.99
19.02
13.06
4.06
-7.16
-19.31
-29.57
-36.16
-38.25
-36.13
-31.02
-25.79
-23.09
-24.43
-29.83
-38.48
-49.45
-61.51
-73.27
-77.45
-70.15
-52.92
-30.99
-8.64
12.05
30.00
44.18
53.52
57.13
54.06
45.03
32.36
19.41
9.03
2.69
0.45
0.91
1.40
-2.09
-11.42
-27.01
-47.20
-69.17
-90.02
-107.56
-120.89
-130.12
-135.71
-136.29
-128.44
-108.71
-76.13
-33.06
15.69
64.61
109.23
143.24
160.55
160.82
149.83
134.23
117.77
101.56
85.90
71.44
59.26
50.88
47.47
48.17
49.84
48.48
41.26
27.78
10.12
-7.91
-22.84
-31.79
-34.06
-31.22
-25.97
-20.58
-16.20
-13.05
-10.86
-9.11
-7.19
-4.97
-2.74
-0.94
0.04
-0.20
-2.55
-8.18
-18.05
-32.07
-49.01
-66.59
-81.88
-92.07
-95.25
-90.96
-80.15
-64.80
-47.22
-29.75
-14.20
-1.60
7.90
14.85
19.99
23.78
26.12
26.42
24.01
18.62
10.84
2.08
-5.82
-11.21
-13.04
-11.15
-6.17
0.70
7.93
13.98
17.61
18.15
15.65
10.85
4.89
-1.10
-6.43
-11.03
-15.26
-19.54
-23.86
-27.76
-30.59
-31.81
-31.21
-28.93
-25.22
-20.35
-14.50
-7.82
-0.58
6.77
13.63
19.51
24.22
27.88
30.76
33.15
35.28
37.19
38.62
39.12
38.30
35.97
32.28
27.67
22.75
18.43
15.32
13.32
11.61
9.25
5.73
1.19
-3.67
-8.01
-10.44
-10.18
-7.56
-3.99
-0.78
1.59
3.66
6.58
11.32
19.44
31.43
46.12
60.84
73.26
82.56
89.47
95.60
102.19
111.41
124.68
141.96
161.48
181.05
198.51
211.38
217.05
203.63
165.61
108.61
47.17
-6.01
-46.61
-77.53
-104.43
-127.80
-143.78
-146.18
-132.85
-106.47
-78.58
-63.00
-68.59
-95.18
-134.42
-175.03
-206.74
-224.08
-226.14
-214.61
-191.18
-157.93
-119.67
-84.84
-63.45
-60.92
-73.95
-91.03
-98.28
-86.60
-56.82
-18.92
13.99
32.63
36.01
30.82
26.33
28.19
35.52
42.44
42.62
33.54
17.43
-0.34
-13.56
-17.80
-11.91
2.53
23.37
50.33
85.43
130.69
180.27
219.28
230.72
207.64
157.34
95.66
38.74
-3.15
-28.30
-42.07
-50.99
-57.87
-60.69
-55.98
-43.60
-28.74
-20.34
-25.42
-45.59
-74.46
-100.14
-110.42
-98.86
-67.52
-25.24
16.95
49.26
65.27
66.42
59.37
51.10
45.44
42.29
39.53
35.59
31.13
28.31
29.53
35.95
44.68
50.96
50.23
40.40
23.05
2.66
-15.46
-27.22
-31.50
-30.31
-26.99
-24.50
-24.18
-25.69
-27.78
-29.36
-30.01
-29.63
-28.94
-28.41
-28.12
-27.59
-26.21
-23.56
-19.76
-15.32
-11.14
-8.20
-7.00
-7.40
-8.77
-10.33
-11.57
-12.56
-13.87
-16.32
-20.52
-26.29
-32.65
-38.13
-41.34
-41.42
-38.26
-32.30
-24.27
-14.96
-5.14
4.41
12.87
19.49
23.86
26.09
26.76
26.69
26.47
26.21
25.52
23.82
20.71
16.25
11.08
6.20
2.63
1.14
2.06
5.19
9.93
15.40
20.71
25.10
28.15
29.78
30.20
29.76
28.78
27.43
25.68
23.43
20.58
17.21
13.57
10.07
7.21
5.41
4.88
5.55
7.04
8.80
10.28
11.08
11.04
10.17
8.54
6.12
2.90
-0.97
-5.10
-8.82
-11.52
-12.93
-13.38
-13.70
-14.79
-17.07
-20.28
-23.56
-25.99
-27.09
-27.12
-26.86
-27.23
-28.94
-32.34
-37.41
-43.76
-50.46
-55.94
-58.07
-54.80
-45.06
-29.40
-10.00
10.08
28.17
42.82
54.03
62.59
69.19
73.76
75.49
73.35
66.72
55.83
41.76
26.14
11.01
-1.60
-9.84
-12.52
-9.38
-1.37
9.64
21.25
31.17
37.50
38.84
34.29
23.64
7.71
-11.40
-30.49
-46.17
-56.02
-59.68
-58.98
-57.01
-56.66
-59.21
-64.01
-69.04
-72.29
-72.94
-71.94
-71.49
-73.83
-80.04
-89.40
-99.55
-107.47
-110.60
-107.66
-98.87
-85.43
-68.80
-50.14
-30.19
-9.56
10.79
29.44
44.61
54.74
58.98
57.59
51.77
43.38
34.32
26.03
19.27
14.19
10.73
8.98
9.37
12.56
19.01
28.61
40.39
52.76
63.99
72.76
78.55
81.65
82.94
83.51
84.33
86.06
88.93
92.74
96.70
99.58
99.88
96.27
88.05
75.51
59.89
43.08
27.00
13.14
2.26
-5.49
-10.34
-12.62
-12.66
-10.90
-8.02
-4.95
-2.74
-2.21
-3.71
-7.01
-11.46
-16.30
-20.91
-24.92
-28.15
-30.54
-32.04
-32.79
-33.16
-33.73
-35.13
-37.67
-41.12
-44.76
-47.59
-48.80
-48.04
-45.54
-41.89
-37.72
-33.49
-29.35
-25.29
-21.25
-17.26
-13.42
-9.88
-6.67
-3.73
-0.95
1.74
4.36
6.81
8.92
10.61
11.88
12.87
13.84
15.03
16.58
18.44
20.42
22.29
23.85
25.04
25.86
26.39
26.57
26.26
25.27
23.48
20.91
17.75
14.33
10.95
7.81
4.96
2.32
-0.25
-2.95
-5.88
-9.10
-12.51
-15.89
-18.93
-21.28
-22.66
-22.94
-22.22
-20.72
-18.76
-16.62
-14.49
-12.48
-10.64
-8.96
-7.42
-5.95
-4.47
-2.92
-1.29
0.32
1.68
2.59
2.91
2.66
2.07
1.43
0.99
0.89
1.10
1.51
2.05
2.66
3.35
4.09
4.81
5.38
5.69
5.70
5.49
5.20
4.98
4.89
4.90
4.93
4.89
4.72
4.36
3.75
2.82
1.52
-0.11
-1.92
-3.62
-4.94
-5.66
-5.77
-5.42
-4.83
-4.21
-3.60
-2.89
-1.87
-0.38
1.60
3.88
6.11
7.89
8.90
8.99
8.20
6.75
4.96
3.14
1.54
0.34
-0.43
-0.78
-0.78
-0.52
-0.09
0.41
0.85
1.14
1.19
1.02
0.69
0.33
0.08
0.02
0.11
0.21
0.14
-0.24
-0.94
-1.86
-2.82
-3.67
-4.35
-4.92
-5.49
-6.20
-7.10
-8.17
-9.33
-10.43
-11.25
-11.60
-11.33
-10.42
-8.98
-7.25
-5.43
-3.68
-2.00
-0.30
1.50
3.43
5.37
7.16
8.61
9.62
10.17
10.31
10.11
9.69
9.13
8.55
8.04
7.66
7.42
7.31
7.27
7.25
7.20
7.10
6.90
6.56
6.05
5.38
4.57
3.71
2.87
2.09
1.42
0.83
0.30
-0.22
-0.78
-1.42
-2.17
-3.03
-3.96
-4.93
-5.88
-6.83
-7.80
-8.83
-9.94
-11.10
-12.18
-13.00
-13.33
-13.01
-11.97
-10.26
-8.05
-5.54
-2.90
-0.20
2.51
5.13
7.47
9.30
10.45
10.89
10.83
10.55
10.33
10.28
10.31
10.24
9.93
9.35
8.63
7.93
7.38
6.95
6.55
6.07
5.48
4.82
4.20
3.68
3.27
2.89
2.46
1.88
1.17
0.38
-0.40
-1.13
-1.84
-2.61
-3.54
-4.66
-5.92
-7.22
-8.47
-9.62
-10.72
-11.81
-12.87
-13.80
-14.42
-14.52
-14.00
-12.86
-11.20
-9.14
-6.80
-4.25
-1.52
1.35
4.26
7.05
9.49
11.36
12.47
12.82
12.51
11.81
10.99
10.26
9.70
9.25
8.85
8.47
8.10
7.75
7.38
6.88
6.17
5.20
4.06
2.91
1.87
1.02
0.30
-0.39
-1.17
-2.12
-3.23
-4.41
-5.53
-6.41
-6.91
-6.95
-6.55
-5.85
-5.06
-4.41
-4.08
-4.18
-4.74
-5.68
-6.84
-8.02
-8.97
-9.46
-9.31
-8.48
-7.02
-5.12
-3.02
-0.91
1.10
3.00
4.88
6.82
8.80
10.72
12.37
13.54
14.11
14.04
13.39
12.27
10.81
9.14
7.35
5.55
3.82
2.22
0.80
-0.34
-1.09
-1.39
-1.22
-0.70
-0.02
0.60
1.03
1.21
1.24
1.16
1.00
0.71
0.20
-0.59
-1.61
-2.77
-3.92
-4.96
-5.88
-6.71
-7.50
-8.31
-9.18
-10.11
-11.03
-11.80
-12.25
-12.24
-11.64
-10.45
-8.77
-6.74
-4.48
-2.09
0.37
2.81
5.10
7.04
8.50
9.40
9.81
9.88
9.80
9.70
9.62
9.51
9.32
9.02
8.58
8.02
7.28
6.31
5.07
3.61
2.08
0.64
-0.55
-1.42
-2.04
-2.48
-2.83
-3.15
-3.48
-3.89
-4.45
-5.20
-6.05
-6.83
-7.32
-7.41
-7.14
-6.72
-6.39
-6.32
-6.52
-6.90
-7.29
-7.52
-7.49
-7.07
-6.19
-4.77
-2.86
-0.59
1.82
4.23
6.61
9.01
11.47
13.89
16.03
17.55
18.18
17.82
16.53
14.53
12.05
9.33
6.51
3.75
1.11
-1.41
-3.86
-6.31
-8.74
-11.03
-12.95
-14.25
-14.79
-14.60
-13.83
-12.66
-11.19
-9.43
-7.38
-5.13
-2.90
-0.98
0.43
1.30
1.84
2.35
3.08
4.05
5.06
5.71
5.62
4.59
2.60
-0.14
-3.28
-6.42
-9.09
-10.84
-11.23
-9.91
-6.72
-1.78
4.41
11.01
16.96
21.23
23.15
22.57
19.91
15.98
11.62
7.45
3.69
0.25
-2.98
-6.00
-8.52
-10.12
-10.47
-9.57
-7.74
-5.58
-3.67
-2.36
-1.69
-1.47
-1.40
-1.27
-0.97
-0.50
0.10
0.79
1.51
2.17
2.62
2.71
2.33
1.45
0.18
-1.27
-2.67
-3.80
-4.58
-5.05
-5.34
-5.56
-5.76
-5.85
-5.71
-5.21
-4.35
-3.23
-2.01
-0.83
0.30
1.38
2.43
3.40
4.13
4.45
4.25
3.56
2.56
1.50
0.65
0.14
0.00
0.16
0.48
0.79
0.89
0.57
-0.33
-1.88
-3.97
-6.31
-8.58
-10.47
-11.83
-12.63
-12.92
-12.78
-12.30
-11.55
-10.61
-9.59
-8.58
-7.63
-6.74
-5.88
-5.07
-4.40
-4.01
-4.02
-4.47
-5.32
-6.41
-7.49
-8.27
-8.41
-7.68
-6.00
-3.55
-0.66
2.27
4.98
7.50
10.03
12.91
16.26
19.92
23.41
26.17
27.77
28.16
27.60
26.59
25.65
25.15
25.36
26.45
28.41
30.75
32.30
31.29
25.86
14.92
-1.13
-20.27
-39.43
-55.50
-66.36
-71.33
-70.97
-66.54
-59.41
-50.82
-41.90
-33.74
-27.28
-23.01
-20.72
-19.44
-17.83
-14.67
-9.27
-1.69
7.28
16.51
24.77
31.05
34.72
35.66
34.18
30.93
26.75
22.46
18.70
15.80
13.84
12.66
12.01
11.63
11.34
11.06
10.91
11.04
11.51
12.24
12.99
13.52
13.72
13.66
13.53
13.61
14.00
14.52
14.82
14.59
13.75
12.46
10.97
9.48
8.33
7.70
7.46
7.27
6.81
5.99
4.89
3.79
3.08
3.70
6.37
11.01
16.71
22.17
26.17
27.98
27.51
25.33
23.34
23.45
26.34
31.43
37.33
42.70
46.81
49.71
52.24
56.80
65.47
78.37
93.64
108.39
119.94
126.62
127.94
116.87
90.30
50.81
5.74
-36.78
-71.63
-97.18
-114.22
-125.05
-132.64
-139.86
-146.46
-151.24
-152.43
-148.36
-138.26
-122.95
-104.79
-86.74
-70.13
-53.86
-37.90
-22.35
-7.49
6.04
17.18
24.74
28.07
28.11
26.74
25.42
24.90
24.87
23.86
19.63
10.18
-5.09
-24.28
-43.36
-57.84
-64.15
-60.94
-49.77
-34.62
-20.24
-10.26
-5.83
-5.80
-8.00
-10.32
-11.41
-11.31
-11.39
-13.34
-17.85
-23.85
-28.77
-29.67
-24.52
-12.60
4.54
22.93
37.46
43.96
40.70
28.67
10.99
-7.79
-21.63
-24.86
-14.35
9.24
41.69
76.37
106.02
125.03
126.47
109.25
81.21
55.09
40.08
37.54
43.11
51.04
56.95
58.31
54.65
46.18
32.79
14.62
-6.86
-28.50
-46.65
-58.71
-63.96
-63.89
-59.94
-54.66
-51.34
-52.86
-60.50
-73.47
-88.98
-102.72
-109.65
-105.70
-89.47
-63.24
-32.07
-1.80
22.86
39.58
48.50
51.69
49.94
44.93
38.99
34.10
31.25
30.47
31.39
33.60
36.74
40.43
44.34
47.86
50.30
51.35
51.24
50.73
50.65
51.48
53.16
55.33
57.24
58.01
57.51
55.80
53.31
50.61
48.17
46.28
45.21
45.11
46.05
48.14
51.44
55.81
60.65
64.67
66.05
62.94
53.90
38.39
17.03
-8.67
-36.76
-65.62
-94.52
-123.82
-154.43
-186.94
-220.70
-253.32
-281.04
-299.62
-305.65
-297.55
-276.21
-244.29
-205.41
-163.30
-121.25
-81.83
-46.67
-16.44
8.96
29.94
47.15
61.36
73.37
83.84
93.26
101.76
108.92
113.87
115.32
112.89
107.80
102.52
99.62
100.61
105.27
111.82
117.83
120.29
118.08
112.70
107.03
103.25
101.92
102.17
102.60
102.11
98.25
90.49
80.94
72.19
64.79
56.81
45.42
28.92
8.09
-17.21
-43.68
-64.33
-72.65
-67.04
-51.73
-34.37
-23.13
-24.54
-47.19
-94.53
-161.68
-238.20
-312.23
-372.72
-410.80
-422.03
-379.55
-282.95
-163.44
-61.22
2.96
32.32
40.90
41.26
39.74
37.89
31.93
18.61
6.46
5.04
17.73
40.44
65.07
84.12
93.89
91.47
78.33
60.62
46.51
40.10
41.60
49.18
60.47
73.27
83.36
87.76
86.70
81.80
74.40
65.48
56.04
47.56
41.70
38.74
38.48
40.86
44.88
48.35
48.89
45.00
36.95
26.62
16.41
8.67
5.23
6.44
10.98
16.42
19.98
19.30
13.03
1.40
-13.57
-28.25
-38.55
-41.33
-35.64
-23.15
-7.34
8.04
20.56
29.77
36.69
42.67
48.37
53.66
58.07
61.52
64.51
67.85
72.00
76.81
81.55
85.32
87.38
86.98
83.00
73.69
57.07
31.95
-0.97
-38.56
-75.81
-107.29
-128.86
-138.80
-137.85
-128.44
-113.68
-96.64
-80.10
-66.41
-57.21
-52.90
-52.24
-52.74
-51.68
-47.52
-40.76
-33.59
-28.55
-26.93
-27.95
-29.28
-28.59
-25.14
-20.42
-17.39
-18.69
-24.95
-34.06
-41.95
-44.39
-38.96
-26.14
-9.04
8.10
21.63
29.58
31.85
29.43
23.52
14.98
4.41
-7.46
-19.39
-29.76
-37.21
-41.30
-42.96
-44.14
-47.00
-52.88
-61.70
-72.00
-81.65
-88.70
-91.96
-90.86
-84.97
-73.66
-56.62
-35.02
-12.49
5.20
12.24
5.61
-12.83
-36.49
-56.76
-66.73
-63.98
-50.95
-33.14
-16.06
-3.18
4.47
7.54
7.45
6.19
6.33
10.77
21.80
40.13
64.54
92.35
120.42
145.92
166.65
180.76
187.02
185.33
178.09
170.35
168.29
176.28
194.13
216.45
234.72
241.18
231.97
209.43
180.65
153.57
132.98
118.65
106.16
89.47
63.80
26.38
-21.17
-73.20
-121.90
-159.62
-180.42
-181.15
-162.56
-129.84
-93.58
-64.56
-50.19
-52.75
-69.92
-96.35
-125.83
-153.56
-177.46
-200.05
-223.10
-245.18
-262.25
-270.04
-266.04
-250.09
-224.22
-177.98
-113.28
-43.82
14.78
55.80
81.31
96.27
104.64
108.68
109.52
105.85
97.93
88.46
80.55
75.78
73.86
73.65
74.32
76.08
78.20
81.04
85.96
92.60
98.15
98.18
88.87
69.35
42.46
12.93
-13.27
-31.10
-38.69
-37.78
-32.23
-25.74
-20.26
-16.00
-12.90
-10.60
-8.55
-6.14
-2.84
1.95
7.29
11.08
10.71
4.42
-7.17
-21.15
-34.19
-44.80
-54.33
-65.73
-80.43
-96.18
-107.24
-107.41
-93.77
-69.02
-40.62
-17.23
-4.90
-4.74
-13.55
-26.61
-40.31
-53.19
-65.02
-75.14
-81.54
-81.70
-74.28
-60.56
-44.37
-30.57
-22.81
-21.88
-25.40
-29.18
-29.31
-24.21
-15.48
-7.21
-3.98
-8.42
-19.93
-34.91
-48.62
-57.36
-59.82
-56.94
-50.59
-42.08
-31.69
-19.19
-4.79
10.40
24.77
37.09
47.00
54.80
60.71
64.34
64.83
61.51
54.57
44.98
33.89
21.99
9.56
-2.76
-13.14
-18.49
-15.57
-2.94
17.54
40.49
58.86
66.92
62.84
49.87
35.33
27.88
34.19
56.47
91.52
131.75
167.45
189.57
192.13
173.50
136.37
86.78
32.53
-18.48
-59.63
-86.56
-97.70
-94.24
-79.58
-58.27
-34.84
-12.62
6.67
22.66
35.61
45.62
52.40
55.39
54.18
48.93
40.43
30.05
19.41
10.08
3.27
-0.42
-1.10
0.48
3.21
5.96
7.73
7.90
6.15
2.49
-2.78
-9.06
-15.56
-21.44
-25.91
-28.42
-28.68
-26.67
-22.67
-17.21
-11.03
-4.86
0.72
5.52
9.68
13.50
17.26
21.01
24.56
27.55
29.58
30.31
29.47
26.87
22.46
16.49
9.61
2.93
-2.22
-4.63
-3.70
0.31
6.27
12.54
17.53
20.10
19.88
17.23
12.96
8.03
3.37
-0.33
-2.63
-3.39
-2.73
-1.02
1.23
3.47
5.25
6.24
6.28
5.39
3.78
1.82
-0.02
-1.31
-1.80
-1.50
-0.70
0.09
0.44
0.14
-0.66
-1.56
-2.06
-1.86
-1.00
0.19
1.25
1.87
1.91
1.45
0.59
-0.66
-2.43
-4.96
-8.42
-12.98
-18.64
-25.32
-32.68
-40.08
-46.64
-51.34
-53.41
-52.50
-48.84
-42.98
-35.50
-26.76
-16.84
-5.80
5.99
17.66
27.95
35.56
39.63
40.10
37.75
33.95
30.17
27.60
26.75
27.42
28.75
29.52
28.55
25.15
19.37
12.16
5.15
0.21
-1.18
1.45
7.31
14.52
20.72
24.02
23.69
20.45
16.03
12.40
10.89
11.85
14.79
19.00
24.10
30.12
37.12
44.71
51.71
56.38
56.98
52.46
42.80
28.98
12.64
-4.35
-20.26
-33.66
-43.69
-50.01
-52.82
-52.57
-49.68
-44.36
-36.63
-26.59
-14.74
-2.11
9.90
19.79
26.35
28.82
27.00
21.24
12.44
2.03
-8.21
-16.58
-21.97
-24.24
-24.35
-23.94
-24.63
-27.34
-31.85
-36.92
-40.87
-42.38
-41.09
-37.69
-33.50
-29.80
-27.22
-25.64
-24.41
-22.89
-20.69
-17.72
-13.88
-8.91
-2.53
5.12
13.08
19.50
22.24
19.77
12.00
0.51
-12.03
-22.87
-30.21
-33.77
-34.54
-33.99
-33.18
-32.22
-30.38
-26.68
-20.57
-12.33
-2.87
6.84
16.30
25.85
36.38
48.65
62.63
77.02
89.43
97.00
97.35
89.37
73.73
52.82
30.07
9.03
-7.67
-18.90
-25.07
-27.52
-27.62
-26.13
-23.00
-17.89
-10.90
-3.06
3.78
7.66
7.44
3.37
-2.98
-9.49
-14.36
-16.71
-16.63
-14.71
-11.57
-7.66
-3.37
0.68
3.55
4.29
2.33
-1.98
-7.35
-11.91
-13.93
-12.61
-8.43
-2.96
1.81
4.34
4.16
1.93
-0.92
-3.01
-3.59
-2.76
-1.31
-0.10
0.37
0.23
0.10
0.59
2.05
4.28
6.69
8.53
9.29
8.83
7.50
5.90
4.66
4.19
4.57
5.52
6.55
7.17
7.06
6.15
4.58
2.60
0.38
-2.06
-4.81
-7.97
-11.41
-14.81
-17.68
-19.62
-20.49
-20.42
-19.73
-18.71
-17.48
-15.97
-14.02
-11.54
-8.65
-5.66
-3.00
-1.08
0.00
0.51
1.01
2.10
4.08
6.81
9.75
12.27
14.07
15.31
16.44
17.89
19.68
21.33
22.11
21.44
19.24
15.94
12.28
8.93
6.27
4.38
3.10
2.25
1.66
1.24
0.88
0.49
-0.05
-0.77
-1.65
-2.59
-3.47
-4.23
-4.87
-5.44
-6.04
-6.78
-7.75
-9.01
-10.60
-12.48
-14.50
-16.43
-17.96
-18.74
-18.48
-16.93
-14.03
-9.94
-5.09
-0.08
4.40
7.80
9.88
10.73
10.72
10.34
9.98
9.88
10.12
10.68
11.50
12.48
13.44
14.14
14.33
13.91
13.01
12.00
11.38
11.47
12.26
13.28
13.83
13.28
11.43
8.59
5.44
2.72
0.86
-0.08
-0.35
-0.29
-0.17
-0.12
-0.25
-0.67
-1.56
-3.07
-5.22
-7.87
-10.73
-13.46
-15.77
-17.47
-18.54
-19.06
-19.13
-18.75
-17.75
-15.82
-12.62
-8.07
-2.48
3.46
8.88
13.07
15.68
16.78
16.72
15.86
14.42
12.49
10.10
7.33
4.42
1.64
-0.83
-2.95
-4.90
-6.95
-9.30
-11.95
-14.70
-17.20
-19.05
-19.90
-19.54
-17.88
-14.88
-10.64
-5.26
1.05
7.99
15.22
22.33
28.85
34.20
37.74
38.82
37.02
32.38
25.51
17.55
9.85
3.51
-0.99
-3.86
-5.87
-7.90
-10.55
-13.94
-17.71
-21.22
-23.78
-24.87
-24.11
-21.39
-16.81
-10.68
-3.52
3.98
11.05
16.94
21.00
22.82
22.29
19.68
15.58
10.87
6.43
2.96
0.81
-0.11
-0.14
0.26
0.73
1.13
1.52
2.00
2.62
3.26
3.71
3.75
3.27
2.30
0.98
-0.53
-2.15
-3.82
-5.47
-6.99
-8.21
-8.99
-9.28
-9.17
-8.79
-8.20
-7.29
-5.78
-3.36
0.12
4.45
9.06
13.14
15.95
17.16
16.92
15.75
14.16
12.44
10.42
7.76
4.23
0.05
-4.12
-7.38
-9.00
-8.78
-7.05
-4.55
-2.05
-0.11
1.07
1.63
1.88
2.17
2.76
3.76
5.09
6.53
7.72
8.34
8.24
7.46
6.26
4.90
3.51
1.90
-0.32
-3.49
-7.60
-12.10
-16.04
-18.49
-18.99
-17.84
-15.92
-14.29
-13.60
-13.78
-14.08
-13.45
-10.99
-6.32
0.38
8.45
16.79
23.94
28.23
28.15
23.02
13.42
1.34
-10.38
-19.03
-23.11
-22.77
-19.58
-15.59
-12.30
-10.11
-8.40
-6.30
-3.47
-0.45
1.55
1.36
-1.38
-5.96
-10.83
-14.27
-15.11
-13.08
-8.83
-3.46
1.85
6.19
9.07
10.30
9.99
8.41
5.87
2.65
-1.16
-5.63
-10.82
-16.57
-22.26
-26.80
-28.95
-27.72
-22.80
-14.76
-4.87
5.34
14.56
22.00
27.36
30.71
32.20
31.98
30.27
27.51
24.36
21.61
19.85
19.22
19.35
19.49
18.80
16.65
12.84
7.60
1.56
-4.50
-9.78
-13.75
-16.18
-17.21
-17.24
-16.71
-15.96
-15.07
-13.94
-12.45
-10.52
-8.30
-6.05
-4.07
-2.60
-1.73
-1.43
-1.54
-1.82
-1.87
-1.23
0.53
3.57
7.53
11.48
14.12
14.30
11.49
6.20
-0.19
-5.85
-9.30
-9.88
-7.99
-4.80
-1.66
0.34
0.75
-0.33
-2.38
-4.77
-6.82
-7.91
-7.51
-5.32
-1.45
3.51
8.53
12.48
14.48
14.28
12.26
9.31
6.35
4.06
2.65
1.94
1.56
1.17
0.56
-0.31
-1.36
-2.46
-3.46
-4.24
-4.73
-4.95
-4.98
-4.91
-4.82
-4.68
-4.44
-4.06
-3.58
-3.13
-2.95
-3.25
-4.11
-5.50
-7.23
-8.99
-10.49
-11.48
-11.79
-11.35
-10.18
-8.41
-6.25
-3.98
-1.91
-0.30
0.71
1.09
0.93
0.36
-0.44
-1.29
-1.99
-2.38
-2.37
-2.03
-1.52
-1.09
-0.91
-1.04
-1.36
-1.68
-1.81
-1.67
-1.32
-0.88
-0.46
-0.07
0.32
0.73
1.10
1.27
1.08
0.43
-0.56
-1.61
-2.41
-2.73
-2.61
-2.25
-1.95
-1.96
-2.37
-3.20
-4.45
-6.14
-8.22
-10.51
-12.60
-13.93
-14.02
-12.69
-10.17
-6.97
-3.72
-0.91
1.24
2.74
3.68
4.12
4.12
3.77
3.23
2.77
2.58
2.78
3.28
3.94
4.58
5.11
5.45
5.53
5.30
4.72
3.90
3.07
2.54
2.51
2.94
3.58
4.01
3.91
3.19
1.98
0.57
-0.76
-1.86
-2.66
-3.21
-3.54
-3.72
-3.83
-3.97
-4.27
-4.79
-5.53
-6.41
-7.34
-8.25
-9.13
-9.95
-10.65
-11.03
-10.87
-9.94
-8.22
-5.88
-3.31
-0.98
0.72
1.61
1.78
1.56
1.40
1.72
2.79
4.60
6.87
9.12
10.86
11.69
11.53
10.55
9.14
7.75
6.73
6.20
6.00
5.82
5.27
4.17
2.67
1.27
0.75
1.80
4.72
9.16
14.16
18.42
20.76
20.56
17.96
13.68
8.65
3.63
-1.03
-5.34
-9.46
-13.45
-17.15
-20.25
-22.44
-23.51
-23.44
-22.34
-20.32
-17.54
-14.13
-10.35
-6.59
-3.27
-0.84
0.47
0.65
0.01
-1.02
-1.93
-2.38
-2.24
-1.57
-0.58
0.56
1.72
2.88
4.06
5.25
6.37
7.27
7.79
7.85
7.49
6.83
6.03
5.19
4.35
3.50
2.67
1.91
1.35
1.08
1.08
1.20
1.22
0.95
0.31
-0.55
-1.44
-2.17
-2.71
-3.16
-3.70
-4.46
-5.43
-6.47
-7.41
-8.10
-8.52
-8.72
-8.80
-8.73
-8.45
-7.84
-6.83
-5.53
-4.15
-2.91
-1.93
-1.13
-0.27
0.87
2.30
3.74
4.71
4.77
3.82
2.24
0.76
0.19
1.09
3.63
7.55
12.34
17.50
22.58
27.23
31.07
33.68
34.61
33.59
30.64
26.06
20.34
13.96
7.22
0.27
-6.74
-13.45
-19.26
-23.48
-25.59
-25.53
-23.81
-21.29
-18.87
-17.12
-16.15
-15.67
-15.20
-14.39
-13.21
-11.90
-10.85
-10.30
-10.27
-10.40
-10.17
-9.06
-6.86
-3.71
-0.12
3.28
6.00
7.84
8.86
9.27
9.29
9.01
8.49
7.79
7.07
6.54
6.31
6.37
6.52
6.44
5.91
4.83
3.30
1.54
-0.18
-1.64
-2.68
-3.24
-3.34
-3.05
-2.48
-1.80
-1.18
-0.73
-0.44
-0.18
0.24
0.96
1.98
3.01
3.63
3.41
2.10
-0.19
-3.09
-6.02
-8.40
-9.80
-10.01
-9.09
-7.30
-5.06
-2.81
-0.90
0.54
1.56
2.36
3.12
3.91
4.66
5.23
5.54
5.62
5.61
5.67
5.87
6.12
6.25
6.10
5.64
4.98
4.34
3.94
3.83
3.94
4.03
3.93
3.57
3.08
2.64
2.38
2.26
2.13
1.75
1.00
-0.08
-1.32
-2.50
-3.47
-4.22
-4.84
-5.45
-6.12
-6.85
-7.57
-8.21
-8.73
-9.15
-9.52
-9.90
-10.31
-10.78
-11.28
-11.76
-12.15
-12.31
-12.09
-11.29
-9.83
-7.70
-5.03
-2.07
0.85
3.35
5.11
5.87
5.60
4.54
3.15
1.99
1.54
1.95
3.05
4.47
5.89
7.16
8.42
9.85
11.48
13.09
14.23
14.46
13.63
11.96
9.97
8.22
7.04
6.40
5.97
5.34
4.18
2.36
-0.03
-2.86
-5.98
-9.20
-12.25
-14.76
-16.33
-16.73
-16.00
-14.55
-13.00
-11.91
-11.63
-12.09
-12.97
-13.86
-14.40
-14.43
-14.01
-13.34
-12.63
-12.08
-11.71
-11.38
-10.78
-9.45
-7.02
-3.26
1.71
7.43
13.20
18.25
21.91
23.76
23.74
22.06
19.21
15.81
12.52
9.92
8.47
8.43
9.80
12.24
15.11
17.51
18.53
17.41
13.88
8.26
1.41
-5.49
-11.31
-15.25
-17.04
-16.90
-15.41
-13.27
-11.11
-9.33
-8.12
-7.42
-7.07
-6.85
-6.63
-6.35
-6.03
-5.71
-5.41
-5.08
-4.62
-3.89
-2.78
-1.26
0.58
2.55
4.38
5.77
6.58
6.78
6.46
5.78
4.84
3.64
2.21
0.65
-0.79
-1.82
-2.25
-2.10
-1.59
-0.92
-0.16
0.87
2.37
4.34
6.49
8.32
9.45
9.82
9.76
9.67
9.68
9.49
8.53
6.35
3.02
-0.80
-4.18
-6.36
-7.28
-7.48
-7.93
-9.35
-11.86
-14.85
-17.28
-18.16
-17.00
-13.96
-9.74
-5.16
-0.92
2.63
5.35
7.17
7.97
7.62
6.13
3.82
1.32
-0.57
-1.18
-0.18
2.35
5.94
9.93
13.59
16.24
17.39
16.85
14.75
11.58
8.01
4.79
2.50
1.49
1.76
3.08
5.07
7.27
9.28
10.80
11.66
11.86
11.51
10.84
10.12
9.60
9.56
10.19
11.58
13.64
16.05
18.25
19.57
19.44
17.57
14.28
10.39
7.12
5.66
6.80
10.57
16.25
22.39
27.26
29.21
27.19
21.05
11.81
1.47
-7.59
-13.38
-15.03
-13.05
-8.89
-4.21
0.02
3.81
8.02
13.67
21.31
30.45
39.48
45.92
46.98
40.29
24.95
2.53
-22.64
-44.43
-57.12
-57.91
-48.43
-34.15
-21.95
-16.95
-20.48
-30.07
-41.45
-50.93
-57.03
-60.31
-62.04
-62.80
-62.00
-58.58
-52.15
-43.78
-35.65
-29.92
-27.50
-27.54
-27.58
-24.72
-17.13
-4.96
9.45
22.49
30.70
32.25
27.58
19.17
10.33
3.90
1.21
1.94
4.58
7.30
8.76
8.37
6.32
3.25
0.03
-2.38
-2.94
-0.69
5.03
14.19
25.81
38.08
48.73
55.81
58.25
56.11
50.34
42.21
32.83
22.83
12.60
2.56
-6.64
-14.19
-19.50
-22.45
-23.58
-23.81
-24.06
-24.81
-26.08
-27.54
-28.87
-29.96
-30.97
-32.15
-33.54
-34.85
-35.44
-34.57
-31.71
-26.74
-20.09
-12.54
-4.94
2.02
7.90
12.54
15.90
18.05
19.07
19.12
18.50
17.64
17.01
16.95
17.51
18.39
19.00
18.74
17.21
14.45
10.88
7.14
3.80
1.18
-0.69
-2.01
-3.00
-3.86
-4.82
-6.14
-8.08
-10.73
-13.85
-16.86
-19.02
-19.80
-19.16
-17.58
-15.90
-14.83
-14.65
-15.11
-15.59
-15.46
-14.39
-12.52
-10.34
-8.46
-7.34
-7.06
-7.36
-7.70
-7.51
-6.37
-4.13
-0.92
2.88
6.79
10.23
12.70
13.81
13.43
11.76
9.24
6.47
3.96
2.04
0.74
-0.10
-0.73
-1.36
-2.11
-3.01
-4.07
-5.26
-6.54
-7.87
-9.23
-10.67
-12.25
-13.96
-15.61
-16.78
-17.07
-16.29
-14.66
-12.83
-11.57
-11.42
-12.41
-14.10
-15.83
-17.11
-17.86
-18.40
-19.23
-20.76
-23.22
-26.67
-31.09
-36.28
-41.56
-45.43
-45.66
-39.89
-26.77
-7.04
16.24
38.51
55.37
64.42
66.17
63.64
60.79
60.67
64.18
70.08
76.11
80.28
81.83
81.31
79.93
78.69
77.89
77.02
75.21
71.84
66.80
60.51
53.53
46.20
38.36
29.64
19.74
8.83
-2.38
-12.83
-21.53
-27.93
-32.02
-34.09
-34.34
-32.67
-28.60
-21.64
-11.64
0.99
15.21
29.53
42.37
52.29
58.24
59.65
56.45
49.15
38.78
26.88
15.24
5.56
-1.05
-4.42
-5.43
-5.74
-7.19
-11.07
-17.52
-25.44
-32.99
-38.48
-41.30
-42.26
-43.23
-46.27
-52.60
-62.01
-72.92
-83.02
-90.19
-93.08
-91.34
-85.52
-76.76
-66.63
-56.99
-49.67
-45.93
-45.72
-47.26
-47.29
-42.14
-29.26
-8.40
17.98
45.48
69.06
84.50
89.22
82.68
66.17
42.53
15.74
-9.65
-29.45
-40.89
-43.38
-38.53
-29.52
-19.85
-12.19
-7.79
-6.41
-6.80
-7.27
-6.29
-2.87
3.17
11.12
19.55
26.79
31.47
33.00
31.63
28.28
24.03
19.82
16.13
13.10
10.62
8.46
6.47
4.62
3.06
1.97
1.38
0.95
-0.08
-2.62
-7.27
-13.87
-21.36
-28.11
-32.62
-34.04
-32.48
-28.72
-23.75
-18.38
-13.10
-8.27
-4.31
-1.84
-1.45
-3.51
-7.87
-13.76
-19.78
-24.22
-25.48
-22.62
-15.88
-6.88
1.82
7.59
8.83
5.82
0.74
-3.03
-2.21
5.21
19.18
37.61
56.97
73.25
82.94
83.90
75.79
60.15
40.00
18.97
0.32
-13.89
-23.12
-28.22
-30.79
-32.45
-34.41
-37.30
-41.27
-46.15
-51.45
-56.27
-59.18
-58.52
-52.81
-41.56
-25.73
-7.80
8.93
21.35
27.59
27.61
23.00
16.13
9.16
3.33
-1.24
-5.14
-9.06
-13.38
-18.04
-22.75
-27.18
-31.14
-34.41
-36.73
-37.87
-37.85
-37.17
-36.57
-36.60
-36.85
-35.77
-31.05
-20.72
-4.33
16.29
37.37
54.33
63.37
62.77
53.36
38.06
20.90
5.75
-4.76
-9.74
-10.13
-8.17
-6.56
-7.42
-11.46
-17.68
-23.59
-26.22
-23.13
-13.42
1.91
20.31
38.41
53.06
61.96
64.12
59.77
50.24
37.53
24.05
12.14
3.66
-0.48
-0.47
2.49
6.70
10.45
12.58
12.70
11.10
8.50
5.76
3.60
2.49
2.54
3.51
4.87
5.99
6.40
5.94
4.86
3.58
2.23
0.44
-2.55
-7.37
-13.80
-20.52
-25.55
-27.08
-24.56
-19.16
-13.36
-9.84
-10.27
-14.61
-21.19
-27.55
-31.43
-31.55
-27.74
-20.66
-11.34
-0.87
9.74
19.54
27.61
33.14
35.55
34.69
30.88
24.85
17.47
9.73
2.57
-3.08
-6.39
-6.87
-4.64
-0.52
4.06
7.60
9.10
8.56
6.98
5.94
6.98
10.89
17.48
25.61
33.52
39.24
41.05
37.77
29.06
15.54
-1.20
-18.89
-35.03
-47.50
-55.02
-57.27
-54.79
-48.70
-40.41
-31.50
-23.60
-18.18
-16.29
-18.13
-22.82
-28.54
-33.02
-34.23
-31.00
-23.31
-12.13
0.87
13.70
24.25
30.63
31.49
26.54
16.90
5.00
-5.98
-13.18
-14.96
-11.49
-4.51
3.36
9.53
12.11
10.23
4.05
-5.43
-16.57
-27.30
-35.57
-39.78
-39.29
-34.61
-27.19
-18.92
-11.56
-6.25
-3.38
-2.67
-3.53
-5.26
-7.31
-9.29
-10.99
-12.25
-12.82
-12.24
-9.91
-5.34
1.45
9.58
17.34
22.72
24.12
21.13
14.90
7.94
3.28
3.49
9.71
21.28
35.94
50.59
62.25
68.96
70.17
66.64
59.91
51.66
43.09
34.84
26.96
19.24
11.47
3.63
-3.99
-10.89
-16.42
-19.95
-21.08
-19.66
-15.94
-10.47
-4.12
2.08
7.07
9.96
10.32
8.24
4.40
-0.17
-4.32
-7.06
-7.80
-6.33
-2.86
2.04
7.56
12.78
16.87
19.33
19.97
18.92
16.39
12.61
7.73
2.06
-3.87
-9.28
-13.32
-15.34
-15.17
-13.10
-9.76
-5.86
-1.88
1.98
5.72
9.32
12.59
15.11
16.37
15.90
13.58
9.71
4.97
0.27
-3.54
-5.89
-6.54
-5.62
-3.52
-0.79
1.93
4.00
4.92
4.44
2.73
0.32
-1.99
-3.39
-3.43
-2.20
-0.35
1.11
1.30
-0.16
-2.96
-6.20
-8.83
-10.03
-9.51
-7.47
-4.45
-0.97
2.54
5.77
8.41
10.11
10.58
9.67
7.55
4.66
1.57
-1.19
-3.32
-4.75
-5.56
-5.92
-5.95
-5.82
-5.72
-5.93
-6.76
-8.46
-11.02
-14.10
-17.05
-19.09
-19.55
-18.15
-15.12
-11.17
-7.24
-4.22
-2.68
-2.81
-4.50
-7.47
-11.35
-15.66
-19.78
-22.95
-24.46
-23.91
-21.47
-17.85
-14.05
-11.00
-9.13
-8.27
-7.81
-6.97
-5.19
-2.26
1.63
6.03
10.39
14.13
16.77
17.95
17.50
15.53
12.43
8.80
5.40
2.90
1.86
2.55
4.96
8.75
13.23
17.55
20.81
22.37
22.00
19.91
16.53
12.32
7.57
2.45
-2.83
-7.94
-12.38
-15.72
-17.85
-19.03
-19.80
-20.60
-21.39
-21.69
-20.68
-17.76
-12.95
-7.08
-1.66
1.59
1.39
-2.63
-9.76
-18.38
-26.46
-32.16
-34.25
-32.44
-27.28
-20.00
-12.23
-5.57
-1.18
0.53
-0.03
-1.77
-3.44
-4.19
-3.90
-3.21
-3.11
-4.35
-7.09
-10.81
-14.62
-17.71
-19.64
-20.36
-19.95
-18.35
-15.22
-10.19
-3.16
5.44
14.57
22.94
29.49
33.79
36.16
37.42
38.44
39.70
41.07
41.89
41.24
38.33
32.83
25.05
15.89
6.65
-1.33
-7.05
-10.24
-11.37
-11.51
-11.83
-13.18
-15.67
-18.73
-21.35
-22.47
-21.40
-17.96
-12.53
-5.84
1.27
8.05
14.00
18.91
22.79
25.79
28.02
29.49
30.06
29.54
27.76
24.78
20.80
16.21
11.37
6.60
2.18
-1.61
-4.32
-5.47
-4.68
-1.93
2.24
6.85
10.79
13.22
13.97
13.52
12.71
12.31
12.64
13.50
14.37
14.77
14.50
13.70
12.67
11.62
10.64
9.64
8.53
7.35
6.18
5.15
4.20
3.06
1.37
-1.17
-4.65
-8.86
-13.32
-17.47
-20.66
-22.36
-22.15
-19.90
-15.83
-10.65
-5.45
-1.54
-0.01
-1.31
-5.04
-10.01
-14.57
-17.27
-17.32
-14.92
-11.11
-7.36
-5.00
-4.74
-6.50
-9.52
-12.73
-15.17
-16.24
-15.88
-14.44
-12.54
-10.82
-9.79
-9.66
-10.36
-11.61
-13.03
-14.27
-15.10
-15.40
-15.17
-14.46
-13.37
-12.00
-10.49
-8.99
-7.62
-6.44
-5.29
-3.78
-1.31
2.71
8.54
15.83
23.57
30.30
34.67
36.05
34.79
32.17
29.86
29.22
30.81
34.15
37.96
40.62
40.74
37.50
30.95
22.01
12.21
3.27
-3.28
-6.60
-6.69
-4.31
-0.71
2.84
5.40
6.61
6.66
6.19
5.89
6.22
7.22
8.51
9.47
9.51
8.38
6.17
3.26
0.06
-3.14
-6.27
-9.33
-12.25
-14.82
-16.70
-17.59
-17.36
-16.03
-13.77
-10.82
-7.57
-4.67
-3.09
-3.84
-7.50
-13.70
-20.84
-26.53
-28.51
-25.66
-18.66
-9.84
-2.25
1.50
0.13
-5.94
-15.01
-24.74
-32.91
-37.83
-38.61
-35.10
-27.84
-17.89
-6.69
4.13
13.00
18.59
20.04
17.22
10.87
2.57
-5.55
-11.43
-13.68
-12.03
-7.35
-1.26
4.56
8.88
11.29
12.08
12.00
11.81
11.97
12.45
12.81
12.39
10.65
7.44
3.15
-1.32
-4.96
-6.94
-6.98
-5.36
-2.79
-0.12
1.90
2.83
2.56
1.34
-0.37
-1.96
-2.88
-2.73
-1.40
0.99
4.05
7.33
10.37
12.77
14.21
14.54
13.79
12.25
10.40
8.82
7.96
8.00
8.75
9.75
10.44
10.42
9.54
7.99
6.19
4.56
3.44
2.91
2.81
2.88
2.87
2.60
2.10
1.51
1.00
0.69
0.54
0.40
0.04
-0.68
-1.75
-3.01
-4.22
-5.17
-5.80
-6.17
-6.45
-6.75
-7.10
-7.43
-7.61
-7.56
-7.23
-6.62
-5.69
-4.39
-2.66
-0.54
1.81
4.11
6.05
7.41
8.15
8.40
8.43
8.48
8.71
9.15
9.66
9.99
9.87
9.14
7.82
6.21
4.68
3.62
3.19
3.30
3.62
3.75
3.42
2.57
1.36
0.06
-1.08
-1.94
-2.57
-3.11
-3.74
-4.54
-5.49
-6.42
-7.18
-7.69
-8.01
-8.32
-8.79
-9.47
-10.21
-10.76
-10.81
-10.19
-8.92
-7.20
-5.30
-3.47
-1.81
-0.31
1.09
2.49
3.85
5.06
5.98
6.46
6.48
6.12
5.51
4.78
3.97
3.04
1.91
0.56
-0.95
-2.47
-3.86
-5.04
-6.07
-7.09
-8.31
-9.83
-11.69
-13.79
-15.98
-18.10
-20.02
-21.64
-22.81
-23.39
-23.24
-22.33
-20.75
-18.73
-16.48
-14.08
-11.46
-8.44
-4.88
-0.84
3.39
7.35
10.60
12.88
14.21
14.82
15.03
15.12
15.23
15.36
15.42
15.34
15.08
14.70
14.32
14.07
13.99
14.04
14.11
14.06
13.74
13.16
12.42
11.74
11.31
11.18
11.19
10.92
9.90
7.75
4.42
0.31
-3.87
-7.20
-8.86
-8.37
-5.69
-1.32
3.81
8.51
11.55
12.06
9.69
4.84
-1.51
-8.01
-13.36
-16.60
-17.31
-15.67
-12.25
-7.94
-3.71
-0.50
1.01
0.57
-1.50
-4.31
-6.66
-7.41
-5.88
-2.18
2.91
8.16
12.33
14.61
14.78
13.31
11.02
8.83
7.37
6.81
6.90
7.11
6.97
6.30
5.27
4.31
3.80
3.86
4.23
4.40
3.86
2.32
-0.11
-2.99
-5.72
-7.72
-8.69
-8.66
-8.00
-7.28
-7.02
-7.48
-8.61
-10.03
-11.20
-11.65
-11.16
-9.81
-7.92
-5.91
-4.15
-2.88
-2.15
-1.89
-1.92
-2.00
-1.88
-1.42
-0.62
0.32
1.01
1.10
0.40
-0.92
-2.34
-3.14
-2.72
-0.81
2.37
6.31
10.42
14.31
17.94
21.45
24.93
28.19
30.72
31.80
30.83
27.64
22.52
16.22
9.65
3.62
-1.32
-4.95
-7.33
-8.73
-9.46
-9.80
-9.97
-10.13
-10.41
-10.93
-11.78
-12.87
-13.99
-14.80
-14.91
-14.10
-12.32
-9.76
-6.72
-3.56
-0.59
1.98
4.07
5.76
7.28
8.95
11.11
13.89
17.15
20.46
23.17
24.69
24.60
22.85
19.73
15.76
11.60
7.85
4.92
2.96
1.85
1.26
0.78
-0.02
-1.40
-3.46
-6.05
-8.88
-11.53
-13.63
-14.92
-15.37
-15.11
-14.39
-13.52
-12.76
-12.28
-12.15
-12.32
-12.67
-13.01
-13.16
-13.02
-12.59
-11.98
-11.36
-10.80
-10.29
-9.69
-8.86
-7.74
-6.43
-5.08
-3.87
-2.87
-2.00
-1.12
-0.09
1.11
2.38
3.50
4.27
4.55
4.37
3.88
3.28
2.75
2.33
1.96
1.50
0.85
-0.01
-0.97
-1.82
-2.39
-2.62
-2.59
-2.46
-2.42
-2.58
-2.92
-3.35
-3.73
-4.00
-4.17
-4.31
-4.45
-4.60
-4.71
-4.75
-4.79
-4.97
-5.50
-6.47
-7.84
-9.42
-10.89
-12.02
-12.64
-12.75
-12.41
-11.66
-10.54
-9.04
-7.20
-5.15
-3.10
-1.26
0.26
1.54
2.79
4.19
5.78
7.38
8.67
9.41
9.53
9.20
8.67
8.16
7.78
7.49
7.23
6.97
6.70
6.45
6.17
5.79
5.26
4.62
3.98
3.46
3.12
2.93
2.76
2.48
2.01
1.31
0.39
-0.66
-1.76
-2.78
-3.65
-4.33
-4.85
-5.27
-5.63
-5.95
-6.22
-6.48
-6.78
-7.20
-7.74
-8.35
-8.87
-9.13
-9.09
-8.76
-8.26
-7.64
-6.85
-5.75
-4.27
-2.48
-0.61
1.02
2.22
2.98
3.50
4.03
4.70
5.47
6.19
6.68
6.86
6.81
6.65
6.49
6.36
6.21
6.01
5.78
5.54
5.36
5.21
5.04
4.76
4.29
3.63
2.83
2.02
1.28
0.69
0.26
-0.08
-0.43
-0.92
-1.60
-2.47
-3.46
-4.44
-5.35
-6.13
-6.81
-7.43
-8.01
-8.56
-9.02
-9.36
-9.51
-9.43
-9.05
-8.32
-7.22
-5.83
-4.24
-2.60
-0.98
0.60
2.14
3.66
5.10
6.34
7.25
7.80
8.04
8.11
8.15
8.20
8.16
7.92
7.38
6.55
5.59
4.71
4.12
3.89
3.95
4.12
4.14
3.79
3.00
1.87
0.62
-0.48
-1.27
-1.75
-2.04
-2.38
-2.91
-3.70
-4.66
-5.65
-6.54
-7.28
-7.85
-8.26
-8.50
-8.59
-8.57
-8.52
-8.60
-8.89
-9.41
-10.03
-10.54
-10.73
-10.46
-9.73
-8.69
-7.50
-6.33
-5.22
-4.15
-2.98
-1.61
0.02
1.89
3.81
5.58
7.00
7.96
8.52
8.85
9.16
9.56
10.08
10.58
10.87
10.81
10.38
9.69
8.88
8.05
7.22
6.33
5.34
4.29
3.27
2.41
1.72
1.12
0.49
-0.28
-1.19
-2.15
-3.01
-3.69
-4.20
-4.65
-5.15
-5.76
-6.45
-7.13
-7.72
-8.13
-8.38
-8.44
-8.29
-7.85
-7.03
-5.76
-4.09
-2.13
-0.05
1.97
3.82
5.45
6.82
7.90
8.60
8.88
8.79
8.48
8.19
8.08
8.18
8.36
8.39
8.11
7.49
6.66
5.84
5.20
4.78
4.52
4.28
4.00
3.63
3.22
2.79
2.31
1.72
0.99
0.10
-0.85
-1.77
-2.56
-3.19
-3.67
-4.05
-4.44
-4.94
-5.65
-6.62
-7.82
-9.15
-10.46
-11.58
-12.37
-12.73
-12.64
-12.11
-11.12
-9.71
-7.95
-5.99
-4.01
-2.23
-0.73
0.55
1.74
3.01
4.41
5.85
7.14
8.08
8.59
8.75
8.72
8.65
8.61
8.54
8.36
8.01
7.53
7.05
6.68
6.47
6.34
6.21
5.96
5.57
5.07
4.48
3.81
3.03
2.14
1.17
0.20
-0.62
-1.20
-1.52
-1.72
-1.97
-2.43
-3.11
-3.93
-4.70
-5.25
-5.56
-5.80
-6.25
-7.14
-8.44
-9.85
-10.94
-11.31
-10.80
-9.57
-8.00
-6.54
-5.43
-4.58
-3.62
-2.10
0.32
3.67
7.61
11.36
14.06
15.15
14.70
13.43
12.34
12.37
13.99
17.07
20.64
23.36
24.21
23.01
20.50
17.94
16.72
17.95
22.17
28.56
35.23
39.81
40.27
35.45
25.45
11.95
-1.88
-11.99
-15.47
-11.79
-3.16
5.93
9.95
4.04
-14.33
-43.46
-76.06
-102.14
-114.71
-113.32
-102.50
-88.10
-74.91
-65.93
-64.46
-68.98
-76.69
-83.52
-84.16
-73.23
-47.15
-5.53
47.92
105.77
156.21
186.72
188.55
159.95
106.58
39.69
-26.93
-81.64
-117.59
-132.99
-130.30
-114.30
-90.28
-63.51
-38.47
-17.41
-1.14
11.39
22.93
35.71
49.60
65.69
84.61
104.37
124.24
142.84
157.58
165.04
162.09
147.49
123.20
93.63
60.52
29.31
4.10
-15.20
-31.60
-47.24
-61.18
-70.43
-73.13
-70.11
-63.57
-56.80
-52.29
-50.38
-49.67
-48.42
-45.76
-42.16
-38.83
-36.36
-35.14
-35.07
-35.48
-35.36
-33.98
-31.26
-27.88
-24.89
-23.00
-23.06
-25.69
-30.41
-35.22
-36.91
-32.30
-19.82
-0.72
20.95
40.14
52.21
55.10
50.04
40.47
30.25
22.17
17.55
16.65
19.27
24.86
32.30
39.65
44.20
43.51
36.58
24.38
9.50
-4.80
-15.98
-22.89
-26.00
-26.80
-27.03
-27.68
-29.03
-30.77
-32.32
-33.05
-32.42
-30.18
-26.38
-21.32
-15.03
-7.69
0.27
8.18
15.23
21.02
25.58
29.20
32.09
34.83
37.76
40.97
44.40
48.17
52.42
56.74
60.07
58.13
48.98
34.21
17.82
3.27
-7.57
-14.62
-19.36
-23.22
-27.18
-31.52
-36.85
-43.23
-51.73
-62.58
-73.92
-81.72
-81.22
-69.58
-47.62
-20.41
4.76
21.67
28.32
27.19
23.12
20.30
20.22
22.01
23.99
25.42
27.14
30.94
37.83
46.72
54.64
58.22
55.56
47.12
35.53
24.19
16.00
12.03
11.30
11.54
10.61
7.56
2.75
-2.63
-7.28
-10.39
-12.21
-13.89
-16.88
-21.99
-29.03
-37.01
-44.42
-49.49
-50.30
-45.73
-35.96
-22.83
-9.43
0.42
2.70
-5.65
-25.50
-52.33
-77.53
-92.21
-93.05
-82.96
-67.57
-51.92
-38.99
-29.53
-22.93
-18.81
-17.31
-18.32
-19.87
-18.04
-8.78
9.61
34.90
61.39
82.03
91.72
89.66
79.57
67.37
57.77
52.24
49.38
47.03
43.84
40.12
37.44
36.50
36.96
37.36
35.96
32.00
26.34
20.47
15.96
13.67
13.37
13.95
14.15
13.01
10.50
7.48
4.50
2.45
2.67
6.59
14.94
27.19
41.04
53.14
60.12
58.49
47.13
27.88
4.31
-20.62
-43.28
-61.45
-74.32
-82.24
-87.82
-93.18
-98.97
-104.69
-110.05
-115.01
-119.90
-124.63
-118.46
-96.77
-63.75
-28.79
0.73
21.76
34.68
41.52
45.17
48.54
52.10
55.81
59.17
63.28
68.48
74.37
79.89
83.99
85.89
83.75
76.24
63.09
45.12
23.21
0.27
-20.01
-33.61
-37.59
-32.50
-21.87
-11.07
-5.21
-7.69
-18.77
-35.91
-54.94
-71.82
-84.19
-91.06
-92.20
-87.61
-77.88
-64.26
-49.00
-35.00
-25.29
-22.38
-27.33
-39.20
-55.11
-70.89
-82.07
-85.26
-79.14
-64.84
-45.38
-24.28
-4.18
13.79
29.67
43.83
56.10
65.55
70.90
71.39
67.47
60.61
52.58
44.72
37.87
32.51
29.07
27.85
28.84
31.77
35.91
40.18
43.38
44.99
45.24
44.87
44.26
42.96
39.91
33.69
23.12
8.04
-9.62
-25.86
-34.31
-30.45
-15.39
5.66
26.64
42.94
51.50
50.67
39.43
17.71
-12.45
-46.14
-75.12
-90.88
-88.39
-69.16
-39.99
-9.48
16.30
36.63
53.59
69.36
82.51
90.89
89.01
73.69
46.45
12.24
-18.87
-39.76
-48.57
-48.48
-45.01
-42.75
-42.66
-42.65
-39.78
-32.75
-23.73
-16.71
-15.26
-20.44
-30.34
-40.24
-44.56
-39.44
-24.52
-4.00
15.40
27.39
28.72
20.41
7.44
-4.06
-8.77
-3.63
11.24
33.03
56.73
76.01
84.69
79.13
60.00
32.70
5.52
-14.13
-22.67
-21.54
-15.47
-9.47
-6.09
-4.81
-3.45
-0.41
3.83
7.34
8.21
6.06
2.46
-0.10
0.21
3.72
8.97
13.53
15.26
13.20
7.97
1.36
-4.52
-8.22
-9.54
-8.61
-6.58
-4.86
-4.65
-6.44
-9.88
-13.97
-17.59
-19.90
-20.60
-19.80
-17.92
-15.86
-14.56
-14.63
-16.20
-18.94
-22.12
-24.81
-25.56
-23.06
-16.83
-7.23
4.81
18.05
31.12
42.51
48.12
45.54
36.01
22.46
7.07
-9.61
-28.22
-49.84
-76.28
-106.61
-136.84
-161.76
-177.10
-181.24
-175.73
-164.97
-155.06
-147.71
-147.21
-156.07
-174.16
-199.03
-226.50
-251.69
-270.05
-278.24
-274.54
-259.28
-233.59
-199.42
-159.58
-117.26
-75.33
-35.79
0.52
33.63
63.32
89.08
109.81
123.90
130.25
129.21
122.77
113.88
105.46
99.18
95.50
93.94
93.45
92.99
91.85
89.62
86.34
82.92
81.40
84.92
96.22
115.35
137.96
155.61
158.61
140.38
100.96
47.75
-7.24
-52.07
-79.35
-87.80
-80.80
-63.25
-38.89
-9.57
23.65
58.94
92.99
121.76
142.05
152.89
155.54
152.79
147.33
140.70
133.05
123.83
112.63
99.96
87.20
76.01
67.60
62.04
58.28
54.55
49.10
40.80
29.54
16.10
1.84
-11.70
-23.24
-31.90
-37.38
-39.79
-39.56
-37.21
-33.13
-27.57
-20.56
-12.14
-2.53
7.74
17.86
26.97
34.37
39.74
43.21
45.21
46.33
47.09
47.87
48.83
49.91
50.85
51.33
50.99
49.62
47.18
43.87
40.04
36.07
32.27
28.84
25.85
23.29
20.97
18.63
15.97
12.78
9.12
5.32
1.89
-0.72
-2.34
-3.17
-3.68
-4.45
-5.93
-8.28
-11.37
-14.74
-17.77
-19.76
-20.11
-18.45
-14.80
-9.48
-3.03
3.99
11.12
18.05
24.57
30.47
35.51
39.45
42.17
43.62
43.86
43.02
41.22
38.56
35.16
31.13
26.64
21.80
16.69
11.29
5.55
-0.54
-6.95
-13.54
-20.12
-26.50
-32.45
-37.77
-42.32
-45.97
-48.74
-50.75
-52.25
-53.49
-54.65
-55.73
-56.59
-57.10
-57.13
-56.72
-56.01
-55.17
-54.40
-53.83
-53.56
-53.63
-53.93
-54.22
-54.10
-53.05
-50.63
-46.59
-41.01
-34.27
-26.94
-19.57
-12.54
-6.00
0.14
6.03
11.75
17.24
22.29
26.65
30.12
32.61
34.14
34.82
34.82
34.29
33.39
32.28
31.14
30.10
29.26
28.60
28.04
27.50
26.86
26.07
25.09
23.90
22.48
20.87
19.14
17.38
15.70
14.15
12.74
11.39
10.04
8.66
7.26
5.85
4.39
2.78
0.88
-1.43
-4.14
-7.13
-10.23
-13.33
-16.41
-19.49
-22.52
-25.28
-27.38
-28.32
-27.73
-25.47
-21.78
-17.16
-12.28
-7.67
-3.64
-0.23
2.71
5.34
7.75
9.85
11.45
12.33
12.38
11.65
10.41
9.06
8.05
7.76
8.47
10.25
13.02
16.55
20.44
24.17
27.16
28.84
28.83
27.09
23.99
20.21
16.56
13.65
11.77
10.83
10.59
10.74
11.12
11.58
11.96
12.03
11.49
10.12
7.88
4.95
1.62
-1.91
-5.53
-9.18
-12.78
-16.03
-18.47
-19.65
-19.33
-17.70
-15.22
-12.50
-10.00
-7.87
-5.98
-4.15
-2.29
-0.57
0.71
1.26
1.03
0.18
-0.97
-2.11
-3.08
-3.86
-4.56
-5.31
-6.13
-6.95
-7.63
-7.96
-7.76
-6.91
-5.47
-3.59
-1.57
0.28
1.70
2.60
3.04
3.19
3.26
3.43
3.75
4.18
4.61
4.96
5.19
5.34
5.45
5.52
5.45
5.08
4.22
2.75
0.64
-2.12
-5.47
-9.35
-13.60
-17.93
-21.91
-25.05
-26.97
-27.48
-26.71
-24.95
-22.55
-19.80
-16.84
-13.72
-10.46
-7.07
-3.65
-0.34
2.71
5.34
7.47
9.03
10.03
10.53
10.58
10.25
9.61
8.73
7.76
6.84
6.12
5.69
5.51
5.46
5.31
4.84
3.90
2.50
0.84
-0.81
-2.13
-2.97
-3.35
-3.46
-3.57
-3.89
-4.53
-5.44
-6.52
-7.60
-8.57
-9.37
-10.00
-10.49
-10.92
-11.37
-11.94
-12.69
-13.66
-14.84
-16.15
-17.38
-18.22
-18.33
-17.49
-15.64
-12.94
-9.73
-6.32
-2.93
0.38
3.59
6.68
9.54
11.98
13.83
14.94
15.35
15.17
14.64
13.98
13.39
12.96
12.63
12.28
11.75
10.94
9.91
8.84
7.92
7.24
6.74
6.22
5.50
4.49
3.26
1.98
0.76
-0.38
-1.52
-2.76
-4.13
-5.55
-6.91
-8.10
-9.11
-9.96
-10.67
-11.24
-11.65
-11.97
-12.36
-13.03
-14.13
-15.64
-17.33
-18.83
-19.74
-19.77
-18.84
-17.06
-14.70
-12.06
-9.43
-6.93
-4.56
-2.22
0.19
2.68
5.12
7.28
8.93
9.95
10.39
10.44
10.30
10.07
9.78
9.38
8.84
8.24
7.69
7.33
7.17
7.12
6.94
6.47
5.61
4.43
3.15
2.04
1.29
1.01
1.15
1.51
1.86
1.97
1.69
1.00
0.01
-1.12
-2.21
-3.15
-3.92
-4.57
-5.24
-6.07
-7.17
-8.55
-10.08
-11.54
-12.64
-13.13
-12.85
-11.80
-10.14
-8.14
-6.05
-4.04
-2.18
-0.45
1.20
2.72
4.03
5.03
5.69
6.04
6.18
6.23
6.28
6.35
6.42
6.48
6.49
6.43
6.28
6.03
5.68
5.32
4.99
4.75
4.54
4.22
3.66
2.81
1.73
0.61
-0.40
-1.22
-1.93
-2.68
-3.60
-4.76
-6.07
-7.40
-8.60
-9.59
-10.37
-11.00
-11.60
-12.28
-13.15
-14.28
-15.61
-17.03
-18.32
-19.24
-19.58
-19.20
-18.06
-16.25
-13.91
-11.23
-8.41
-5.57
-2.75
0.04
2.80
5.42
7.71
9.39
10.21
10.09
9.11
7.59
5.93
4.51
3.63
3.42
3.88
4.86
6.19
7.55
8.63
9.09
8.70
7.42
5.43
3.11
0.86
-1.09
-2.73
-4.29
-5.97
-7.81
-9.55
-10.75
-11.04
-10.27
-8.67
-6.72
-4.98
-3.89
-3.65
-4.22
-5.40
-6.88
-8.37
-9.59
-10.34
-10.48
-9.96
-8.79
-7.05
-4.89
-2.49
-0.12
1.98
3.59
4.58
4.98
4.91
4.55
4.13
3.86
3.92
4.46
5.52
7.00
8.68
10.31
11.64
12.58
13.15
13.43
13.48
13.32
12.91
12.20
11.17
9.88
8.40
6.86
5.37
4.04
2.93
2.03
1.26
0.48
-0.45
-1.62
-3.01
-4.58
-6.21
-7.80
-9.26
-10.57
-11.68
-12.60
-13.34
-13.87
-14.18
-14.18
-13.84
-13.10
-11.95
-10.38
-8.36
-5.85
-2.81
0.69
4.39
7.91
10.80
12.71
13.50
13.30
12.42
11.19
9.89
8.63
7.37
6.03
4.53
2.90
1.26
-0.22
-1.35
-1.98
-2.03
-1.50
-0.45
0.97
2.57
4.09
5.29
5.90
5.79
4.89
3.32
1.32
-0.81
-2.75
-4.28
-5.32
-5.88
-6.09
-6.14
-6.20
-6.43
-6.87
-7.43
-7.87
-7.97
-7.60
-6.83
-5.95
-5.31
-5.10
-5.25
-5.40
-5.08
-3.93
-1.92
0.58
2.95
4.58
5.16
4.76
3.74
2.65
2.15
2.83
5.05
8.71
13.25
17.78
21.34
23.16
23.07
21.58
19.66
18.10
17.15
16.43
15.27
13.06
9.60
5.24
1.18
-1.29
-1.59
-0.23
1.68
3.11
3.59
3.26
2.72
3.55
7.03
13.04
19.66
24.28
25.05
21.54
14.80
6.92
1.72
2.38
9.55
20.63
31.60
39.26
42.26
40.92
36.52
32.60
33.18
41.29
58.16
83.73
116.70
153.41
187.36
199.64
175.47
115.74
39.26
-30.94
-81.27
-110.12
-123.36
-128.61
-131.11
-130.68
-124.86
-112.79
-97.38
-83.44
-74.68
-72.14
-74.30
-78.40
-80.20
-76.64
-67.53
-55.74
-45.23
-38.93
-37.80
-40.96
-46.13
-49.27
-46.50
-36.01
-19.27
-0.21
16.67
28.04
33.05
32.71
29.64
26.31
23.73
21.23
17.69
12.77
7.54
3.79
2.78
4.74
8.73
13.33
17.67
21.78
26.44
32.36
39.26
45.76
50.07
51.19
49.61
47.20
46.04
47.09
49.96
53.46
56.73
60.30
65.70
74.22
85.53
97.32
104.99
104.52
94.94
79.02
61.40
45.55
31.66
17.21
-0.25
-20.20
-38.12
-47.99
-46.42
-35.74
-23.95
-21.00
-33.84
-62.92
-102.28
-142.56
-175.56
-197.20
-207.94
-210.79
-208.68
-202.63
-191.87
-175.33
-153.23
-128.10
-103.81
-83.87
-70.00
-61.68
-56.65
-52.17
-46.40
-39.11
-31.78
-26.05
-22.26
-19.23
-14.98
-7.75
3.17
16.96
31.67
44.44
53.15
57.49
58.44
57.21
54.62
51.12
46.55
40.73
32.96
23.32
13.24
4.76
-0.88
-3.58
-3.96
-3.11
4.23
19.92
40.08
58.72
72.60
81.14
84.44
82.54
75.05
60.87
39.40
11.73
-18.06
-43.84
-59.51
-61.03
-43.22
-6.22
44.09
96.26
136.91
157.32
156.78
141.28
119.50
98.02
77.56
53.93
21.62
-21.60
-69.04
-106.92
-122.09
-109.88
-77.01
-38.94
-12.31
-7.89
-28.42
-66.55
-109.33
-145.15
-167.99
-176.84
-173.10
-157.88
-121.59
-66.86
-7.84
40.96
73.59
91.11
96.97
94.58
87.09
77.69
68.05
60.66
58.10
60.59
64.75
65.33
58.24
42.75
21.85
-0.47
-19.05
-29.81
-31.39
-25.70
-16.63
-7.76
-1.09
3.09
4.76
4.79
4.52
4.84
5.65
6.19
5.96
5.01
3.86
2.71
1.94
1.92
2.76
4.14
5.04
4.88
3.45
0.72
-3.56
-9.63
-17.40
-26.24
-34.92
-41.84
-45.47
-45.10
-41.16
-35.04
-28.49
-22.94
-19.08
-16.98
-16.43
-17.17
-18.93
-21.32
-23.64
-25.01
-24.56
-21.83
-16.81
-9.98
-2.04
6.21
14.02
20.69
25.67
28.61
29.44
28.41
25.94
22.55
18.71
14.77
10.99
7.57
4.63
2.26
0.40
-1.07
-2.31
-3.43
-4.37
-4.92
-4.85
-4.03
-2.56
-0.73
1.05
2.50
3.49
4.06
4.33
4.32
4.01
3.31
2.23
0.85
-0.67
-2.24
-3.82
-5.39
-6.85
-7.94
-8.32
-7.66
-5.85
-3.06
0.39
4.09
7.69
11.02
14.14
17.16
20.12
22.84
25.01
26.37
26.80
26.33
25.17
23.66
22.18
20.96
20.08
19.45
19.06
18.73
18.09
16.83
14.95
12.74
10.69
9.20
8.41
8.68
9.76
10.78
10.79
9.49
7.39
5.49
4.74
5.57
8.83
14.01
19.25
22.51
23.05
21.76
20.42
20.54
22.79
28.51
37.25
46.67
54.02
58.06
59.36
59.68
61.37
67.20
82.25
109.06
145.36
184.33
217.33
236.60
237.31
218.95
171.19
98.04
17.18
-51.36
-98.40
-126.20
-141.16
-148.26
-149.84
-146.85
-138.12
-124.63
-110.04
-98.60
-92.32
-90.33
-90.19
-89.54
-87.01
-80.79
-71.15
-60.55
-52.11
-47.43
-46.08
-46.41
-46.69
-45.81
-42.37
-36.41
-29.52
-23.83
-20.63
-19.86
-20.55
-21.50
-21.78
-20.44
-17.48
-13.80
-10.69
-8.92
-8.46
-8.82
-9.60
-10.74
-12.17
-13.59
-14.25
-12.92
-8.39
-0.32
10.15
20.98
29.66
34.44
34.99
32.29
27.99
23.55
19.77
16.80
14.54
12.80
11.46
10.24
8.57
5.62
0.63
-6.56
-15.24
-23.43
-28.45
-27.64
-19.75
-5.88
10.49
24.70
32.79
33.23
27.51
19.09
11.54
6.70
4.24
2.39
-0.55
-4.95
-9.77
-13.15
-13.61
-10.70
-5.00
2.36
10.29
18.08
25.34
31.70
36.77
40.03
40.93
39.15
34.76
28.32
21.18
15.22
12.04
12.28
15.40
19.83
23.63
25.33
24.44
21.38
17.11
12.57
8.44
5.03
2.38
0.25
-1.70
-3.76
-6.11
-8.77
-11.54
-14.06
-15.93
-16.96
-17.39
-17.60
-17.88
-18.35
-19.06
-20.03
-21.25
-22.73
-24.37
-26.29
-28.24
-29.56
-29.74
-28.93
-27.86
-27.48
-28.51
-31.16
-35.74
-41.47
-46.47
-48.86
-47.76
-43.51
-37.26
-30.49
-24.55
-21.41
-21.39
-22.94
-24.04
-23.75
-22.39
-20.88
-20.28
-21.48
-26.53
-35.82
-47.54
-59.11
-68.44
-74.03
-74.60
-69.01
-46.93
-8.29
35.69
72.18
95.33
105.26
104.56
96.49
84.24
69.92
53.18
33.58
11.44
-13.40
-41.22
-71.79
-103.33
-132.47
-155.48
-170.11
-174.86
-169.17
-154.18
-133.01
-110.17
-90.35
-76.02
-72.02
-82.43
-107.56
-142.82
-180.26
-211.54
-230.90
-236.94
-232.28
-221.79
-209.39
-195.99
-179.77
-158.13
-130.07
-97.05
-62.29
-29.19
-0.21
24.25
45.16
63.89
81.45
98.21
114.25
130.05
146.59
165.12
186.90
212.24
239.87
266.86
289.41
304.15
309.35
305.49
294.65
279.49
261.76
241.58
217.93
189.86
157.73
123.56
90.35
60.56
35.21
13.53
-6.24
-25.71
-45.51
-65.11
-83.36
-99.21
-112.36
-123.32
-133.23
-143.22
-153.63
-163.42
-170.02
-169.71
-158.75
-134.79
-98.02
-51.35
0.34
51.67
98.12
136.84
166.59
187.29
199.46
204.00
202.20
195.59
185.77
173.92
160.57
145.54
128.28
108.44
86.42
63.57
42.00
23.98
11.17
4.02
1.59
1.88
2.60
1.95
-0.86
-5.56
-11.17
-16.54
-20.76
-23.29
-23.86
-22.39
-19.06
-14.36
-9.14
-4.45
-1.13
0.47
0.68
0.34
0.42
1.57
3.83
6.61
8.97
10.03
9.42
7.53
5.44
4.52
5.86
9.82
15.72
22.16
27.51
30.54
30.85
28.77
25.12
20.71
16.09
11.57
7.35
3.61
0.55
-1.76
-3.55
-5.36
-7.80
-11.23
-15.59
-20.44
-25.13
-29.15
-32.28
-34.59
-36.21
-37.25
-37.72
-37.61
-37.01
-36.12
-35.18
-34.36
-33.63
-32.80
-31.66
-30.05
-27.98
-25.55
-23.02
-20.71
-19.05
-18.51
-19.42
-21.90
-25.67
-30.07
-34.26
-37.46
-39.18
-39.28
-37.99
-35.65
-32.64
-29.19
-25.51
-21.77
-18.19
-14.96
-12.24
-10.07
-8.37
-6.97
-5.75
-4.70
-3.91
-3.44
-3.15
-2.61
-1.31
1.17
4.79
9.07
13.27
16.74
19.20
20.74
21.58
21.89
21.60
20.49
18.42
15.56
12.37
9.43
7.17
5.73
4.95
4.56
4.31
4.04
3.68
3.15
2.29
0.97
-0.83
-2.89
-4.72
-5.74
-5.45
-3.66
-0.54
3.44
7.70
11.75
15.28
18.17
20.41
22.01
22.97
23.29
22.95
22.00
20.50
18.60
16.49
14.37
12.45
10.82
9.52
8.43
7.47
6.53
5.59
4.63
3.62
2.52
1.28
-0.08
-1.51
-2.92
-4.22
-5.43
-6.61
-7.84
-9.10
-10.34
-11.40
-12.14
-12.49
-12.43
-12.01
-11.34
-10.57
-9.89
-9.48
-9.49
-9.90
-10.55
-11.16
-11.37
-10.89
-9.51
-7.15
-3.87
0.15
4.58
9.06
13.19
16.66
19.30
21.06
22.01
22.24
21.87
21.01
19.82
18.46
17.10
15.78
14.47
13.03
11.38
9.55
7.68
5.98
4.60
3.55
2.72
1.96
1.17
0.38
-0.28
-0.66
-0.76
-0.71
-0.81
-1.29
-2.25
-3.55
-4.91
-6.07
-6.89
-7.44
-7.91
-8.53
-9.40
-10.54
-11.83
-13.14
-14.32
-15.21
-15.62
-15.33
-14.17
-12.07
-9.11
-5.51
-1.57
2.42
6.20
9.57
12.36
14.43
15.79
16.48
16.67
16.58
16.39
16.22
16.06
15.84
15.47
14.94
14.37
13.94
13.82
14.08
14.58
15.11
15.43
15.40
15.04
14.47
13.89
13.48
13.45
14.00
15.25
17.11
19.14
20.49
20.17
17.44
12.17
4.96
-3.12
-11.01
-18.05
-24.10
-29.35
-33.99
-37.96
-40.89
-42.34
-41.99
-39.87
-36.40
-32.28
-28.19
-24.62
-21.69
-19.10
-16.37
-13.08
-9.11
-4.75
-0.52
3.08
5.83
7.92
9.72
11.60
13.78
16.21
18.71
21.05
23.11
24.80
26.04
26.67
26.42
24.99
22.23
18.23
13.42
8.41
3.80
-0.12
-3.41
-6.43
-9.62
-13.21
-17.14
-21.06
-24.51
-27.11
-28.64
-29.17
-28.95
-28.36
-27.75
-27.36
-27.24
-27.31
-27.43
-27.49
-27.41
-27.12
-26.46
-25.24
-23.33
-20.77
-17.80
-14.78
-12.05
-9.80
-8.00
-6.48
-5.05
-3.60
-2.10
-0.65
0.57
1.38
1.57
1.03
-0.25
-2.17
-4.47
-6.86
-9.00
-10.62
-11.54
-11.64
-10.91
-9.42
-7.33
-4.91
-2.48
-0.41
0.98
1.49
1.12
0.04
-1.47
-3.13
-4.71
-6.10
-7.24
-8.10
-8.66
-8.92
-8.99
-8.98
-9.00
-9.03
-8.88
-8.18
-6.61
-3.99
-0.40
3.85
8.38
12.94
17.47
22.07
26.89
31.94
37.06
41.91
46.07
49.18
51.03
51.59
51.03
49.72
48.14
46.84
46.26
46.54
47.35
47.83
46.73
42.74
34.93
23.09
7.96
-9.02
-26.02
-41.33
-53.72
-62.58
-67.82
-69.76
-68.92
-66.06
-62.09
-58.03
-54.80
-53.03
-52.83
-53.74
-54.80
-54.84
-52.77
-47.86
-39.87
-29.13
-16.32
-2.38
11.73
25.14
37.16
47.30
55.29
61.05
64.68
66.36
66.27
64.65
61.75
57.96
53.76
49.69
46.17
43.21
40.37
36.79
31.50
23.82
13.73
1.89
-10.45
-21.88
-31.22
-37.82
-41.59
-42.88
-42.30
-40.58
-38.50
-36.75
-35.79
-35.62
-35.72
-35.31
-33.69
-30.69
-26.85
-23.20
-20.74
-19.90
-20.31
-21.05
-21.11
-19.90
-17.42
-14.12
-10.56
-7.04
-3.61
-0.14
3.39
6.75
9.56
11.40
12.05
11.62
10.47
9.08
7.87
7.05
6.57
6.25
5.89
5.42
4.91
4.53
4.48
4.78
5.32
5.88
6.19
6.11
5.62
4.85
3.94
3.03
2.17
1.35
0.54
-0.30
-1.21
-2.22
-3.35
-4.59
-5.93
-7.33
-8.69
-9.92
-10.84
-11.30
-11.17
-10.40
-9.08
-7.36
-5.41
-3.36
-1.31
0.73
2.73
4.60
6.23
7.50
8.40
9.03
9.55
10.11
10.78
11.51
12.15
12.55
12.64
12.43
12.04
11.57
11.11
10.68
10.20
9.59
8.77
7.73
6.55
5.37
4.30
3.38
2.57
1.75
0.81
-0.25
-1.32
-2.25
-2.86
-3.14
-3.21
-3.32
-3.70
-4.47
-5.70
-7.36
-9.44
-11.88
-14.58
-17.27
-19.54
-20.98
-21.31
-20.51
-18.82
-16.58
-14.12
-11.62
-9.12
-6.60
-4.02
-1.41
1.18
3.65
5.89
7.79
9.31
10.49
11.45
12.34
13.28
14.23
15.04
15.55
15.66
15.48
15.19
14.94
14.75
14.45
13.76
12.48
10.64
8.45
6.28
4.43
3.03
1.98
1.04
-0.04
-1.41
-3.06
-4.85
-6.64
-8.29
-9.82
-11.22
-12.53
-13.72
-14.66
-15.26
-15.46
-15.33
-14.99
-14.57
-14.06
-13.35
-12.24
-10.57
-8.34
-5.70
-2.89
-0.16
2.39
4.75
7.00
9.19
11.27
13.12
14.52
15.35
15.56
15.27
14.69
13.99
13.25
12.43
11.40
10.09
8.59
7.07
5.76
4.76
4.00
3.31
2.52
1.59
0.65
-0.08
-0.45
-0.46
-0.31
-0.23
-0.40
-0.88
-1.55
-2.24
-2.82
-3.22
-3.51
-3.75
-3.98
-4.19
-4.28
-4.22
-4.03
-3.84
-3.81
-4.08
-4.67
-5.50
-6.39
-7.18
-7.78
-8.17
-8.38
-8.48
-8.55
-8.61
-8.62
-8.49
-8.08
-7.31
-6.19
-4.87
-3.58
-2.55
-1.90
-1.64
-1.68
-1.89
-2.16
-2.40
-2.50
-2.32
-1.78
-0.89
0.19
1.20
1.93
2.31
2.44
2.51
2.70
3.09
3.59
4.05
4.30
4.33
4.20
4.12
4.25
4.67
5.34
6.09
6.71
6.96
6.72
5.97
4.87
3.66
2.58
1.79
1.24
0.74
-0.01
-1.25
-2.98
-4.90
-6.50
-7.24
-6.79
-5.22
-2.95
-0.62
1.21
2.20
2.32
1.78
1.11
1.09
2.69
6.76
13.60
22.59
32.04
39.68
43.48
42.48
37.23
29.49
21.45
14.82
10.34
7.83
6.65
6.27
6.48
7.33
8.87
10.95
13.15
15.02
16.24
16.73
16.66
16.33
16.09
16.21
16.93
18.46
21.17
25.52
32.01
40.87
51.77
63.65
74.88
83.67
88.73
89.69
87.22
82.78
78.09
74.49
72.58
72.03
71.67
69.89
65.09
56.29
43.28
26.53
6.81
-15.29
-39.41
-65.02
-90.84
-114.61
-133.60
-145.65
-150.13
-148.11
-141.89
-134.11
-126.93
-121.50
-118.06
-116.12
-114.66
-112.13
-106.47
-95.65
-78.68
-56.53
-31.96
-8.69
10.01
22.44
29.11
32.35
35.20
39.79
46.30
53.22
57.93
57.85
51.07
36.93
16.44
-6.64
-26.58
-38.97
-42.95
-41.12
-36.79
-32.47
-28.91
-25.48
-21.09
-15.14
-9.11
-2.21
6.89
19.49
35.05
50.42
60.69
61.40
50.81
30.98
7.08
-15.82
-33.16
-44.29
-51.60
-57.52
-61.65
-60.89
-52.23
-36.27
-18.77
-7.93
-9.70
-23.25
-40.60
-50.78
-46.38
-28.01
-3.49
17.04
27.38
28.27
26.07
27.87
36.69
49.76
60.87
64.86
60.91
52.92
46.52
45.57
49.87
55.74
58.60
55.65
47.17
35.78
24.59
15.43
8.46
2.53
-3.71
-10.78
-17.93
-23.61
-26.25
-25.14
-21.18
-16.57
-14.56
-18.36
-29.67
-47.63
-68.78
-88.29
-101.89
-107.59
-105.82
-99.98
-95.33
-96.71
-106.66
-124.76
-148.33
-173.65
-196.99
-213.87
-221.45
-219.11
-207.46
-187.31
-159.09
-123.29
-80.86
-33.26
19.72
76.62
132.83
181.80
217.46
236.35
238.93
230.28
219.47
219.72
239.59
277.65
323.27
361.90
381.22
375.39
346.36
284.60
196.24
100.77
18.48
-42.09
-83.77
-112.63
-133.29
-148.64
-160.80
-169.32
-172.63
-170.05
-160.58
-142.13
-113.23
-75.14
-32.59
3.31
26.26
35.30
33.11
24.34
13.96
5.77
1.68
1.87
5.35
12.33
22.62
32.30
36.74
33.03
21.52
5.85
-8.79
-18.46
-21.66
-21.35
-23.78
-34.15
-52.83
-74.28
-89.31
-87.34
-61.95
-13.72
48.93
112.53
163.69
193.30
198.39
180.98
145.36
95.28
33.36
-37.85
-113.80
-186.44
-244.93
-278.64
-281.09
-252.81
-201.81
-140.41
-80.75
-30.93
6.39
32.67
50.61
61.78
66.09
62.76
52.11
36.63
20.49
8.04
2.08
3.00
8.85
16.52
23.02
26.43
26.42
23.92
20.48
17.52
15.78
15.17
14.99
14.45
13.06
10.92
8.63
6.91
6.25
6.68
7.74
8.79
9.32
9.15
8.46
7.54
6.70
6.00
5.32
4.41
3.10
1.37
-0.61
-2.53
-4.08
-5.11
-5.63
-5.83
-5.93
-6.09
-6.37
-6.72
-7.03
-7.22
-7.22
-6.99
-6.45
-5.53
-4.15
-2.29
0.01
2.65
5.55
8.62
11.76
14.81
17.57
19.78
21.22
21.74
21.31
20.00
18.02
15.57
12.85
10.01
7.16
4.37
1.69
-0.80
-3.05
-4.98
-6.56
-7.83
-8.83
-9.63
-10.27
-10.78
-11.21
-11.60
-11.99
-12.37
-12.70
-12.92
-13.00
-13.05
-13.27
-13.87
-15.01
-16.64
-18.50
-20.23
-21.47
-22.03
-21.94
-21.37
-20.56
-19.67
-18.77
-17.88
-17.09
-16.49
-16.18
-16.12
-16.01
-15.37
-13.69
-10.69
-6.45
-1.37
3.99
9.19
13.99
18.36
22.31
25.72
28.35
29.85
29.92
28.43
25.44
21.30
16.50
11.69
7.53
4.46
2.66
1.97
1.97
2.21
2.31
2.11
1.59
0.83
-0.12
-1.29
-2.75
-4.57
-6.79
-9.36
-12.16
-15.02
-17.79
-20.37
-22.70
-24.81
-26.72
-28.36
-29.59
-30.24
-30.12
-29.15
-27.40
-25.01
-22.17
-19.02
-15.59
-11.83
-7.65
-3.07
1.74
6.44
10.63
13.98
16.37
17.92
18.89
19.63
20.36
21.23
22.19
23.15
24.06
24.87
25.62
26.35
27.05
27.60
27.80
27.40
26.20
24.15
21.38
18.16
14.82
11.63
8.69
5.96
3.31
0.62
-2.12
-4.78
-7.18
-9.14
-10.59
-11.61
-12.36
-13.03
-13.73
-14.49
-15.27
-16.11
-17.04
-18.14
-19.35
-20.48
-21.25
-21.37
-20.73
-19.45
-17.73
-15.76
-13.52
-10.86
-7.54
-3.52
1.03
5.70
9.98
13.49
15.98
17.49
18.18
18.33
18.15
17.81
17.37
16.79
16.05
15.11
13.99
12.75
11.45
10.17
9.00
8.01
7.26
6.70
6.24
5.66
4.78
3.47
1.77
-0.15
-2.03
-3.65
-4.87
-5.66
-6.10
-6.33
-6.56
-6.98
-7.70
-8.76
-10.10
-11.57
-12.95
-14.09
-14.86
-15.28
-15.37
-15.21
-14.83
-14.23
-13.36
-12.12
-10.49
-8.48
-6.21
-3.82
-1.48
0.72
2.77
4.69
6.49
8.11
9.38
10.13
10.24
9.78
9.00
8.24
7.83
7.85
8.24
8.73
9.09
9.15
8.91
8.46
7.93
7.41
6.94
6.47
5.94
5.27
4.42
3.36
2.12
0.75
-0.67
-2.09
-3.47
-4.81
-6.14
-7.45
-8.74
-9.99
-11.11
-12.02
-12.60
-12.73
-12.39
-11.59
-10.42
-9.00
-7.41
-5.63
-3.60
-1.22
1.48
4.36
7.15
9.53
11.24
12.18
12.41
12.11
11.54
10.91
10.40
10.04
9.83
9.68
9.53
9.35
9.17
9.06
9.01
8.97
8.78
8.29
7.41
6.23
4.93
3.72
2.72
1.88
1.03
-0.02
-1.36
-2.91
-4.49
-5.92
-7.08
-8.01
-8.81
-9.56
-10.32
-11.09
-11.85
-12.54
-13.13
-13.51
-13.51
-12.94
-11.67
-9.70
-7.23
-4.59
-2.14
-0.16
1.25
2.14
2.70
3.17
3.77
4.67
5.91
7.40
8.97
10.38
11.40
11.85
11.66
10.88
9.63
8.08
6.43
4.86
3.47
2.31
1.31
0.40
-0.50
-1.40
-2.24
-2.93
-3.38
-3.56
-3.49
-3.30
-3.07
-2.87
-2.67
-2.42
-2.03
-1.45
-0.76
-0.11
0.28
0.23
-0.35
-1.42
-2.85
-4.40
-5.85
-6.98
-7.67
-7.85
-7.54
-6.80
-5.77
-4.58
-3.36
-2.16
-1.00
0.14
1.28
2.43
3.48
4.32
4.80
4.82
4.45
3.85
3.32
3.05
3.11
3.34
3.51
3.42
3.01
2.46
2.00
1.87
2.10
2.59
3.14
3.56
3.77
3.77
3.60
3.31
2.91
2.39
1.75
1.01
0.24
-0.47
-1.09
-1.60
-2.07
-2.57
-3.16
-3.87
-4.68
-5.58
-6.52
-7.51
-8.50
-9.41
-10.08
-10.30
-9.90
-8.80
-7.03
-4.73
-2.10
0.62
3.19
5.44
7.24
8.62
9.67
10.46
11.09
11.52
11.66
11.45
10.85
9.93
8.79
7.57
6.32
5.09
3.92
2.86
1.95
1.21
0.56
-0.14
-1.01
-2.10
-3.31
-4.40
-5.10
-5.21
-4.71
-3.82
-2.85
-2.13
-1.83
-1.98
-2.48
-3.22
-4.14
-5.27
-6.59
-8.04
-9.41
-10.45
-10.97
-10.88
-10.24
-9.21
-7.95
-6.55
-5.10
-3.63
-2.14
-0.59
1.13
3.12
5.43
7.94
10.34
12.22
13.23
13.25
12.47
11.26
10.04
9.09
8.50
8.19
8.08
8.09
8.21
8.46
8.79
9.12
9.32
9.30
9.02
8.49
7.73
6.76
5.61
4.35
3.07
1.91
0.96
0.26
-0.20
-0.45
-0.50
-0.39
-0.13
0.26
0.68
1.06
1.32
1.45
1.53
1.64
1.82
2.09
2.43
2.85
3.40
4.15
5.17
6.47
7.99
9.62
11.22
12.65
13.79
14.54
14.90
14.86
14.49
13.86
13.07
12.22
11.38
10.55
9.67
8.63
7.31
5.71
4.02
2.54
1.57
1.22
1.38
1.70
1.75
1.25
0.13
-1.38
-2.92
-4.07
-4.57
-4.38
-3.75
-3.15
-3.04
-3.68
-4.88
-6.04
-6.39
-5.40
-3.12
-0.27
2.04
2.82
1.77
-0.45
-2.39
-2.34
0.85
7.20
15.46
23.47
28.99
30.66
28.60
24.28
20.15
18.61
20.92
26.26
31.14
29.74
15.46
-16.38
-65.81
-126.32
-185.74
-229.40
-244.95
-226.44
-176.60
-106.12
-30.50
34.01
75.30
88.36
76.22
48.19
16.23
-9.45
-23.85
-27.51
-26.06
-25.26
-28.38
-34.88
-41.17
-42.51
-34.99
-16.89
11.59
45.22
77.02
98.86
104.08
90.36
61.33
25.83
-5.29
-21.57
-20.46
-3.04
26.15
61.76
99.58
136.63
169.99
195.79
211.55
211.99
197.53
173.29
147.84
129.95
124.95
132.57
135.20
140.47
139.57
129.94
113.09
92.73
72.40
53.79
36.68
19.91
4.59
-11.26
-26.71
-40.74
-52.98
-63.89
-74.71
-86.62
-100.12
-112.93
-124.57
-132.18
-133.26
-126.67
-113.37
-96.48
-80.18
-68.18
-61.43
-60.27
-61.92
-62.62
-59.11
-49.87
-35.96
-20.26
-6.28
3.74
8.44
8.98
8.20
9.62
16.07
27.58
41.50
53.18
57.90
52.04
34.60
7.61
-24.20
-54.34
-77.40
-89.78
-90.88
-83.50
-73.56
-68.74
-75.38
-95.15
-123.40
-152.17
-172.76
-180.01
-174.51
-162.48
-153.07
-153.96
-168.06
-183.02
-186.29
-171.06
-141.58
-108.24
-78.28
-51.45
-22.00
15.90
63.04
111.93
150.98
170.56
168.26
149.65
124.40
101.22
84.29
73.24
64.56
55.83
47.35
41.29
39.64
42.01
45.94
48.89
50.77
53.34
58.95
67.53
76.35
80.31
75.22
61.18
43.11
28.52
23.13
28.16
40.06
52.99
61.56
62.88
56.90
45.01
28.77
9.06
-13.59
-38.28
-62.85
-84.51
-101.66
-112.58
-117.13
-116.24
-111.13
-102.62
-90.88
-75.65
-57.35
-37.62
-18.55
-1.88
11.88
23.10
32.12
38.59
42.10
42.70
41.24
39.91
41.35
47.30
57.56
70.34
83.94
98.51
115.12
133.52
150.83
161.35
158.84
139.38
103.70
55.44
3.66
-37.71
-57.92
-55.22
-37.03
-14.28
4.17
14.23
16.53
15.51
15.51
22.65
42.23
76.67
124.13
177.81
227.53
263.17
278.50
272.34
243.94
198.01
142.00
83.46
27.31
-23.61
-67.48
-102.47
-127.47
-142.83
-150.36
-153.72
-157.70
-168.45
-190.21
-223.48
-264.33
-305.42
-337.58
-351.60
-341.45
-306.44
-254.40
-196.84
-144.95
-106.70
-86.02
-82.94
-94.06
-114.22
-137.50
-161.38
-183.10
-199.21
-206.68
-205.03
-196.65
-185.56
-176.35
-152.81
-109.03
-51.91
3.59
46.92
76.70
97.45
114.54
130.89
146.58
156.58
156.75
145.87
125.88
100.20
72.61
48.51
33.30
31.43
42.33
62.61
86.83
109.91
124.30
126.91
120.06
109.22
99.82
92.95
87.06
79.56
69.24
57.00
45.69
38.35
36.46
39.58
45.33
51.66
58.14
64.94
72.31
79.28
82.77
78.68
64.14
38.02
6.09
-24.45
-47.99
-62.53
-69.26
-70.59
-67.69
-59.56
-44.35
-21.60
5.49
30.95
48.86
56.00
53.14
44.20
34.26
27.24
24.53
24.81
24.53
20.66
11.80
-1.12
-15.00
-25.64
-29.52
-25.42
-15.32
-3.27
6.70
12.12
12.70
9.90
5.74
1.81
-0.63
-0.39
4.08
14.13
28.91
44.22
53.60
51.45
36.83
15.42
-2.01
-4.19
14.74
51.31
93.24
124.91
134.15
116.88
77.51
25.56
-29.34
-79.13
-115.61
-133.54
-131.70
-113.36
-86.13
-60.28
-45.61
-47.47
-64.46
-89.28
-112.62
-127.01
-129.24
-120.11
-102.36
-78.59
-50.69
-20.79
7.14
27.13
33.61
25.06
5.99
-14.30
-26.05
-24.07
-10.57
6.00
15.58
12.25
-2.39
-19.98
-29.53
-22.38
4.35
47.07
97.68
146.53
185.45
209.67
218.25
213.52
199.60
180.78
160.16
139.17
117.98
96.50
74.99
54.22
34.80
16.50
-1.67
-20.76
-40.85
-60.49
-77.13
-88.22
-92.57
-91.23
-87.39
-85.05
-87.27
-94.71
-105.18
-114.82
-120.16
-120.01
-115.99
-111.41
-108.91
-108.43
-106.65
-98.39
-79.35
-48.60
-9.51
31.31
66.60
91.12
103.09
103.94
96.86
84.96
70.16
53.30
35.00
16.44
-0.34
-13.21
-20.98
-23.97
-23.76
-22.35
-21.24
-20.95
-21.21
-21.72
-23.15
-27.35
-36.77
-53.07
-75.61
-100.92
-123.49
-137.70
-139.92
-129.72
-109.67
-84.04
-57.35
-33.54
-15.63
-5.42
-2.59
-4.02
-4.15
2.67
18.83
41.19
62.32
74.68
75.19
67.26
58.53
55.91
61.28
70.59
77.04
75.80
67.08
55.56
46.99
44.46
46.96
50.73
52.05
49.60
44.84
40.72
39.76
42.57
47.67
52.20
53.37
49.72
41.82
31.84
22.37
15.16
10.32
6.44
1.59
-5.62
-15.39
-26.74
-38.29
-48.93
-58.41
-67.24
-76.32
-86.46
-97.93
-110.42
-123.15
-135.27
-146.02
-154.81
-160.94
-163.36
-160.76
-152.01
-136.87
-116.45
-93.07
-69.56
-48.33
-30.83
-17.64
-8.93
-4.90
-5.66
-10.45
-16.92
-21.12
-18.46
-5.67
17.60
48.17
80.44
108.54
128.46
139.10
141.82
138.88
132.04
121.92
108.52
92.14
74.09
56.55
41.73
30.94
24.13
20.19
17.73
15.73
13.89
12.39
11.55
11.42
11.73
11.98
11.68
10.47
8.20
4.97
1.04
-3.10
-6.91
-9.90
-11.85
-12.92
-13.55
-14.30
-15.53
-17.24
-19.08
-20.51
-21.00
-20.33
-18.69
-16.75
-15.42
-15.58
-17.48
-20.43
-22.80
-22.46
-17.44
-6.67
9.72
30.54
53.95
77.95
100.57
120.08
135.08
144.89
149.83
151.38
151.83
153.37
157.29
163.49
170.61
176.93
181.83
185.94
191.02
199.16
211.76
228.93
249.41
270.78
289.90
303.75
309.65
305.91
292.23
269.62
239.99
205.18
166.12
122.06
72.03
15.02
-48.22
-114.50
-178.47
-234.05
-276.29
-302.99
-316.19
-319.27
-318.19
-318.67
-324.56
-336.65
-352.60
-367.86
-377.27
-378.56
-367.87
-345.43
-313.10
-273.76
-230.89
-188.54
-151.40
-124.21
-113.14
-115.35
-126.61
-139.35
-145.20
-138.29
-117.73
-88.13
-57.77
-39.56
-36.82
-52.95
-87.60
-137.87
-199.54
-267.77
-336.96
-376.84
-407.64
-418.64
-405.82
-369.39
-314.12
-247.94
-179.41
-115.19
-58.70
-14.04
23.85
56.47
84.95
110.10
133.02
155.55
180.19
209.43
241.85
279.74
319.88
356.76
384.14
397.25
394.75
379.51
357.57
333.81
314.65
301.12
290.96
280.54
267.23
251.02
234.18
219.47
207.08
195.86
181.07
157.13
119.82
67.74
2.41
-72.72
-153.15
-233.87
-308.18
-368.84
-408.66
-422.87
-411.20
-378.37
-332.57
-282.50
-234.60
-191.65
-153.32
-117.69
-82.97
-48.38
-13.85
20.62
55.16
89.74
123.66
155.24
182.63
203.83
217.54
223.62
223.02
217.15
206.97
192.82
174.87
155.03
135.74
119.25
106.97
99.18
94.97
92.69
90.76
88.46
88.27
91.98
99.20
107.62
114.86
119.66
122.34
124.46
128.08
138.32
157.31
182.89
210.05
234.07
252.05
262.90
266.67
263.96
259.97
257.58
255.87
251.72
243.00
229.55
212.68
194.21
148.05
67.43
-33.32
-129.50
-204.73
-255.95
-288.28
-308.15
-320.04
-326.93
-325.10
-311.90
-288.49
-258.84
-226.65
-195.40
-167.08
-141.79
-118.49
-93.72
-66.34
-37.68
-9.76
16.62
39.46
56.59
66.29
67.05
59.62
44.57
22.57
-4.85
-35.26
-69.50
-109.50
-156.30
-209.48
-265.96
-320.95
-367.74
-398.88
-391.67
-336.27
-244.64
-142.96
-53.62
14.10
60.11
86.35
93.08
79.97
48.29
3.62
-39.99
-65.18
-60.13
-23.62
34.99
99.78
154.83
181.35
168.72
122.73
61.93
6.98
-27.01
-33.98
-16.51
16.13
53.24
84.70
102.88
102.80
82.26
44.15
-3.58
-50.42
-85.52
-99.52
-88.69
-55.72
-7.20
42.19
78.53
96.68
100.40
96.31
88.61
77.89
63.64
45.90
26.10
7.65
-6.17
-14.13
-18.22
-21.26
-25.35
-30.97
-36.98
-41.52
-42.07
-37.05
-27.07
-14.58
-2.62
6.45
12.02
14.73
16.35
19.70
27.03
38.73
53.15
67.14
77.33
80.69
75.70
61.41
40.17
17.14
-1.85
-12.95
-15.97
-13.49
-9.87
-8.65
-11.06
-15.44
-18.69
-19.64
-17.31
-13.51
-11.47
-15.09
-26.47
-45.49
-69.89
-96.33
-121.11
-140.77
-153.57
-153.06
-137.48
-109.59
-76.62
-47.85
-30.77
-27.42
-33.73
-42.40
-46.25
-42.37
-32.02
-19.10
-7.26
2.25
11.17
21.91
34.77
47.62
56.30
57.12
48.19
30.56
8.81
-9.14
-15.20
-5.10
19.59
51.16
78.82
93.11
90.26
71.00
44.87
27.17
26.72
37.71
44.65
35.41
9.64
-22.09
-45.44
-50.88
-39.43
-21.81
-11.11
-15.72
-35.97
-63.98
-90.17
-107.31
-111.96
-104.19
-87.11
-65.30
-44.02
-27.70
-18.29
-14.81
-12.57
-4.64
15.81
50.89
98.69
148.60
184.86
195.46
177.68
139.31
93.07
51.54
23.40
11.43
11.83
17.32
20.94
18.29
11.56
3.52
-3.05
-6.16
-6.09
-5.84
-7.03
-7.12
-0.31
20.52
57.08
103.85
150.06
183.29
193.44
173.39
128.22
65.25
2.01
-43.87
-63.20
-55.58
-26.01
11.92
52.94
94.55
133.26
164.93
185.08
186.34
168.80
137.94
95.71
45.33
-8.38
-60.30
-106.12
-144.09
-174.48
-198.37
-219.00
-247.29
-290.06
-345.54
-405.61
-460.59
-502.47
-525.46
-525.72
-465.79
-343.08
-194.09
-63.91
26.93
82.62
116.51
140.06
159.16
174.13
176.86
164.14
141.73
120.23
107.74
106.68
114.65
126.79
137.75
139.07
127.75
108.27
88.93
76.18
72.64
77.92
89.75
104.49
114.60
113.88
100.49
75.87
43.71
9.16
-21.70
-43.75
-54.73
-57.42
-56.58
-56.60
-59.83
-67.06
-77.42
-88.33
-95.89
-95.80
-85.35
-61.86
-29.70
4.35
33.23
52.15
59.88
58.22
50.23
39.39
27.09
14.95
6.13
4.07
11.01
26.22
45.33
61.68
69.01
63.58
45.47
18.63
-11.52
-39.75
-62.57
-78.69
-88.73
-94.08
-96.76
-99.12
-100.65
-101.63
-101.93
-100.98
-97.91
-91.86
-81.43
-66.47
-48.72
-31.13
-16.77
-7.07
-1.36
2.58
7.47
16.76
30.68
45.24
54.16
52.10
37.51
12.78
-17.26
-47.19
-69.59
-80.12
-78.73
-67.97
-50.22
-26.30
3.64
39.03
79.07
127.24
185.60
251.95
319.86
380.82
426.40
449.94
447.98
398.12
298.88
173.80
56.45
-32.41
-91.09
-127.83
-150.85
-164.85
-171.16
-166.28
-149.46
-125.78
-100.75
-77.88
-57.60
-38.50
-20.14
-3.76
11.14
23.90
32.04
34.42
32.62
27.17
20.87
15.39
10.85
7.97
5.88
1.13
-10.88
-30.55
-53.80
-74.41
-88.06
-93.41
-91.25
-85.25
-83.74
-89.66
-101.91
-115.68
-123.86
-120.14
-101.24
-68.06
-20.23
30.63
71.03
93.66
100.09
96.64
88.42
76.86
61.12
41.24
19.37
1.35
-7.73
-7.55
-3.16
-1.67
-7.53
-19.42
-31.56
-37.68
-33.61
-20.24
-2.79
12.74
23.71
32.20
42.61
57.69
75.15
88.20
88.67
71.76
38.13
-4.18
-42.59
-65.80
-68.52
-53.60
-31.05
-13.88
-12.41
-29.96
-61.75
-96.69
-122.45
-128.95
-111.24
-71.94
-20.38
30.56
69.37
89.18
89.27
72.50
42.76
8.90
-19.23
-36.68
-44.63
-44.53
-39.08
-24.61
-0.51
29.80
61.04
87.78
106.63
115.11
113.57
103.64
87.05
63.01
31.20
-6.07
-45.18
-82.59
-117.54
-149.82
-178.80
-202.00
-218.47
-226.47
-224.22
-212.95
-187.15
-151.05
-115.35
-89.92
-76.09
-71.94
-72.76
-73.08
-69.14
-58.15
-39.44
-14.31
17.25
54.80
91.69
122.58
146.82
166.40
184.73
204.33
227.49
242.20
257.02
270.56
272.77
260.22
232.94
194.10
148.43
101.00
53.81
6.96
-45.92
-106.85
-169.24
-221.87
-253.21
-256.46
-232.19
-189.21
-131.04
-73.77
-33.36
-13.23
-5.56
0.06
9.67
26.35
46.03
64.60
76.18
78.49
73.30
63.00
44.76
13.72
-26.65
-68.28
-103.80
-132.47
-154.74
-167.35
-167.73
-150.10
-111.54
-53.94
14.56
83.15
141.86
179.63
190.73
173.96
132.06
71.86
4.31
-58.57
-105.65
-129.23
-126.12
-97.26
-47.91
14.28
81.73
148.74
209.43
257.40
286.31
291.59
272.64
232.29
175.79
110.30
43.99
-16.31
-64.61
-95.89
-107.13
-97.59
-68.84
-30.47
3.66
25.42
34.51
35.18
31.06
23.50
13.82
3.34
-6.43
-14.09
-19.75
-26.80
-39.31
-59.03
-84.38
-109.51
-128.32
-137.32
-136.69
-124.73
-108.89
-96.84
-91.29
-91.54
-87.97
-71.94
-38.96
9.84
68.08
125.07
170.94
199.64
204.13
183.83
142.97
89.50
32.83
-18.45
-59.23
-87.35
-103.91
-112.70
-117.48
-121.99
-128.68
-138.21
-149.73
-162.10
-173.93
-184.23
-192.50
-197.29
-196.96
-189.62
-173.74
-148.88
-116.26
-78.33
-38.38
0.12
34.94
64.99
90.74
113.84
136.40
159.78
183.76
206.09
222.92
230.46
226.12
209.62
183.04
150.07
114.78
80.70
50.35
25.13
5.23
-10.67
-25.21
-41.43
-61.36
-84.48
-107.03
-122.82
-125.17
-109.40
-74.36
-22.87
38.93
102.65
158.82
198.48
215.29
207.58
179.37
139.13
96.82
60.31
33.09
14.24
0.60
-10.57
-19.97
-26.96
-31.32
-34.65
-40.00
-48.82
-59.93
-70.41
-78.21
-83.20
-86.62
-89.55
-91.64
-91.04
-85.63
-75.32
-62.52
-51.09
-43.88
-41.24
-41.36
-41.75
-41.04
-39.39
-38.79
-39.44
-40.01
-37.96
-31.32
-20.27
-7.59
2.52
6.59
3.00
-7.04
-19.87
-30.55
-34.89
-30.53
-17.44
2.36
26.12
50.47
71.01
83.56
85.52
76.53
58.97
37.18
13.49
-8.14
-25.26
-38.22
-48.85
-58.42
-67.54
-77.03
-87.29
-98.49
-109.61
-118.98
-124.96
-126.90
-123.70
-116.97
-108.91
-100.28
-89.74
-74.33
-52.05
-23.01
10.69
46.11
80.28
110.99
136.59
155.53
166.56
169.08
163.54
151.49
134.97
115.45
93.98
71.59
49.80
30.77
16.86
9.29
7.55
9.61
12.84
15.35
16.55
16.98
17.64
19.79
23.77
28.92
33.97
37.80
39.92
40.47
39.95
38.97
38.99
40.93
44.70
49.29
53.50
56.46
57.96
58.58
59.53
63.26
71.07
81.96
92.90
100.53
102.65
99.16
91.96
75.58
48.51
14.39
-20.06
-49.74
-72.92
-90.29
-103.53
-114.53
-124.56
-132.62
-134.91
-126.12
-103.59
-66.64
-19.81
28.08
66.97
89.70
94.47
85.86
71.25
56.14
41.59
24.76
1.69
-30.51
-70.71
-116.03
-161.09
-199.98
-227.68
-240.97
-238.09
-218.44
-183.41
-128.67
-63.65
-4.16
38.40
62.73
72.93
73.52
67.87
59.12
51.24
47.34
51.79
64.79
81.92
93.70
89.87
63.99
16.23
-46.86
-116.03
-180.83
-233.38
-264.96
-272.25
-256.72
-223.15
-178.10
-128.54
-81.30
-40.56
-7.74
18.01
37.50
51.58
61.38
68.32
74.00
79.18
84.07
87.93
89.54
87.12
80.02
69.36
57.58
47.69
42.34
43.93
54.13
73.10
97.77
121.61
136.02
133.56
111.87
75.73
35.97
4.84
-9.39
-6.22
7.76
22.93
31.69
31.61
25.25
17.34
11.49
8.46
6.56
3.47
-1.83
-8.37
-14.00
-16.92
-16.81
-15.12
-14.40
-16.81
-23.02
-31.71
-40.11
-45.13
-44.68
-38.39
-27.63
-14.90
-2.78
6.80
13.13
16.56
18.09
18.81
19.44
20.08
20.42
20.06
18.93
17.44
16.32
16.24
17.50
19.82
22.41
24.37
25.06
24.41
22.73
20.48
17.82
14.61
10.33
4.30
-3.96
-14.33
-25.89
-37.05
-46.05
-51.57
-53.07
-51.07
-46.95
-42.39
-38.59
-35.79
-33.32
-30.18
-25.75
-19.72
-12.44
-4.96
1.37
5.66
7.97
9.18
10.48
12.58
16.69
23.52
32.59
41.88
48.67
50.64
46.97
39.11
30.47
27.64
36.95
60.82
95.61
132.79
162.22
175.32
167.45
138.16
94.33
47.30
9.47
-9.50
-4.35
25.08
73.93
133.78
182.34
200.18
181.54
137.84
86.62
40.15
3.44
-22.52
-35.76
-41.92
-45.39
-50.33
-60.86
-80.31
-109.75
-147.41
-189.00
-225.97
-250.97
-259.30
-251.94
-234.69
-214.70
-197.14
-183.11
-172.01
-157.60
-135.95
-105.15
-66.49
-24.75
14.74
49.65
79.98
109.59
142.04
174.63
199.71
209.03
198.12
170.18
134.79
103.38
83.48
73.94
65.37
44.26
6.00
-43.55
-91.94
-128.20
-149.64
-156.53
-149.96
-132.04
-104.90
-66.99
-20.76
28.67
70.21
94.73
101.84
97.88
89.98
82.16
75.08
66.11
52.19
33.50
10.29
-14.73
-38.32
-58.33
-74.16
-86.05
-95.44
-103.65
-111.39
-116.23
-115.88
-109.38
-97.75
-83.35
-68.47
-55.02
-43.65
-34.10
-25.43
-16.67
-7.67
0.79
7.64
12.28
14.69
15.60
15.98
16.74
18.36
20.66
22.90
24.26
24.29
23.10
21.36
20.00
19.85
21.35
24.52
28.94
34.00
39.13
43.89
48.02
51.38
53.84
55.27
55.54
54.59
52.44
49.23
45.15
40.42
35.26
29.86
24.33
18.74
13.12
7.44
1.64
-4.28
-10.26
-16.09
-21.45
-25.97
-29.33
-31.33
-31.97
-31.39
-29.85
-27.65
-25.03
-22.12
-18.97
-15.54
-11.84
-7.98
-4.13
-0.51
2.70
5.42
7.61
9.31
10.56
11.43
12.00
12.40
12.74
13.06
13.30
13.27
12.75
11.63
9.97
8.00
6.11
4.64
3.85
3.78
4.34
5.29
6.35
7.25
7.81
7.92
7.48
6.48
4.96
3.05
1.01
-0.82
-2.08
-2.58
-2.35
-1.66
-0.96
-0.63
-0.85
-1.55
-2.39
-2.99
-3.07
-2.51
-1.41
0.04
1.66
3.30
4.85
6.17
7.09
7.39
7.01
6.05
4.77
3.54
2.58
1.95
1.50
1.04
0.43
-0.29
-0.96
-1.43
-1.69
-1.87
-2.10
-2.39
-2.63
-2.64
-2.32
-1.83
-1.51
-1.72
-2.65
-4.11
-5.62
-6.55
-6.47
-5.32
-3.47
-1.58
-0.33
-0.12
-0.91
-2.21
-3.23
-3.15
-1.38
2.17
6.99
11.85
14.99
14.54
9.13
-1.43
-15.77
-31.20
-44.60
-53.52
-57.06
-56.05
-52.31
-47.57
-42.59
-36.98
-29.76
-20.27
-8.82
3.40
14.91
24.87
33.50
41.90
51.40
62.75
75.75
89.34
102.14
112.95
121.13
126.57
129.50
130.30
129.27
126.55
122.00
115.23
105.56
92.52
76.35
58.34
40.84
26.85
19.32
20.27
30.05
46.78
66.67
84.70
95.74
95.76
82.91
58.07
24.68
-12.19
-47.34
-76.28
-95.84
-104.64
-103.15
-93.45
-78.76
-62.59
-48.09
-38.01
-33.39
-33.47
-36.41
-40.38
-44.20
-47.20
-48.57
-47.37
-43.98
-38.83
-32.56
-26.78
-24.64
-30.49
-48.26
-79.79
-124.64
-181.54
-245.29
-306.72
-354.72
-380.02
-378.26
-351.03
-304.87
-250.48
-202.09
-170.03
-157.34
-160.09
-171.02
-183.47
-193.22
-198.53
-181.43
-135.71
-69.14
1.90
64.79
115.21
153.27
177.75
193.77
204.50
209.37
208.74
204.82
200.92
199.05
198.34
197.19
195.32
191.03
181.08
164.92
145.13
125.87
110.32
97.82
86.97
78.41
71.25
63.60
54.62
43.31
27.13
2.23
-36.37
-88.55
-145.63
-196.94
-232.19
-244.01
-231.39
-200.10
-148.61
-86.28
-33.35
12.35
58.82
108.33
156.89
195.14
212.32
202.25
163.84
103.63
34.79
-31.62
-86.44
-122.78
-136.80
-128.09
-98.63
-54.69
-3.87
48.18
89.61
112.81
120.24
125.26
133.08
143.75
154.56
159.42
156.66
145.42
126.73
102.43
69.70
30.09
-10.11
-44.58
-69.76
-84.15
-88.95
-86.03
-77.85
-67.62
-58.68
-53.06
-51.26
-51.95
-51.84
-48.39
-40.60
-29.97
-18.19
-7.12
2.17
9.29
14.02
16.23
15.55
12.17
7.28
3.23
2.34
5.23
10.00
12.84
10.16
0.51
-14.98
-33.56
-51.03
-61.68
-61.43
-50.19
-31.54
-10.16
10.63
29.04
43.95
54.64
60.45
60.81
55.96
48.28
39.36
31.21
25.07
20.52
15.88
9.18
-0.64
-12.70
-24.21
-31.82
-33.09
-26.38
-13.31
2.48
16.93
26.83
30.52
27.80
19.37
6.77
-7.81
-21.79
-32.17
-36.40
-33.50
-24.59
-12.59
-1.30
5.77
6.17
-1.16
-15.51
-34.56
-55.12
-73.98
-88.62
-97.78
-101.36
-100.07
-94.95
-86.83
-76.23
-63.69
-50.09
-36.67
-24.67
-14.84
-7.10
-0.74
5.00
10.47
15.29
18.63
19.82
18.80
16.27
13.31
10.84
9.24
8.27
7.36
5.95
3.76
0.74
-3.00
-7.33
-12.05
-16.92
-21.65
-25.88
-29.24
-31.22
-31.12
-28.05
-21.24
-10.55
3.17
17.97
31.33
40.96
45.58
45.01
39.90
31.21
20.02
7.71
-3.84
-12.41
-16.16
-14.54
-8.64
-0.65
7.18
13.68
19.08
24.43
30.43
36.44
40.46
40.17
34.42
24.15
12.36
2.82
-1.28
1.44
10.14
22.20
34.64
45.33
53.50
59.57
64.19
67.91
70.85
72.63
72.52
70.19
66.28
62.24
59.95
60.71
65.56
75.03
88.57
104.02
118.67
130.18
137.16
139.44
137.31
132.42
127.21
123.18
119.29
112.82
100.54
79.36
47.02
1.99
-53.90
-114.63
-171.40
-215.60
-240.13
-241.02
-219.08
-175.51
-121.28
-73.03
-42.56
-27.66
-21.30
-18.47
-16.65
-16.69
-18.77
-23.30
-28.93
-32.92
-33.04
-29.77
-25.24
-21.75
-20.84
-22.63
-26.42
-29.79
-29.74
-24.81
-16.75
-8.89
-4.07
-3.55
-6.59
-11.21
-14.08
-12.00
-3.80
8.66
21.89
32.57
38.52
39.12
35.74
31.94
31.95
38.68
52.12
69.72
87.43
100.89
106.08
97.43
73.35
38.84
3.58
-24.24
-41.72
-50.59
-54.77
-60.82
-70.95
-84.38
-98.59
-110.49
-117.23
-116.77
-108.62
-90.21
-63.84
-34.19
-6.29
16.64
34.16
48.07
60.77
73.24
83.80
88.01
82.04
64.91
39.50
11.33
-13.87
-32.45
-43.73
-49.18
-51.02
-49.77
-44.36
-33.73
-18.67
-2.48
10.62
18.11
21.13
23.74
30.91
45.29
65.39
86.08
101.25
106.76
102.16
90.21
74.80
59.16
44.65
30.99
17.31
3.15
-11.17
-24.76
-36.76
-46.86
-55.37
-62.89
-69.74
-75.58
-79.41
-79.96
-76.45
-69.01
-58.89
-47.99
-38.26
-31.02
-26.67
-24.77
-24.50
-25.04
-25.96
-27.13
-28.68
-30.63
-32.83
-34.90
-36.36
-36.79
-36.02
-34.12
-31.41
-28.30
-25.12
-21.96
-18.71
-15.17
-11.30
-7.39
-4.03
-1.79
-0.89
-0.92
-0.94
0.12
2.92
7.42
12.88
18.26
22.66
25.68
27.35
27.98
27.87
27.24
26.17
24.74
23.00
20.90
18.34
15.19
11.50
7.57
3.92
1.03
-0.91
-2.12
-3.06
-4.13
-5.43
-6.69
-7.58
-7.94
-8.00
-8.21
-8.95
-10.21
-11.58
-12.51
-12.65
-12.14
-11.52
-11.40
-12.15
-13.64
-15.39
-16.85
-17.69
-17.99
-18.03
-18.10
-18.23
-18.08
-17.15
-14.99
-11.49
-6.94
-1.94
2.82
6.79
9.75
11.83
13.31
14.46
15.37
16.01
16.29
16.23
15.99
15.85
16.06
16.65
17.36
17.74
17.40
16.31
14.83
13.34
12.18
11.41
10.87
10.36
9.88
9.73
10.36
12.04
14.16
15.79
16.01
14.34
11.10
7.42
4.98
5.66
11.01
20.76
33.33
45.83
54.53
55.75
47.02
27.47
-1.32
-35.22
-69.17
-97.40
-115.43
-121.81
-118.85
-111.62
-106.46
-107.87
-110.77
-108.50
-94.80
-67.38
-28.80
14.24
53.01
77.69
81.31
65.40
36.23
4.50
-17.82
-21.13
-1.93
36.88
85.73
132.87
165.31
172.25
148.54
95.83
22.96
-58.43
-124.75
-155.34
-146.12
-109.61
-64.24
-23.60
7.03
30.86
51.56
69.75
81.76
83.06
72.34
53.23
33.12
17.01
9.15
9.89
16.54
23.78
26.87
24.72
20.34
18.63
23.26
34.99
50.59
64.89
72.33
69.56
57.21
39.71
23.16
12.93
12.21
20.71
35.10
49.46
56.65
50.08
25.56
-17.39
-74.58
-137.09
-193.20
-231.31
-243.56
-228.30
-190.30
-138.70
-83.97
-34.64
4.72
33.35
52.81
65.20
72.03
74.23
73.03
70.08
67.29
66.21
67.39
69.96
71.87
70.82
65.53
56.85
46.74
37.54
31.10
28.50
29.62
32.93
35.92
36.25
33.29
26.73
17.08
5.68
-4.90
-12.00
-14.37
-12.43
-6.99
2.98
17.45
35.49
54.77
72.34
84.41
86.23
74.00
45.50
7.71
-28.63
-53.94
-65.44
-65.62
-62.32
-60.84
-65.04
-77.45
-97.32
-126.57
-163.61
-205.25
-243.67
-259.66
-239.41
-182.74
-113.34
-41.06
27.80
89.07
135.18
160.37
162.06
140.73
101.40
53.92
12.34
-14.15
-22.83
-17.36
-4.08
10.51
20.70
23.58
19.63
13.21
7.31
3.63
2.61
4.40
8.58
13.50
17.29
18.87
19.24
19.03
18.83
18.86
19.14
19.21
18.03
14.87
9.98
4.76
0.47
-2.03
-2.65
-2.19
-1.99
-3.37
-6.77
-11.56
-16.46
-19.83
-19.59
-13.54
-0.42
19.12
42.09
63.55
77.56
78.68
64.77
38.47
6.33
-24.23
-48.07
-63.43
-71.51
-71.39
-63.82
-51.71
-38.35
-24.95
-12.31
-2.81
0.50
-4.34
-16.81
-34.52
-53.62
-69.87
-79.69
-80.39
-71.19
-52.89
-27.70
1.14
29.54
53.97
69.53
75.97
77.02
76.14
73.40
64.14
41.56
1.23
-53.32
-113.71
-166.06
-197.04
-199.72
-175.23
-132.32
-82.71
-36.39
1.64
31.30
56.19
79.89
99.95
114.00
120.67
120.98
118.10
116.02
116.89
120.37
123.23
121.01
110.93
93.10
70.65
48.28
30.18
18.25
12.09
9.42
7.37
4.26
-0.14
-4.81
-8.16
-8.99
-7.14
-3.36
0.86
3.84
4.62
2.90
-0.96
-6.12
-11.64
-16.78
-20.98
-23.89
-25.30
-25.07
-23.37
-20.83
-18.33
-16.72
-16.51
-17.60
-19.45
-21.32
-22.61
-23.08
-22.83
-22.05
-20.83
-19.14
-16.86
-13.95
-10.49
-6.72
-2.93
0.66
3.90
6.73
9.15
11.17
12.76
13.91
14.62
14.99
15.17
15.34
15.63
16.05
16.50
16.77
16.72
16.30
15.58
14.65
13.55
12.26
10.69
8.83
6.74
4.58
2.54
0.74
-0.83
-2.24
-3.61
-5.01
-6.42
-7.79
-9.04
-10.16
-11.23
-12.35
-13.56
-14.77
-15.78
-16.31
-16.08
-14.94
-12.89
-10.09
-6.81
-3.36
-0.02
2.99
5.54
7.56
9.03
9.95
10.36
10.30
9.90
9.27
8.55
7.78
6.98
6.09
5.07
4.00
3.04
2.43
2.31
2.72
3.47
4.24
4.63
4.36
3.36
1.88
0.41
-0.42
-0.14
1.31
3.43
5.26
5.87
4.77
2.26
-0.66
-2.79
-3.37
-2.53
-1.22
-0.71
-1.68
-3.76
-5.42
-4.63
0.16
9.11
20.77
32.62
42.12
47.84
49.96
49.85
49.12
48.91
49.86
52.56
57.97
66.99
79.27
92.13
100.88
100.84
90.07
71.09
50.26
34.67
28.40
30.36
35.15
36.40
30.48
18.41
4.80
-5.24
-9.29
-8.90
-8.60
-13.39
-26.33
-47.33
-73.63
-101.10
-125.89
-145.54
-159.63
-169.36
-176.59
-182.77
-188.05
-191.03
-189.46
-181.34
-166.14
-145.22
-121.47
-98.26
-78.24
-62.64
-51.29
-43.19
-37.16
-32.21
-27.69
-23.16
-18.24
-12.77
-7.16
-2.76
-1.57
-5.32
-13.94
-24.23
-29.85
-22.96
2.53
47.39
105.34
164.21
210.24
233.48
231.89
212.17
186.56
167.36
161.88
170.16
186.35
203.00
215.40
223.76
231.86
243.31
258.02
271.10
274.94
263.12
233.71
190.22
139.67
88.81
41.03
-4.43
-50.82
-100.84
-154.27
-207.30
-254.01
-288.90
-309.29
-316.33
-313.75
-305.48
-293.61
-277.82
-256.78
-230.89
-203.80
-182.45
-174.96
-186.76
-217.76
-261.63
-307.85
-345.18
-365.36
-364.36
-342.66
-304.55
-256.33
-204.57
-154.79
-110.47
-72.33
-38.82
-6.50
27.88
65.19
103.61
139.47
168.51
187.22
195.96
193.60
181.35
163.17
143.22
124.45
108.53
96.07
86.61
78.73
70.34
58.85
44.50
28.28
12.21
-0.87
-8.55
-9.93
-6.15
-0.23
4.63
6.00
2.83
-4.81
-15.01
-24.75
-30.97
-31.54
-26.05
-15.48
-1.85
12.11
24.10
33.24
40.26
47.16
56.47
69.99
88.01
108.72
128.35
142.57
148.27
144.70
133.80
119.42
105.81
96.22
91.94
92.06
94.08
95.18
93.15
87.30
78.77
70.24
64.84
64.67
69.69
77.73
85.57
90.53
91.55
89.07
83.97
76.36
65.26
49.27
27.81
1.97
-25.70
-52.18
-75.26
-94.03
-108.56
-118.95
-124.68
-124.59
-117.66
-103.89
-84.79
-63.17
-42.28
-24.70
-11.69
-2.98
2.75
7.10
11.41
16.39
22.28
29.03
36.49
44.39
52.24
59.32
64.85
68.21
69.17
67.87
64.63
59.68
53.08
44.84
35.13
24.38
13.30
2.58
-7.26
-15.97
-23.41
-29.54
-34.23
-37.37
-38.93
-39.00
-37.81
-35.64
-32.78
-29.49
-26.05
-22.71
-19.67
-16.97
-14.42
-11.68
-8.33
-4.04
1.45
8.26
16.43
26.01
37.01
49.32
62.62
76.31
89.60
101.63
111.72
119.52
124.94
128.03
128.66
126.57
121.36
112.74
100.84
86.37
70.52
54.61
39.82
27.00
16.70
9.35
5.38
4.97
7.60
11.90
15.62
16.10
11.10
-0.76
-19.86
-46.01
-78.64
-116.53
-157.09
-195.75
-226.41
-243.04
-241.96
-223.29
-190.88
-150.64
-108.45
-68.05
-30.62
4.29
37.24
67.53
92.73
109.26
113.55
103.21
78.28
41.34
-2.89
-49.10
-93.21
-133.45
-170.61
-207.42
-247.48
-293.12
-344.08
-396.78
-444.77
-480.11
-495.53
-486.84
-454.57
-404.76
-345.53
-284.36
-225.52
-169.72
-115.07
-59.33
-2.11
54.04
102.27
136.97
155.84
161.31
159.39
157.92
164.43
184.32
219.78
265.08
311.86
349.54
368.26
361.03
326.26
269.17
201.22
138.36
91.71
70.29
76.64
107.17
152.56
196.62
215.59
195.09
155.55
110.09
64.89
16.97
-35.32
-93.02
-155.24
-211.91
-264.35
-304.02
-328.70
-322.54
-280.25
-213.68
-145.67
-93.65
-61.59
-43.71
-29.73
-16.40
-0.94
12.82
20.78
22.53
22.55
28.04
44.66
76.28
121.06
172.93
224.39
268.40
300.60
320.64
331.73
337.78
342.97
329.89
293.11
238.87
179.20
123.43
75.90
39.01
13.71
0.23
-3.84
0.03
7.45
11.97
7.75
-8.22
-33.44
-64.26
-95.55
-122.72
-140.55
-147.20
-144.27
-131.28
-112.84
-92.51
-72.44
-53.62
-36.94
-21.95
-8.80
1.89
9.84
14.76
18.04
21.15
24.98
28.72
32.45
35.60
37.50
37.93
36.07
32.71
28.94
25.71
23.34
21.90
20.58
18.04
12.98
3.56
-9.67
-24.14
-36.04
-41.73
-39.21
-29.28
-15.72
2.39
20.49
33.60
37.82
31.39
15.29
-6.68
-28.74
-44.58
-49.32
-42.44
-26.78
-8.10
6.83
12.58
6.79
-9.28
-31.61
-54.96
-75.59
-91.14
-101.13
-106.57
-109.07
-110.07
-110.46
-110.40
-109.35
-106.60
-100.67
-89.85
-73.21
-51.56
-27.79
-6.36
8.29
13.38
8.51
-4.27
-21.85
-41.41
-60.81
-78.15
-90.99
-96.35
-91.64
-76.43
-53.35
-27.87
-6.50
5.61
6.66
-1.34
-13.78
-25.37
-32.25
-33.23
-29.83
-25.40
-23.66
-27.22
-36.73
-50.65
-65.85
-78.72
-86.50
-88.28
-85.39
-80.88
-78.18
-79.48
-84.65
-91.00
-94.40
-91.01
-78.92
-59.17
-35.47
-13.14
2.62
8.23
2.72
-12.05
-31.72
-50.49
-62.67
-64.47
-55.18
-37.18
-14.58
8.90
31.30
52.86
74.98
98.41
122.76
146.66
168.84
189.16
209.27
232.20
261.23
298.47
343.41
392.70
440.50
479.45
502.49
505.05
486.90
452.35
408.43
361.61
315.95
272.46
229.77
185.80
139.52
91.36
42.39
-6.49
-55.56
-102.71
-141.96
-165.53
-168.03
-149.79
-117.61
-82.33
-54.50
-43.12
-49.47
-67.75
-90.63
-115.34
-144.07
-180.24
-223.43
-267.01
-304.33
-326.39
-325.84
-302.90
-268.11
-237.02
-222.47
-229.37
-255.05
-298.82
-356.57
-420.26
-480.66
-530.79
-564.93
-578.48
-569.11
-500.15
-369.30
-211.47
-70.41
32.91
99.64
140.15
163.53
177.96
188.19
192.70
194.48
202.72
227.00
264.71
306.88
341.62
359.19
354.30
323.18
270.78
210.90
159.74
126.88
116.06
125.22
147.51
171.70
182.60
170.19
134.69
85.33
33.47
-7.05
-24.55
-13.53
21.67
64.16
89.87
82.27
54.69
21.45
-6.24
-24.96
-32.14
-28.69
-18.55
-3.48
18.50
45.94
70.23
84.23
85.56
76.03
59.35
39.85
23.97
18.18
25.97
40.14
50.46
47.36
25.45
-15.71
-73.31
-139.85
-206.12
-259.43
-292.39
-301.51
-287.12
-253.04
-195.33
-124.32
-57.47
-7.68
23.56
40.50
48.85
52.28
52.36
49.73
43.93
37.28
34.30
39.55
54.00
74.74
96.52
113.11
118.61
108.15
82.15
44.21
5.77
-23.22
-38.19
-40.49
-35.32
-28.32
-23.69
-21.77
-20.43
-17.20
-12.45
-8.37
-6.93
-8.56
-12.09
-15.99
-18.48
-18.60
-16.32
-13.20
-11.12
-11.06
-12.87
-15.45
-17.66
-18.67
-18.26
-16.75
-15.26
-15.07
-16.85
-20.20
-23.68
-25.04
-22.13
-13.89
-0.88
14.45
28.74
39.16
44.59
45.86
45.15
44.57
45.01
45.97
45.99
43.89
39.51
33.98
28.39
23.61
19.63
15.73
10.99
5.07
-1.55
-7.79
-12.46
-14.94
-15.19
-13.87
-11.88
-10.00
-8.64
-7.83
-7.46
-7.40
-7.71
-8.41
-9.44
-10.66
-11.78
-12.55
-12.92
-13.01
-13.06
-13.33
-13.78
-14.29
-14.74
-15.21
-15.95
-17.02
-18.32
-19.50
-20.26
-20.50
-20.46
-20.49
-20.83
-21.21
-20.92
-19.28
-15.68
-10.84
-5.77
-1.25
2.64
5.94
8.68
10.60
11.13
9.91
7.12
3.72
1.09
0.44
1.81
4.40
7.24
9.50
11.11
12.89
15.56
20.11
27.63
38.44
52.26
67.83
82.49
92.57
94.33
85.39
64.43
36.23
6.52
-19.46
-38.46
-49.69
-54.06
-53.13
-48.23
-40.22
-29.72
-18.15
-7.21
1.65
7.67
10.97
12.21
12.33
11.95
11.45
10.62
9.19
6.95
3.88
0.16
-3.85
-7.55
-10.34
-11.70
-11.66
-10.66
-9.45
-8.68
-8.65
-9.18
-9.60
-9.27
-7.84
-5.56
-3.09
-1.12
-0.05
0.22
0.14
0.27
0.96
2.02
2.94
3.13
2.22
0.24
-2.48
-5.56
-8.88
-11.87
-14.40
-16.54
-18.27
-19.51
-20.16
-20.26
-20.03
-19.84
-20.02
-20.83
-22.26
-24.06
-25.85
-27.12
-27.33
-26.05
-23.10
-18.71
-13.52
-8.32
-3.69
0.25
3.79
7.34
11.17
15.12
18.82
21.80
23.90
25.28
26.20
26.82
27.02
26.56
25.31
23.47
21.49
19.87
18.91
18.56
18.51
18.42
18.14
17.73
17.32
16.93
16.44
15.67
14.59
13.36
12.27
11.52
10.99
10.29
8.86
6.38
2.86
-1.23
-5.20
-8.43
-10.55
-11.56
-11.78
-11.66
-11.66
-12.12
-13.12
-14.53
-16.04
-17.30
-18.03
-18.20
-17.97
-17.70
-17.80
-18.57
-19.96
-21.56
-22.66
-22.45
-20.36
-16.28
-10.69
-4.52
1.13
5.41
7.94
8.94
9.03
8.94
9.15
9.73
10.42
10.94
11.28
11.82
13.18
15.89
20.03
25.14
30.36
34.75
37.63
38.70
38.10
36.23
33.67
31.01
28.73
27.07
26.04
25.45
25.17
25.21
25.73
26.80
28.23
29.56
30.22
29.93
28.95
27.88
27.42
27.87
28.99
30.25
31.17
31.71
32.23
33.27
35.19
38.04
41.59
45.53
49.58
53.47
56.84
59.28
60.43
60.26
59.17
57.79
56.62
55.55
53.68
49.64
42.19
30.88
16.35
0.16
-15.81
-30.05
-41.76
-50.83
-57.55
-62.19
-64.87
-65.65
-64.75
-62.62
-59.75
-56.41
-52.52
-47.71
-41.71
-34.61
-26.98
-19.69
-13.51
-8.99
-6.41
-6.08
-8.13
-12.29
-17.87
-23.89
-29.34
-33.48
-36.14
-37.73
-39.10
-40.81
-42.83
-44.68
-45.91
-46.46
-46.68
-47.04
-47.76
-49.17
-50.99
-52.46
-52.97
-52.48
-51.43
-50.39
-49.63
-49.08
-49.77
-51.95
-54.66
-56.58
-57.19
-56.83
-56.24
-55.96
-56.17
-59.21
-65.47
-72.50
-76.92
-77.08
-73.57
-68.08
-62.28
-57.08
-56.56
-61.49
-68.07
-71.31
-69.25
-63.74
-58.60
-57.76
-64.20
-84.64
-120.55
-165.91
-211.01
-248.33
-274.29
-288.31
-291.41
-250.81
-160.14
-45.10
60.04
139.34
193.99
230.43
253.56
265.87
268.03
255.37
227.89
193.08
161.93
142.57
137.85
145.65
160.20
173.30
172.52
150.57
109.19
57.11
4.97
-37.65
-65.47
-75.76
-69.84
-55.21
-39.72
-28.12
-21.67
-19.93
-21.45
-24.37
-26.81
-27.74
-28.05
-28.11
-26.84
-22.48
-14.55
-4.35
5.39
11.85
13.26
9.36
2.13
-4.90
-8.22
-7.02
-1.92
5.14
12.05
17.38
20.99
23.82
27.27
32.21
38.44
44.78
49.40
50.81
48.49
43.41
37.71
33.94
33.91
37.75
43.75
48.82
49.72
44.38
32.70
16.47
-1.45
-18.30
-32.24
-42.48
-49.03
-52.11
-51.90
-48.65
-42.97
-36.01
-29.24
-24.01
-20.98
-20.02
-20.28
-20.69
-20.36
-18.92
-16.48
-13.53
-10.56
-7.90
-5.65
-3.64
-1.65
0.54
2.98
5.53
7.87
9.60
10.47
10.32
9.25
7.43
5.16
2.74
0.35
-1.93
-4.19
-6.63
-9.48
-12.88
-16.79
-20.99
-25.11
-28.74
-31.48
-33.10
-33.50
-32.72
-30.88
-28.07
-24.37
-19.82
-14.45
-8.36
-1.72
5.20
12.05
18.53
24.36
29.39
33.57
36.89
39.39
41.12
42.14
42.53
42.38
41.78
40.81
39.58
38.18
36.74
35.37
34.11
32.85
31.45
29.70
27.47
24.80
21.88
19.00
16.40
14.15
12.16
10.19
7.96
5.31
2.19
-1.27
-4.82
-8.22
-11.25
-13.88
-16.21
-18.48
-20.95
-23.82
-27.10
-30.56
-33.87
-36.58
-38.35
-38.98
-38.46
-36.90
-34.51
-31.46
-27.89
-23.84
-19.31
-14.36
-9.07
-3.64
1.70
6.77
11.44
15.73
19.78
23.81
28.06
32.64
37.43
42.06
45.96
48.57
49.54
48.82
46.70
43.66
40.19
36.62
33.12
29.71
26.40
23.26
20.45
18.14
16.43
15.31
14.62
14.13
13.68
13.14
12.50
11.72
10.75
9.48
7.79
5.67
3.27
0.78
-1.62
-3.86
-6.02
-8.24
-10.58
-12.98
-15.27
-17.26
-18.86
-20.11
-21.06
-21.71
-21.94
-21.52
-20.22
-17.95
-14.85
-11.20
-7.39
-3.74
-0.42
2.49
5.01
7.16
8.95
10.42
11.62
12.64
13.54
14.38
15.14
15.82
16.43
16.97
17.46
17.91
18.33
18.70
19.04
19.29
19.40
19.34
19.08
18.68
18.23
17.81
17.40
16.91
16.15
15.04
13.59
11.95
10.32
8.89
7.69
6.68
5.75
4.78
3.68
2.40
0.96
-0.55
-2.02
-3.30
-4.24
-4.72
-4.69
-4.10
-2.95
-1.22
1.03
3.64
6.33
8.73
10.53
11.56
11.86
11.61
11.08
10.44
9.77
9.08
8.37
7.77
7.39
7.34
7.58
7.90
8.05
7.86
7.32
6.63
6.05
5.85
6.16
6.95
8.02
9.10
9.88
10.13
9.71
8.59
6.91
4.90
2.81
0.87
-0.81
-2.24
-3.53
-4.79
-6.07
-7.38
-8.68
-9.98
-11.33
-12.81
-14.45
-16.15
-17.71
-18.84
-19.27
-18.81
-17.39
-15.11
-12.15
-8.83
-5.48
-2.38
0.31
2.61
4.63
6.50
8.30
10.02
11.59
12.94
14.02
14.84
15.44
15.87
16.19
16.42
16.59
16.65
16.59
16.44
16.25
16.10
16.03
16.00
15.92
15.68
15.27
14.73
14.19
13.65
13.04
12.20
11.00
9.40
7.50
5.48
3.44
1.35
-0.92
-3.50
-6.38
-9.40
-12.23
-14.53
-16.07
-16.77
-16.68
-15.98
-14.81
-13.28
-11.44
-9.31
-6.99
-4.60
-2.33
-0.36
1.20
2.40
3.35
4.22
5.12
5.96
6.54
6.67
6.46
6.16
6.12
6.65
7.93
9.87
11.98
13.56
13.87
12.80
10.82
9.00
8.53
10.21
13.73
17.44
18.85
15.54
6.78
-6.45
-21.61
-35.20
-43.58
-43.97
-35.40
-19.16
1.12
21.31
36.62
43.10
39.67
29.37
18.34
13.02
17.21
29.88
47.42
62.73
67.84
57.84
34.06
3.44
-24.85
-42.69
-45.95
-31.69
-2.88
32.20
63.54
84.43
93.64
94.74
95.21
103.36
129.64
176.76
237.31
297.04
342.45
365.52
364.76
344.74
285.62
187.61
70.51
-40.06
-130.76
-200.27
-249.39
-281.66
-296.87
-295.60
-277.45
-248.45
-216.91
-192.53
-180.32
-179.75
-188.20
-202.12
-218.90
-231.10
-233.75
-227.09
-216.47
-207.65
-202.60
-199.80
-193.22
-178.03
-146.46
-98.15
-39.89
18.31
66.87
98.98
110.49
97.46
63.92
21.46
-17.82
-44.66
-53.40
-43.28
-17.85
15.12
50.83
87.67
126.10
164.43
188.85
189.69
168.13
147.35
135.12
135.19
143.13
155.44
166.19
169.28
162.11
145.25
121.15
91.10
58.49
27.38
2.65
-11.46
-11.76
3.25
30.00
58.74
74.99
66.60
27.15
-41.37
-129.97
-225.17
-312.10
-378.63
-417.40
-425.90
-405.29
-360.33
-297.68
-224.82
-148.54
-73.97
-4.64
57.25
111.36
157.22
193.22
217.65
229.49
228.79
216.31
193.42
154.13
101.85
47.15
0.92
-31.66
-50.81
-58.67
-58.06
-52.06
-43.82
-34.62
-27.45
-26.31
-33.78
-49.59
-68.32
-82.38
-84.26
-69.43
-36.50
8.54
54.74
91.10
110.72
112.53
99.55
76.84
43.73
7.48
-24.39
-47.60
-61.53
-67.61
-67.79
-64.24
-58.68
-52.27
-44.58
-36.06
-27.59
-19.63
-11.91
-4.00
3.91
11.40
18.21
25.36
33.23
41.36
48.47
52.90
53.98
51.12
45.36
38.77
33.69
30.73
28.68
25.61
20.24
12.73
4.47
-2.64
-7.33
-9.40
-9.91
-10.23
-11.10
-12.28
-12.94
-12.36
-10.30
-7.22
-3.94
-1.38
-0.15
-0.38
-1.71
-3.54
-5.41
-6.91
-7.79
-7.78
-6.62
-4.20
-0.66
3.51
7.60
10.91
13.04
13.95
13.89
13.20
12.12
10.84
9.46
8.11
6.92
5.96
5.15
4.25
2.95
1.08
-1.32
-3.97
-6.54
-8.86
-10.96
-13.11
-15.63
-18.60
-21.84
-24.86
-27.06
-27.92
-27.19
-24.85
-21.11
-16.34
-10.93
-5.36
-0.11
4.46
8.17
11.09
13.46
15.56
17.49
19.15
20.33
20.83
20.61
19.84
18.65
17.15
15.35
13.27
11.14
9.37
8.47
8.68
9.92
11.76
13.72
15.49
17.09
18.76
20.65
22.67
24.36
25.08
24.17
21.20
16.03
9.02
0.92
-7.30
-14.64
-20.53
-24.96
-28.54
-32.10
-36.25
-41.17
-46.50
-51.73
-56.41
-60.40
-63.69
-66.26
-67.99
-68.72
-68.42
-67.26
-65.58
-63.64
-61.46
-58.84
-55.56
-51.49
-46.69
-41.21
-34.91
-27.41
-18.29
-7.60
3.89
14.60
22.56
26.08
24.55
18.92
11.47
5.27
3.11
6.67
16.06
29.84
45.50
60.05
70.76
75.68
74.04
66.40
54.40
40.34
26.56
14.82
6.17
0.82
-1.58
-1.67
-0.32
1.52
2.84
2.80
0.97
-2.52
-7.02
-11.59
-15.36
-17.80
-18.84
-18.77
-18.01
-16.90
-15.59
-13.99
-11.88
-9.05
-5.44
-1.28
3.02
6.93
9.96
11.83
12.47
12.03
10.85
9.34
7.94
7.07
7.01
7.80
9.21
10.80
12.06
12.58
12.26
11.29
10.15
9.36
9.24
9.79
10.63
11.22
11.11
10.15
8.52
6.66
5.02
3.84
3.14
2.73
2.41
2.01
1.37
0.32
-1.32
-3.69
-6.73
-10.12
-13.38
-16.04
-17.83
-18.76
-19.01
-18.77
-18.10
-16.87
-14.87
-11.94
-8.11
-3.65
1.04
5.50
9.34
12.29
14.26
15.30
15.55
15.19
14.41
13.43
12.47
11.73
11.38
11.48
11.91
12.42
12.66
12.40
11.56
10.27
8.74
7.17
5.70
4.39
3.27
2.38
1.76
1.40
1.21
1.04
0.74
0.21
-0.54
-1.48
-2.56
-3.82
-5.26
-6.86
-8.56
-10.28
-11.97
-13.58
-14.99
-15.95
-16.14
-15.28
-13.28
-10.30
-6.63
-2.53
1.87
6.58
11.58
16.61
21.13
24.52
26.35
26.60
25.73
24.37
23.03
21.94
21.01
20.09
19.15
18.32
17.86
17.87
18.23
18.60
18.62
18.12
17.22
16.20
15.36
14.79
14.34
13.69
12.57
10.87
8.71
6.32
3.95
1.72
-0.42
-2.61
-5.02
-7.82
-11.08
-14.79
-18.76
-22.61
-25.88
-28.08
-28.91
-28.33
-26.58
-24.01
-21.03
-17.93
-14.89
-12.01
-9.35
-6.98
-4.99
-3.54
-2.84
-3.10
-4.43
-6.57
-8.88
-10.34
-9.98
-7.16
-1.93
4.97
12.31
18.80
23.66
26.96
29.55
32.68
37.40
43.96
51.59
58.72
63.63
65.09
62.78
57.22
49.24
39.46
28.11
15.25
1.26
-12.90
-25.86
-36.36
-43.85
-48.73
-52.09
-54.99
-57.90
-60.41
-61.59
-60.53
-56.85
-50.88
-43.33
-34.88
-25.86
-16.19
-5.65
5.77
17.63
29.04
38.85
45.96
49.65
49.72
46.49
40.68
33.19
24.96
16.90
9.80
4.29
0.73
-0.91
-1.10
-0.60
-0.27
-0.79
-2.35
-4.60
-6.78
-8.05
-7.90
-6.36
-4.03
-1.74
-0.20
0.28
-0.10
-0.98
-2.11
-3.60
-5.84
-9.14
-13.46
-18.28
-22.75
-26.11
-28.04
-28.75
-28.83
-28.95
-29.64
-31.16
-33.50
-36.35
-39.01
-40.38
-39.13
-34.09
-24.74
-11.59
3.87
19.54
33.31
43.69
49.98
52.35
51.48
48.27
43.59
38.13
32.39
26.75
21.52
17.00
13.41
10.81
9.08
7.85
6.64
5.07
3.05
0.86
-0.99
-2.00
-2.05
-1.44
-0.86
-0.95
-2.07
-4.08
-6.43
-8.50
-9.90
-10.63
-11.04
-11.54
-12.38
-13.57
-14.92
-16.29
-17.67
-19.11
-20.61
-22.01
-23.00
-23.27
-22.68
-21.28
-19.24
-16.65
-13.47
-9.52
-4.75
0.57
5.81
10.14
12.91
13.96
13.78
13.31
13.52
14.87
17.07
19.18
20.11
19.24
16.80
13.80
11.49
10.69
11.37
12.64
13.30
12.46
10.12
7.01
4.27
2.78
2.65
3.11
2.77
0.22
-5.56
-14.80
-26.95
-40.84
-54.73
-66.20
-72.26
-69.81
-56.78
-33.35
-2.51
30.29
58.85
78.05
85.35
81.02
67.57
48.36
26.56
4.62
-15.62
-32.41
-43.76
-47.40
-41.44
-25.38
-1.10
27.04
53.24
72.12
80.84
79.88
72.19
60.92
47.44
30.87
9.65
-15.81
-41.48
-60.14
-64.47
-50.85
-21.84
14.20
46.40
65.82
68.64
56.59
34.98
9.54
-15.64
-38.15
-55.93
-66.00
-64.87
-50.53
-24.61
7.00
35.66
53.26
55.31
42.18
18.33
-9.99
-36.83
-57.66
-69.41
-70.39
-60.44
-41.49
-17.63
5.51
22.49
29.76
26.71
15.46
-0.38
-17.04
-31.52
-41.71
-46.15
-43.92
-34.93
-20.41
-3.18
12.90
24.02
27.75
23.89
14.37
2.45
-8.59
-16.43
-20.21
-20.36
-17.98
-14.25
-10.12
-6.22
-3.02
-0.89
-0.12
-0.77
-2.55
-4.90
-7.10
-8.56
-9.02
-8.59
-7.71
-6.91
-6.68
-7.30
-8.78
-10.86
-13.04
-14.80
-15.72
-15.63
-14.78
-13.66
-12.86
-12.85
-13.76
-15.42
-17.38
-19.13
-20.21
-20.29
-19.26
-17.21
-14.37
-11.14
-7.94
-5.16
-2.99
-1.45
-0.38
0.41
1.07
1.65
2.11
2.39
2.49
2.47
2.40
2.33
2.18
1.87
1.36
0.70
0.15
-0.01
0.42
1.47
2.91
4.33
5.31
5.53
4.90
3.51
1.64
-0.34
-2.10
-3.37
-4.07
-4.24
-4.07
-3.74
-3.40
-3.08
-2.72
-2.12
-1.05
0.64
3.03
5.92
8.70
10.46
10.13
6.94
0.87
-7.10
-15.25
-21.72
-25.29
-25.87
-24.49
-22.77
-22.06
-22.88
-24.75
-26.52
-27.01
-25.59
-22.57
-19.21
-17.42
-19.31
-26.48
-39.59
-58.13
-80.56
-104.64
-127.74
-146.97
-159.67
-163.98
-159.40
-147.13
-129.52
-108.72
-85.21
-57.53
-23.87
15.51
56.34
90.81
110.30
109.17
87.65
52.21
13.22
-18.32
-33.68
-27.94
-0.65
44.11
98.25
151.05
191.82
213.23
213.65
197.42
172.47
146.78
125.50
110.42
101.14
96.95
97.81
103.81
113.85
124.63
131.44
130.27
120.07
103.84
87.52
77.43
77.21
86.22
99.91
112.06
117.37
113.12
99.52
79.07
56.03
35.94
25.00
28.35
47.86
80.23
116.81
146.12
158.11
148.34
119.75
81.22
43.38
14.12
-4.25
-14.79
-23.35
-35.27
-52.93
-75.39
-99.78
-123.42
-145.07
-164.68
-182.00
-195.03
-199.80
-192.12
-170.28
-137.05
-99.60
-66.75
-45.34
-37.67
-41.26
-50.88
-61.30
-69.30
-74.05
-76.52
-77.88
-78.70
-79.07
-79.30
-80.10
-82.24
-86.13
-91.40
-97.72
-104.32
-110.00
-113.66
-114.98
-114.34
-112.08
-107.96
-100.94
-90.98
-78.10
-62.67
-46.28
-32.48
-25.87
-30.28
-47.67
-77.48
-118.44
-165.96
-211.27
-243.31
-252.50
-234.01
-189.56
-127.50
-60.73
-5.29
27.55
35.58
24.49
3.40
-19.00
-36.22
-44.60
-26.66
21.96
87.38
148.27
192.18
218.06
230.49
234.97
235.81
235.32
231.32
220.82
202.78
178.08
148.13
114.93
81.48
51.19
24.92
0.35
-25.28
-52.19
-76.89
-93.43
-95.46
-78.58
-42.54
8.02
63.68
113.61
149.18
165.40
160.54
135.98
95.82
46.19
-6.15
-51.68
-82.05
-92.64
-84.24
-62.70
-36.38
-12.96
2.61
8.85
6.83
-1.40
-13.34
-26.33
-37.94
-46.25
-50.15
-49.64
-45.67
-39.58
-33.09
-27.55
-23.48
-20.54
-17.84
-14.40
-9.68
-3.77
2.60
8.07
11.33
11.83
10.11
7.62
6.04
6.53
9.31
13.71
18.41
22.08
23.78
23.30
21.16
18.33
15.90
14.61
14.52
15.00
15.04
13.91
11.54
8.58
5.96
4.33
3.70
3.51
3.11
2.22
1.07
0.15
-0.31
-0.49
-0.95
-2.15
-4.12
-6.40
-8.38
-9.74
-10.68
-11.74
-13.34
-15.41
-17.28
-18.14
-17.44
-15.31
-12.46
-9.74
-7.69
-6.27
-5.01
-3.40
-1.37
0.74
2.38
3.31
3.80
4.60
6.41
9.48
13.36
17.14
19.89
21.05
20.61
18.91
16.36
13.31
10.08
7.08
4.72
3.33
2.81
2.59
1.82
-0.28
-3.88
-8.47
-12.95
-16.16
-17.38
-16.70
-15.01
-13.66
-13.91
-16.30
-20.20
-23.87
-24.84
-20.62
-9.69
8.02
30.78
55.40
78.03
95.19
104.68
106.22
