1.593709119000000000e+09
-2.999999999999999889e-02
5.059999999999999609e+00
1.791000000000000014e+01
7.934000000000000341e+01
2.282500000000000000e+02
-4.869800000000000182e+02
-7.570000000000000284e+00
1.500300000000000011e+02
2.748999999999999844e+01
5.382000000000000028e+01
7.839999999999999858e+00
-1.689999999999999947e+00
-3.009999999999999787e+00
2.899999999999999911e+00
9.529999999999999361e+00
-1.026999999999999957e+01
-4.129999999999999893e+00
-2.850000000000000089e+00
-4.679999999999999716e+00
1.119999999999999929e+01
-6.099999999999999867e-01
-5.000000000000000000e+00
9.429999999999999716e+00
1.676999999999999957e+01
1.169999999999999929e+01
-2.055999999999999872e+01
1.290000000000000036e+00
7.000000000000000666e-02
-2.037999999999999901e+01
-3.950000000000000178e+00
-2.540000000000000036e+00
-5.459999999999999964e+00
-1.075999999999999979e+01
1.224000000000000021e+01
6.980000000000000426e+00
-5.440000000000000391e+00
-1.469999999999999973e+00
2.508999999999999986e+01
-1.040000000000000036e+00
-2.051000000000000156e+01
3.112999999999999901e+01
-4.040000000000000036e+00
-1.058000000000000007e+01
-9.130000000000000782e+00
1.673999999999999844e+01
1.785999999999999943e+01
-7.209999999999999964e+00
3.770000000000000284e+01
-1.773000000000000043e+01
-3.485999999999999943e+01
6.190000000000000391e+00
-2.850000000000000089e+00
-1.983999999999999986e+01
-1.650000000000000000e+01
8.779999999999999361e+00
6.370000000000000107e+00
-6.139999999999999680e+00
4.160000000000000142e+00
8.299999999999999600e-01
-1.024000000000000021e+01
-9.779999999999999361e+00
4.870000000000000107e+00
-4.030000000000000249e+00
1.000000000000000000e+00
1.503999999999999915e+01
1.229999999999999982e+00
-7.790000000000000036e+00
-8.339999999999999858e+00
3.900000000000000133e-01
2.149999999999999911e+00
4.759999999999999787e+00
1.065000000000000036e+01
8.640000000000000568e+00
-2.101999999999999957e+01
-1.769999999999999929e+01
-3.850000000000000089e+00
1.929999999999999938e+00
9.119999999999999218e+00
6.070000000000000284e+00
-1.215000000000000036e+01
4.059999999999999609e+00
1.409999999999999920e+00
-9.539999999999999147e+00
4.469999999999999751e+00
9.830000000000000071e+00
-3.060000000000000053e+00
-7.480000000000000426e+00
1.233000000000000007e+01
4.320000000000000284e+00
-1.116999999999999993e+01
7.820000000000000284e+00
4.660000000000000142e+00
-5.059999999999999609e+00
-5.730000000000000426e+00
1.629999999999999893e+00
-5.100000000000000089e-01
-1.238000000000000078e+01
1.490000000000000036e+01
4.900000000000000355e+00
-7.009999999999999787e+00
1.439999999999999947e+00
8.419999999999999929e+00
1.739999999999999991e+00
-1.226999999999999957e+01
6.280000000000000249e+00
-1.100000000000000089e+00
-5.139999999999999680e+00
8.800000000000000044e-01
6.589999999999999858e+00
6.500000000000000222e-01
-1.308999999999999986e+01
7.950000000000000178e+00
5.969999999999999751e+00
-6.219999999999999751e+00
-7.379999999999999893e+00
1.789999999999999858e+01
-1.010999999999999943e+01
-3.249000000000000199e+01
4.689999999999999858e+01
-6.839999999999999858e+00
-1.614999999999999858e+01
1.250999999999999979e+01
5.009999999999999787e+00
1.770000000000000018e+00
-2.926000000000000156e+01
3.105999999999999872e+01
1.603000000000000114e+01
-2.367999999999999972e+01
9.080000000000000071e+00
2.939000000000000057e+01
8.419999999999999929e+00
-2.346000000000000085e+01
1.819000000000000128e+01
4.440000000000000391e+00
-7.910000000000000142e+00
-3.839999999999999858e+00
1.308999999999999986e+01
-1.389999999999999902e+00
-3.919999999999999929e+00
9.990000000000000213e+00
1.649999999999999911e+00
-1.169999999999999929e+01
7.709999999999999964e+00
7.620000000000000107e+00
-9.699999999999999289e+00
-3.200000000000000067e-01
2.589999999999999858e+00
-1.790000000000000036e+00
-1.436999999999999922e+01
6.549999999999999822e+00
5.480000000000000426e+00
-4.490000000000000213e+00
9.099999999999999645e+00
3.450000000000000178e+00
-4.589999999999999858e+00
-2.148000000000000043e+01
-1.100000000000000006e-01
3.300000000000000155e-01
-1.100999999999999979e+01
1.288000000000000078e+01
4.019999999999999574e+00
-2.100000000000000089e+00
-3.790000000000000036e+00
1.342999999999999972e+01
6.899999999999999467e-01
-1.551999999999999957e+01
8.000000000000000000e+00
8.150000000000000355e+00
-3.740000000000000213e+00
-1.219999999999999929e+01
9.349999999999999645e+00
7.500000000000000000e-01
-6.759999999999999787e+00
1.008999999999999986e+01
1.115000000000000036e+01
-5.389999999999999680e+00
-9.660000000000000142e+00
1.430000000000000071e+01
1.689999999999999947e+00
-1.572000000000000064e+01
7.650000000000000355e+00
8.580000000000000071e+00
-4.540000000000000036e+00
-8.490000000000000213e+00
8.550000000000000711e+00
2.910000000000000142e+00
-1.168999999999999950e+01
8.330000000000000071e+00
9.210000000000000853e+00
-1.750000000000000000e+00
-1.932999999999999829e+01
1.239000000000000057e+01
5.509999999999999787e+00
-6.870000000000000107e+00
5.320000000000000284e+00
1.063000000000000078e+01
-2.500000000000000000e+00
-1.251999999999999957e+01
1.065000000000000036e+01
-9.300000000000000488e-01
-1.678000000000000114e+01
-5.769999999999999574e+00
1.637999999999999901e+01
-3.359999999999999876e+00
-1.368999999999999950e+01
1.347000000000000064e+01
3.189999999999999947e+00
-1.160999999999999943e+01
3.000000000000000000e+00
6.679999999999999716e+00
-4.450000000000000178e+00
-1.417999999999999972e+01
8.599999999999999645e+00
3.700000000000000178e+00
-7.309999999999999609e+00
9.529999999999999361e+00
8.619999999999999218e+00
-1.969999999999999973e+00
-1.047000000000000064e+01
6.879999999999999893e+00
2.959999999999999964e+00
-1.208000000000000007e+01
3.379999999999999893e+00
5.330000000000000071e+00
-2.729999999999999982e+00
-4.419999999999999929e+00
1.071000000000000085e+01
2.919999999999999929e+00
-1.123000000000000043e+01
7.580000000000000071e+00
6.190000000000000391e+00
-5.160000000000000142e+00
-5.900000000000000355e+00
8.689999999999999503e+00
-2.770000000000000018e+00
-1.575000000000000000e+01
7.879999999999999893e+00
4.750000000000000000e+00
-8.199999999999999512e-01
2.387999999999999901e+01
7.598000000000000398e+01
-4.624200000000000159e+02
-5.485999999999999943e+01
2.956600000000000250e+02
-1.132399999999999949e+02
7.451999999999999602e+01
-2.480000000000000071e+01
-8.800000000000000000e+01
2.321999999999999886e+01
8.968000000000000682e+01
-7.784000000000000341e+01
5.060999999999999943e+01
-1.352999999999999936e+01
-4.779999999999999716e+01
9.140999999999999659e+01
-1.095900000000000034e+02
1.003700000000000045e+02
-2.490000000000000000e+02
2.143600000000000136e+02
-7.726000000000000512e+01
2.026200000000000045e+02
-1.033100000000000023e+02
9.623999999999999488e+01
1.733000000000000114e+02
-3.287300000000000182e+02
3.306000000000000227e+01
4.504999999999999716e+01
3.112000000000000099e+01
-1.644000000000000128e+01
8.199999999999999512e-01
1.776000000000000156e+01
-1.191999999999999993e+01
-2.264999999999999858e+01
2.221000000000000085e+01
1.199999999999999956e+00
1.385999999999999943e+01
2.742000000000000171e+01
-3.051000000000000156e+01
-1.203999999999999915e+01
1.580000000000000071e+00
-1.853000000000000114e+01
-5.632999999999999829e+01
5.368999999999999773e+01
1.230600000000000023e+02
-5.090999999999999659e+01
1.593600000000000136e+02
5.954999999999999716e+01
-7.810999999999999943e+01
-7.381999999999999318e+01
3.771999999999999886e+01
-8.676000000000000512e+01
9.668999999999999773e+01
-2.776000000000000156e+01
1.203999999999999915e+01
-2.612999999999999901e+01
-5.867999999999999972e+01
3.032999999999999829e+01
1.044800000000000040e+02
1.243799999999999955e+02
-2.310300000000000011e+02
-6.868000000000000682e+01
1.318700000000000045e+02
4.349999999999999645e+00
1.040199999999999960e+02
2.028999999999999915e+01
-1.535099999999999909e+02
-9.351999999999999602e+01
-4.472999999999999687e+01
-1.343999999999999950e+01
3.151000000000000156e+01
2.787000000000000099e+01
-2.306800000000000068e+02
-1.610000000000000142e+01
2.203199999999999932e+02
3.914599999999999795e+02
-6.953000000000000114e+01
-1.795500000000000114e+02
1.887999999999999901e+01
2.698000000000000043e+01
1.229999999999999982e+00
7.150000000000000355e+00
-8.380000000000000782e+00
-2.321000000000000085e+01
-1.080000000000000071e+00
-7.821999999999999886e+01
1.390000000000000036e+01
-1.328899999999999864e+02
2.105600000000000023e+02
-1.863400000000000034e+02
5.071999999999999886e+01
7.270000000000000284e+01
-2.135999999999999943e+02
-7.198999999999999488e+01
1.728199999999999932e+02
-7.118999999999999773e+01
-1.891899999999999977e+02
9.534999999999999432e+01
2.544000000000000128e+01
5.086999999999999744e+01
9.589999999999999858e+00
-4.972999999999999687e+01
-2.378000000000000114e+01
-6.309999999999999609e+00
3.270000000000000018e+00
4.127000000000000313e+01
1.139999999999999902e+00
-1.455000000000000071e+01
1.056000000000000050e+01
-1.290000000000000036e+00
-8.830000000000000071e+00
-3.399999999999999911e+00
-1.959999999999999964e+00
-7.190000000000000391e+00
7.006000000000000227e+01
4.777000000000000313e+01
7.976999999999999602e+01
-1.558400000000000034e+02
-2.182000000000000028e+01
2.212999999999999901e+01
-1.744999999999999929e+01
-3.839000000000000057e+01
3.160999999999999943e+01
1.671999999999999886e+02
-1.807199999999999989e+02
-3.552000000000000313e+01
-5.429999999999999716e+00
-6.669999999999999929e+00
9.150000000000000000e+01
-3.071999999999999886e+01
1.006299999999999955e+02
2.596999999999999886e+01
-2.853000000000000114e+01
-2.560000000000000053e+00
-1.313000000000000078e+01
-1.575000000000000000e+01
1.080000000000000071e+00
3.169999999999999929e+00
-8.980000000000000426e+00
1.074000000000000021e+01
3.240999999999999659e+01
6.650000000000000355e+00
-3.162000000000000099e+01
-8.359999999999999432e+00
-3.370000000000000107e+00
-7.250000000000000000e+00
2.549999999999999822e+00
1.659999999999999920e+00
2.310000000000000053e+00
-2.319999999999999840e+00
-3.899999999999999911e+00
-5.669999999999999929e+00
1.050000000000000044e+00
6.450000000000000178e+00
2.580000000000000071e+00
3.810000000000000053e+00
-7.500000000000000000e-01
3.810000000000000053e+00
2.000000000000000111e-01
-3.950000000000000178e+00
-2.919999999999999929e+00
4.610000000000000320e+00
4.299999999999999933e-01
-1.132000000000000028e+01
2.430000000000000160e+00
5.769999999999999574e+00
4.080000000000000071e+00
-9.130000000000000782e+00
-9.499999999999999556e-01
3.339999999999999858e+00
-1.130000000000000071e+01
9.699999999999999734e-01
9.660000000000000142e+00
-9.599999999999999645e-01
-1.801000000000000156e+01
8.019999999999999574e+00
1.760000000000000009e+00
2.444000000000000128e+01
1.991000000000000014e+01
9.800000000000000711e+00
-1.419999999999999929e+00
-7.139999999999999680e+00
8.100000000000000533e-01
3.970000000000000195e+00
-1.032000000000000028e+01
-1.673999999999999844e+01
4.509999999999999787e+00
1.499999999999999944e-01
-1.408999999999999986e+01
-6.190000000000000391e+00
-8.000000000000000167e-02
9.599999999999999645e-01
1.200999999999999979e+01
1.489000000000000057e+01
1.612999999999999901e+01
-1.994000000000000128e+01
-1.848000000000000043e+01
5.950000000000000178e+00
4.650000000000000355e+00
-1.409999999999999964e+01
7.410000000000000142e+00
1.117999999999999972e+01
-2.287000000000000099e+01
-1.648999999999999844e+01
1.261999999999999922e+01
-1.805999999999999872e+01
-4.214000000000000057e+01
-2.428899999999999864e+02
-2.901000000000000156e+01
4.758899999999999864e+02
2.674900000000000091e+02
1.489900000000000091e+02
-2.733299999999999841e+02
-6.407999999999999829e+01
-2.292000000000000171e+01
-9.373999999999999488e+01
-3.714000000000000057e+01
-9.109999999999999432e+01
2.010999999999999943e+01
4.269999999999999574e+00
3.652000000000000313e+01
-4.257000000000000028e+01
-1.165300000000000011e+02
8.248000000000000398e+01
-1.524000000000000021e+01
4.110000000000000320e+00
4.140999999999999659e+01
5.018999999999999773e+01
8.640000000000000568e+00
-4.259999999999999787e+00
-1.330000000000000071e+00
-2.217999999999999972e+01
-2.680000000000000071e+01
4.474000000000000199e+01
-3.399999999999999911e+00
-4.507999999999999829e+01
-4.678000000000000114e+01
8.426999999999999602e+01
1.327999999999999936e+01
-7.809999999999999609e+00
8.869999999999999218e+00
5.089999999999999858e+00
1.914000000000000057e+01
-6.923000000000000398e+01
1.071899999999999977e+02
-3.939999999999999947e+00
-5.993999999999999773e+01
5.481000000000000227e+01
7.229999999999999716e+01
-3.782999999999999829e+01
-2.310000000000000053e+00
-6.300000000000000000e+01
1.213000000000000078e+01
-1.933999999999999986e+01
-1.440000000000000036e+01
4.031000000000000227e+01
2.126999999999999957e+01
-8.475000000000000000e+01
2.971999999999999886e+01
2.790000000000000036e+00
1.034999999999999964e+01
-5.317000000000000171e+01
-3.540000000000000036e+00
-9.704999999999999716e+01
4.396999999999999886e+01
1.898400000000000034e+02
-1.908199999999999932e+02
6.651000000000000512e+01
-1.000199999999999960e+02
-3.270000000000000284e+01
4.100999999999999801e+01
-3.083999999999999986e+01
1.676999999999999957e+01
1.197000000000000064e+01
-6.937000000000000455e+01
-4.234000000000000341e+01
3.500000000000000000e+01
-1.748999999999999844e+01
-6.378000000000000114e+01
-5.740000000000000213e+00
1.719999999999999973e+00
6.609000000000000341e+01
7.500000000000000000e-01
-2.398000000000000043e+01
6.549999999999999822e+00
7.000000000000000666e-02
-2.830000000000000071e+00
6.780000000000000249e+00
3.470000000000000195e+00
7.030000000000000249e+00
1.058000000000000007e+01
1.223000000000000043e+01
-7.459999999999999964e+00
-4.559999999999999609e+00
-1.475000000000000000e+01
-1.373000000000000043e+01
-1.810000000000000053e+00
-2.200000000000000178e+00
-1.035999999999999943e+01
-5.349999999999999645e+00
5.799999999999999822e+00
-3.430000000000000160e+00
-6.469999999999999751e+00
1.067999999999999972e+01
3.009999999999999787e+00
-2.359999999999999876e+00
2.069999999999999929e+01
2.482000000000000028e+01
2.800000000000000000e+01
-1.337100000000000080e+02
2.273999999999999844e+01
-1.297000000000000064e+01
5.389999999999999680e+00
1.340000000000000036e+01
-8.939999999999999503e+00
2.310000000000000053e+00
3.890000000000000124e+00
-2.600000000000000089e-01
-1.044999999999999929e+01
6.910000000000000142e+00
1.853000000000000114e+01
2.292999999999999972e+01
-5.820000000000000284e+00
-1.003999999999999915e+01
-4.559999999999999609e+00
1.271899999999999977e+02
-1.191099999999999994e+02
3.928999999999999915e+01
1.817000000000000171e+01
-2.216000000000000014e+01
-3.169000000000000128e+01
8.239000000000000057e+01
4.747999999999999687e+01
6.423999999999999488e+01
-8.064000000000000057e+01
-1.658600000000000136e+02
1.796899999999999977e+02
4.918999999999999773e+01
6.096000000000000085e+01
-4.236299999999999955e+02
1.100199999999999960e+02
9.121999999999999886e+01
3.803000000000000114e+01
-4.446999999999999886e+01
1.046700000000000017e+02
-8.599999999999999645e+00
6.981999999999999318e+01
6.234000000000000341e+01
-1.119899999999999949e+02
1.565600000000000023e+02
-2.156999999999999886e+02
2.482000000000000028e+01
1.359799999999999898e+02
-1.699300000000000068e+02
9.264000000000000057e+01
1.216000000000000014e+01
-6.360999999999999943e+01
-1.384000000000000057e+02
8.598000000000000398e+01
7.146999999999999886e+01
1.401800000000000068e+02
-3.697999999999999687e+01
-7.756000000000000227e+01
-2.085999999999999943e+01
-2.623000000000000043e+01
7.000000000000000666e-02
3.649000000000000199e+01
8.740000000000000213e+00
-4.703000000000000114e+01
-2.664000000000000057e+01
2.828000000000000114e+01
7.326000000000000512e+01
-7.070000000000000284e+00
-4.838000000000000256e+01
-3.277000000000000313e+01
1.189300000000000068e+02
-1.073000000000000043e+01
-9.017000000000000171e+01
-2.978999999999999915e+01
1.723000000000000043e+01
4.179999999999999716e+00
-2.971000000000000085e+01
6.900000000000000000e+01
6.504999999999999716e+01
-7.534000000000000341e+01
-1.422000000000000064e+01
4.438000000000000256e+01
-1.485999999999999943e+01
-1.341500000000000057e+02
-8.232999999999999829e+01
5.525999999999999801e+01
6.406000000000000227e+01
2.517000000000000171e+01
3.032000000000000028e+01
2.532999999999999829e+01
-2.828000000000000114e+01
3.425999999999999801e+01
1.153999999999999915e+01
7.389999999999999680e+00
5.422999999999999687e+01
-2.705999999999999872e+01
-5.781000000000000227e+01
-1.177999999999999936e+01
3.146999999999999886e+01
-2.967000000000000171e+01
1.499000000000000021e+01
-9.000000000000000000e+00
4.209999999999999964e+00
-7.969999999999999751e+00
-5.300000000000000266e-01
6.870000000000000107e+00
3.144999999999999929e+01
1.848000000000000043e+01
3.228000000000000114e+01
-7.245000000000000284e+01
-2.298999999999999844e+01
-2.978000000000000114e+01
1.700000000000000122e-01
4.054999999999999716e+01
-1.687999999999999901e+01
-2.103999999999999915e+01
-3.696999999999999886e+01
2.396999999999999886e+01
1.288000000000000078e+01
-8.560000000000000497e+00
-8.419999999999999929e+00
1.247000000000000064e+01
1.494999999999999929e+01
1.479999999999999982e+00
-8.369999999999999218e+00
1.197000000000000064e+01
5.435000000000000142e+01
-6.129999999999999716e+01
-1.803999999999999915e+01
2.651000000000000156e+01
1.215000000000000036e+01
-2.387999999999999901e+01
-8.470000000000000639e+00
1.234999999999999964e+01
3.819999999999999840e+00
-4.379999999999999893e+00
7.129000000000000625e+01
-2.007999999999999829e+01
-1.085300000000000011e+02
-2.999999999999999889e-02
3.010000000000000142e+01
1.600099999999999909e+02
9.207999999999999829e+01
-1.668199999999999932e+02
-5.528999999999999915e+01
6.562000000000000455e+01
-8.759999999999999787e+00
3.026000000000000156e+01
1.098000000000000043e+01
-1.581000000000000050e+01
-6.800000000000000488e-01
3.713000000000000256e+01
2.805999999999999872e+01
-3.496000000000000085e+01
-7.709999999999999964e+00
-1.726000000000000156e+01
-1.682999999999999829e+01
-8.070000000000000284e+00
1.557000000000000028e+01
1.128999999999999915e+01
-9.099999999999999645e+00
1.041000000000000014e+01
1.313000000000000078e+01
-1.689999999999999947e+00
-1.789999999999999858e+01
2.040000000000000036e+00
-1.862999999999999901e+01
-1.820000000000000062e+00
9.029999999999999361e+00
-1.519900000000000091e+02
1.078400000000000034e+02
-1.323000000000000043e+01
-6.330000000000000071e+00
-8.599999999999999867e-01
4.695000000000000284e+01
-3.076999999999999957e+01
1.054300000000000068e+02
-1.254699999999999989e+02
-1.057600000000000051e+02
2.562000000000000099e+01
1.124000000000000021e+01
1.607899999999999920e+02
-4.235000000000000142e+01
7.125000000000000000e+01
-4.753000000000000114e+01
-6.556000000000000227e+01
-2.141000000000000014e+01
-2.819999999999999929e+01
2.760999999999999943e+01
1.630000000000000071e+01
1.019999999999999929e+01
1.142999999999999972e+01
1.307000000000000028e+01
6.259999999999999787e+00
2.939999999999999947e+00
2.667000000000000171e+01
-7.326000000000000512e+01
-1.992999999999999972e+01
-8.880000000000000782e+00
1.571000000000000085e+01
9.429999999999999716e+00
-1.313000000000000078e+01
1.361999999999999922e+01
1.026999999999999957e+01
3.390000000000000124e+00
-1.401999999999999957e+01
1.505000000000000071e+01
4.092999999999999972e+01
1.328199999999999932e+02
-2.788100000000000023e+02
-3.756000000000000227e+01
2.982999999999999829e+01
-6.540000000000000036e+00
3.292000000000000171e+01
1.467999999999999972e+01
1.260999999999999943e+01
-2.558999999999999986e+01
-4.335000000000000142e+01
-2.982999999999999829e+01
-0.000000000000000000e+00
-2.009999999999999787e+00
-3.459999999999999964e+00
8.839999999999999858e+00
-9.849999999999999645e+00
-2.635999999999999943e+01
-2.240000000000000213e+00
4.703999999999999915e+01
-2.024000000000000057e+02
1.230100000000000051e+02
4.140999999999999659e+01
2.450000000000000178e+00
-1.725000000000000000e+01
-1.520000000000000018e+00
2.607000000000000028e+01
-1.600000000000000089e+00
-3.663000000000000256e+01
-8.240000000000000213e+00
-6.730000000000000426e+00
2.140000000000000124e+00
9.250000000000000000e+00
2.476000000000000156e+01
4.115999999999999659e+01
1.205600000000000023e+02
-9.260999999999999943e+01
-1.011599999999999966e+02
6.396999999999999886e+01
-5.431000000000000227e+01
1.780999999999999872e+01
2.932000000000000028e+01
1.698000000000000043e+01
6.530000000000000249e+00
-3.829999999999999716e+01
7.459999999999999964e+00
6.750000000000000000e+00
-2.640000000000000124e+00
1.409999999999999920e+00
-4.553000000000000114e+01
1.635999999999999943e+02
-1.176500000000000057e+02
1.176999999999999957e+01
-2.382999999999999829e+01
3.365999999999999659e+01
-3.229999999999999716e+01
4.485999999999999943e+01
1.823999999999999844e+01
1.460999999999999943e+01
4.929999999999999716e+00
-8.268000000000000682e+01
-5.015999999999999659e+01
-5.414000000000000057e+01
1.388000000000000114e+02
-2.917000000000000171e+01
-3.742000000000000171e+01
4.507999999999999829e+01
-4.134000000000000341e+01
4.964000000000000057e+01
3.300000000000000000e+01
-1.035799999999999983e+02
-6.406000000000000227e+01
1.031099999999999994e+02
-2.175000000000000000e+01
3.207000000000000028e+01
6.498000000000000398e+01
2.328000000000000114e+01
-7.723000000000000398e+01
-1.254599999999999937e+02
-7.059999999999999609e+00
8.867000000000000171e+01
6.078999999999999915e+01
-1.814799999999999898e+02
-1.301899999999999977e+02
9.884999999999999432e+01
-5.932999999999999829e+01
1.085199999999999960e+02
1.039000000000000057e+01
2.516299999999999955e+02
-1.794999999999999929e+01
-2.585500000000000114e+02
1.460500000000000114e+02
-1.713700000000000045e+02
7.901000000000000512e+01
2.226200000000000045e+02
-3.978000000000000114e+01
-2.698999999999999844e+01
6.089999999999999858e+00
1.222900000000000063e+02
-7.879999999999999893e+00
-3.030999999999999872e+01
1.608499999999999943e+02
-2.696999999999999886e+01
-2.907999999999999829e+01
1.053999999999999915e+01
7.310999999999999943e+01
-2.135999999999999943e+01
-1.274000000000000021e+01
-8.800000000000000044e-01
1.232000000000000028e+01
1.548000000000000043e+01
-8.900000000000000355e+00
5.599999999999999645e+00
-8.871999999999999886e+01
-1.959999999999999964e+00
2.526000000000000156e+01
-1.860000000000000142e+01
1.238000000000000078e+01
-5.169999999999999929e+00
-7.900000000000000355e-01
1.485999999999999943e+01
1.275999999999999979e+01
5.519999999999999574e+00
3.819999999999999840e+00
-1.219999999999999973e+00
-2.150000000000000000e+01
3.800000000000000044e-01
1.969999999999999973e+00
1.294999999999999929e+01
-1.149999999999999911e+00
-2.696000000000000085e+01
-6.719999999999999751e+00
1.160900000000000034e+02
-7.254999999999999716e+01
-2.200000000000000000e+01
4.410000000000000142e+00
6.660000000000000142e+00
6.519999999999999574e+00
1.126999999999999957e+01
1.280000000000000027e+00
-1.833999999999999986e+01
1.557000000000000028e+01
-2.729999999999999982e+00
-2.205999999999999872e+01
-8.710000000000000853e+00
6.559999999999999609e+00
1.179999999999999938e+00
-5.339999999999999858e+00
-6.800000000000000488e-01
-5.629999999999999893e+00
-1.058000000000000007e+01
6.120000000000000107e+00
6.000000000000000000e+00
1.286999999999999922e+01
1.896999999999999886e+01
9.919999999999999929e+00
-9.609999999999999432e+00
-6.500000000000000222e-01
-1.000999999999999979e+01
-1.519999999999999929e+01
4.000000000000000083e-02
6.799999999999999822e+00
-5.709999999999999964e+00
-3.589999999999999858e+00
1.019999999999999929e+01
2.129999999999999893e+00
-8.820000000000000284e+00
8.400000000000000355e+00
9.939999999999999503e+00
4.980000000000000426e+00
2.859999999999999876e+00
-2.076000000000000156e+01
-4.519999999999999574e+00
-1.612000000000000099e+01
-2.120000000000000107e+00
1.317599999999999909e+02
-7.937000000000000455e+01
-3.677000000000000313e+01
6.512999999999999545e+01
-1.499000000000000021e+01
-1.161700000000000017e+02
1.301800000000000068e+02
-9.046999999999999886e+01
-4.520000000000000284e+01
1.948999999999999844e+01
6.804999999999999716e+01
-1.442500000000000000e+02
1.406399999999999864e+02
-1.021099999999999994e+02
-2.251999999999999957e+01
-1.976500000000000057e+02
-9.460000000000000853e+00
1.767500000000000000e+02
6.440000000000000391e+00
-3.642000000000000171e+01
-1.354900000000000091e+02
4.299999999999999933e-01
-7.059999999999999609e+00
-4.171000000000000085e+01
8.873000000000000398e+01
-2.639000000000000057e+01
4.574000000000000199e+01
-4.067000000000000171e+01
-7.084999999999999432e+01
4.870000000000000284e+01
-1.056800000000000068e+02
6.479999999999999716e+01
4.019999999999999574e+00
-9.598000000000000398e+01
9.912000000000000455e+01
1.794000000000000128e+01
-2.255000000000000071e+01
-3.828999999999999915e+01
-2.646000000000000085e+01
-4.035999999999999943e+01
-7.309999999999999609e+00
4.820000000000000284e+00
-4.275000000000000000e+01
3.200000000000000000e+01
2.562999999999999901e+01
-7.570000000000000284e+00
3.863000000000000256e+01
1.557000000000000028e+01
7.719999999999999751e+00
1.500699999999999932e+02
-5.889999999999999858e+01
1.574000000000000021e+01
1.821999999999999886e+01
-3.176000000000000156e+01
6.929999999999999716e+00
1.985000000000000142e+01
3.542999999999999972e+01
3.300999999999999801e+01
2.866000000000000014e+01
-2.421000000000000085e+01
-1.379999999999999893e+00
2.666000000000000014e+01
-1.024000000000000021e+01
1.275000000000000000e+01
1.067999999999999972e+01
-1.346000000000000085e+01
6.660000000000000142e+00
1.586999999999999922e+01
1.553999999999999915e+01
-6.080000000000000071e+00
-3.021999999999999886e+01
-1.380000000000000071e+01
3.561999999999999744e+01
5.830000000000000071e+00
-5.657999999999999829e+01
-6.999999999999999556e-01
4.588000000000000256e+01
3.421000000000000085e+01
-2.696000000000000085e+01
-3.404999999999999716e+01
5.824000000000000199e+01
1.500000000000000000e+01
-2.903999999999999915e+01
-1.289699999999999989e+02
8.365000000000000568e+01
-1.705000000000000071e+01
4.178000000000000114e+01
1.338899999999999864e+02
1.084999999999999964e+01
-3.067999999999999972e+01
-5.442000000000000171e+01
-6.050000000000000000e+01
-2.125699999999999932e+02
5.489000000000000057e+01
3.564000000000000057e+01
-1.106000000000000050e+01
5.330000000000000071e+00
4.464000000000000057e+01
-4.060999999999999943e+01
7.832999999999999829e+01
9.949999999999999289e+00
-5.971999999999999886e+01
-4.497999999999999687e+01
-5.249000000000000199e+01
7.740000000000000213e+00
3.620000000000000284e+01
4.284000000000000341e+01
1.700000000000000000e+01
-3.596999999999999886e+01
1.919000000000000128e+01
3.660999999999999943e+01
1.108000000000000007e+01
-2.800000000000000000e+01
-1.889999999999999858e+01
1.600000000000000089e+00
1.476999999999999957e+01
-3.499999999999999778e-01
1.002999999999999936e+01
1.355000000000000071e+01
-6.669999999999999929e+00
-4.199999999999999845e-01
-1.541999999999999993e+01
4.399000000000000199e+01
-3.259999999999999787e+00
-8.000000000000000167e-02
2.917999999999999972e+01
-5.392999999999999972e+01
-4.499000000000000199e+01
-2.535999999999999943e+01
5.814999999999999858e+01
6.017000000000000171e+01
7.309999999999999609e+00
-1.953000000000000114e+01
-2.210999999999999943e+01
-9.014000000000000057e+01
-3.561999999999999744e+01
4.032000000000000028e+01
5.809000000000000341e+01
-2.207999999999999829e+01
-3.640000000000000124e+00
1.113000000000000078e+01
-1.249000000000000021e+01
-2.444000000000000128e+01
9.449999999999999289e+00
3.146999999999999886e+01
-4.830000000000000071e+00
-1.860000000000000142e+01
-5.309999999999999609e+00
8.580000000000000071e+00
1.293999999999999950e+01
-1.050000000000000000e+01
-1.175999999999999979e+01
-2.319999999999999840e+00
-3.930000000000000160e+00
6.160000000000000142e+00
1.183000000000000007e+01
2.789000000000000057e+01
7.643999999999999773e+01
-2.830000000000000071e+00
-5.568999999999999773e+01
1.093999999999999950e+01
5.277000000000000313e+01
-1.142999999999999972e+01
1.356000000000000050e+01
4.450000000000000178e+00
-2.539999999999999858e+01
6.839999999999999858e+00
3.600000000000000089e+00
1.730000000000000071e+01
-3.404999999999999716e+01
-7.450000000000000178e+00
-1.700000000000000122e-01
-1.309999999999999964e+01
8.460000000000000853e+00
-5.000000000000000278e-02
-1.327999999999999936e+01
-8.669999999999999929e+00
-2.130000000000000071e+01
-2.183999999999999986e+01
2.973999999999999844e+01
2.319999999999999929e+01
-2.517999999999999972e+01
-1.807999999999999829e+01
-5.879999999999999893e+00
3.030999999999999872e+01
3.264000000000000057e+01
-4.807999999999999829e+01
-5.317999999999999972e+01
1.516000000000000014e+01
1.439000000000000057e+01
1.165000000000000036e+01
-2.230999999999999872e+01
6.910000000000000142e+00
-3.732000000000000028e+01
-1.433999999999999986e+01
3.935999999999999943e+01
5.709999999999999964e+00
4.900000000000000000e+01
2.162000000000000099e+01
-5.919999999999999929e+00
-5.064999999999999858e+01
5.434000000000000341e+01
-7.057999999999999829e+01
-2.657000000000000028e+01
9.919999999999999929e+00
1.683999999999999986e+01
4.932000000000000028e+01
-6.534999999999999432e+01
-2.899999999999999800e-01
2.298999999999999844e+01
-2.550000000000000000e+01
-1.848999999999999844e+01
9.720000000000000639e+00
-4.757999999999999829e+01
2.762000000000000099e+01
7.021999999999999886e+01
9.369999999999999218e+00
-2.833999999999999986e+01
5.969999999999999751e+00
1.926000000000000156e+01
1.241000000000000014e+01
2.410000000000000142e+00
1.272000000000000064e+01
-3.680000000000000160e+00
-4.528000000000000114e+01
-4.654999999999999716e+01
6.490000000000000213e+00
-1.678999999999999915e+01
-2.473999999999999844e+01
3.511999999999999744e+01
1.330000000000000071e+01
-2.776999999999999957e+01
-2.689999999999999858e+01
-1.248000000000000043e+01
3.850999999999999801e+01
-1.969999999999999973e+00
-2.087000000000000099e+01
-3.599999999999999867e-01
1.034999999999999964e+01
6.450000000000000178e+00
-2.709999999999999964e+00
2.649999999999999911e+00
-3.892999999999999972e+01
-3.361999999999999744e+01
5.703999999999999915e+01
1.580000000000000071e+00
-2.378000000000000114e+01
4.750000000000000000e+00
3.126000000000000156e+01
-7.530000000000000249e+00
-1.785999999999999943e+01
-1.680000000000000071e+01
1.966000000000000014e+01
1.723000000000000043e+01
2.003999999999999915e+01
6.737000000000000455e+01
-4.467000000000000171e+01
-1.567999999999999972e+01
4.386999999999999744e+01
6.157000000000000028e+01
4.175999999999999801e+01
-4.164000000000000057e+01
-6.904000000000000625e+01
2.857000000000000028e+01
-4.724000000000000199e+01
-2.123999999999999844e+01
-8.462000000000000455e+01
-5.528999999999999915e+01
3.304999999999999716e+01
1.547299999999999898e+02
-1.200400000000000063e+02
6.321000000000000085e+01
2.421000000000000085e+01
3.460999999999999943e+01
9.309000000000000341e+01
8.034999999999999432e+01
-8.310000000000000497e+00
-5.463000000000000256e+01
-1.576999999999999957e+01
2.785000000000000142e+01
-2.153000000000000114e+01
-1.505000000000000071e+01
5.131000000000000227e+01
2.220000000000000195e+00
-2.589999999999999858e+01
-6.692000000000000171e+01
-5.965999999999999659e+01
-9.339999999999999858e+00
8.512999999999999545e+01
4.707000000000000028e+01
-2.278000000000000114e+01
-2.614000000000000057e+01
1.563000000000000078e+01
4.378999999999999915e+01
-1.552999999999999936e+01
-1.250000000000000000e+00
3.200000000000000067e-01
-3.910000000000000142e+01
-3.578000000000000114e+01
1.828000000000000114e+01
2.939999999999999947e+00
5.642999999999999972e+01
-2.209999999999999964e+00
4.307000000000000028e+01
9.789999999999999147e+00
-3.900000000000000000e+01
3.422999999999999687e+01
4.849999999999999645e+00
-6.082000000000000028e+01
6.339999999999999858e+01
1.156000000000000050e+01
-1.385999999999999943e+01
-3.114000000000000057e+01
-2.832999999999999829e+01
-1.402500000000000000e+02
-1.210000000000000000e+02
-5.560000000000000142e+01
4.793100000000000023e+02
1.652899999999999920e+02
-4.982400000000000091e+02
4.392200000000000273e+02
9.131999999999999318e+01
-2.250600000000000023e+02
-2.390800000000000125e+02
-2.103600000000000136e+02
3.706700000000000159e+02
-6.712000000000000455e+01
-1.398899999999999864e+02
-1.938799999999999955e+02
1.635000000000000142e+01
6.275999999999999801e+01
2.364999999999999858e+01
5.150000000000000000e+01
-1.186800000000000068e+02
-2.398999999999999844e+01
3.931000000000000227e+01
-1.607999999999999829e+01
-5.919999999999999929e+00
8.150000000000000355e+00
1.637999999999999901e+01
1.191999999999999993e+01
-4.410000000000000142e+00
3.993999999999999773e+01
-1.405999999999999943e+02
-4.199000000000000199e+01
3.425000000000000000e+01
-5.865999999999999659e+01
-2.816000000000000014e+01
3.843999999999999773e+01
2.682000000000000028e+01
-2.305000000000000071e+01
7.179999999999999716e+00
-5.759999999999999787e+00
-7.959999999999999964e+00
-1.764000000000000057e+01
2.051999999999999957e+01
3.925000000000000000e+01
-1.091000000000000014e+01
9.519999999999999574e+00
-1.307000000000000028e+01
-1.685000000000000142e+01
6.549999999999999822e+00
1.081000000000000050e+01
-2.330000000000000071e+00
-2.490000000000000213e+00
9.800000000000000711e+00
3.189999999999999947e+00
-6.540000000000000036e+00
-5.990000000000000213e+00
-5.400000000000000355e-01
9.619999999999999218e+00
4.950000000000000178e+00
7.209999999999999964e+00
-1.007000000000000028e+01
2.379999999999999893e+00
5.089999999999999858e+00
-8.820000000000000284e+00
-1.328999999999999915e+01
-1.159999999999999920e+00
1.119999999999999929e+01
-5.010000000000000142e+01
-2.505999999999999872e+01
1.962000000000000099e+01
6.314000000000000057e+01
2.323999999999999844e+01
-3.048999999999999844e+01
1.563000000000000078e+01
1.296000000000000085e+01
-1.732000000000000028e+01
1.582000000000000028e+01
2.750000000000000000e+00
-4.385000000000000142e+01
3.596000000000000085e+01
-4.909000000000000341e+01
6.750000000000000000e+00
2.753999999999999915e+01
-1.246000000000000085e+01
1.642999999999999972e+01
3.534000000000000341e+01
1.256500000000000057e+02
-1.606299999999999955e+02
-7.331999999999999318e+01
-1.533100000000000023e+02
5.102000000000000313e+01
-1.318199999999999932e+02
-2.900000000000000000e+01
-6.182000000000000028e+01
1.225499999999999972e+02
-8.504000000000000625e+01
1.754600000000000080e+02
-5.860000000000000320e+00
-1.594999999999999929e+01
-1.654300000000000068e+02
-6.414000000000000057e+01
1.717000000000000171e+01
3.040000000000000036e+00
2.462999999999999901e+01
4.467999999999999972e+01
-1.064399999999999977e+02
-7.530000000000000249e+00
-8.101000000000000512e+01
1.780099999999999909e+02
-1.826999999999999957e+01
1.729799999999999898e+02
2.721999999999999886e+01
1.525699999999999932e+02
-2.190200000000000102e+02
-3.442999999999999972e+01
8.015999999999999659e+01
-9.820999999999999375e+01
-1.607700000000000102e+02
-2.469999999999999929e+01
5.790999999999999659e+01
5.335999999999999943e+01
-7.268000000000000682e+01
6.917000000000000171e+01
-7.489000000000000057e+01
-2.232999999999999829e+01
6.093999999999999773e+01
-1.082000000000000028e+01
-1.866000000000000014e+01
-5.302000000000000313e+01
1.812299999999999898e+02
-1.431200000000000045e+02
2.580000000000000071e+01
2.581299999999999955e+02
2.124699999999999989e+02
-1.220000000000000000e+02
-1.627100000000000080e+02
-7.776999999999999602e+01
-4.500999999999999801e+01
-9.740000000000000213e+00
-1.582000000000000028e+01
-8.009999999999999787e+00
-3.600000000000000089e+00
-1.352999999999999936e+01
-4.321999999999999886e+01
-9.890000000000000568e+00
-3.400000000000000244e-01
4.646999999999999886e+01
1.932999999999999829e+01
1.347000000000000064e+01
9.919999999999999929e+00
8.000000000000000444e-01
5.110000000000000320e+00
9.380000000000000782e+00
-4.360000000000000320e+00
-1.246000000000000085e+01
1.917000000000000171e+01
7.419999999999999929e+00
-1.149999999999999911e+00
9.499999999999999556e-01
3.540000000000000036e+00
-8.599999999999999867e-01
-3.410000000000000142e+00
2.729999999999999982e+00
1.719999999999999973e+00
-7.540000000000000036e+00
6.450000000000000178e+00
1.870000000000000107e+00
1.449999999999999956e+00
2.839999999999999858e+00
5.820000000000000284e+00
-2.200000000000000011e-01
-6.199999999999999956e-01
1.384999999999999964e+01
1.297000000000000064e+01
4.299999999999999933e-01
-3.270000000000000018e+00
-1.017999999999999972e+01
-1.278999999999999915e+01
-1.373000000000000043e+01
1.600000000000000033e-01
-3.800000000000000044e-01
-1.449999999999999956e+00
3.910000000000000142e+00
5.860000000000000320e+00
1.909999999999999920e+00
-4.910000000000000142e+00
-2.500000000000000000e-01
5.950000000000000178e+00
1.350000000000000089e+00
-3.160000000000000142e+00
5.559999999999999609e+00
2.160000000000000142e+00
2.200000000000000011e-01
-3.560000000000000053e+00
-6.999999999999999556e-01
2.500000000000000000e+00
-8.130000000000000782e+00
5.600000000000000533e-01
1.050000000000000044e+00
-2.459999999999999964e+00
-1.900000000000000022e-01
4.700000000000000178e+00
1.700000000000000122e-01
-9.009999999999999787e+00
4.500000000000000111e-01
2.899999999999999911e+00
-3.850000000000000089e+00
-2.660000000000000142e+00
8.419999999999999929e+00
4.669999999999999929e+00
6.099999999999999867e-01
3.699999999999999956e-01
-5.650000000000000355e+00
-9.449999999999999289e+00
1.500000000000000000e+00
3.850000000000000089e+00
-4.179999999999999716e+00
-2.049999999999999822e+00
7.000000000000000666e-02
-1.830000000000000071e+00
-4.660000000000000142e+00
3.589999999999999858e+00
4.000000000000000083e-02
-4.370000000000000107e+00
7.500000000000000000e-01
3.819999999999999840e+00
-1.330000000000000071e+00
-3.399999999999999911e+00
6.059999999999999609e+00
3.959999999999999964e+00
-1.199999999999999956e-01
6.719999999999999751e+00
3.740000000000000213e+00
-5.480000000000000426e+00
-9.339999999999999858e+00
-2.700000000000000178e+00
-4.030000000000000249e+00
-6.700000000000000178e+00
4.599999999999999645e+00
6.730000000000000426e+00
1.921999999999999886e+01
-3.590999999999999659e+01
-4.404999999999999716e+01
1.060999999999999943e+01
2.178999999999999915e+01
5.669999999999999929e+00
1.148000000000000043e+01
7.000000000000000666e-02
2.540000000000000036e+00
7.030000000000000249e+00
-3.709999999999999964e+00
-1.194999999999999929e+01
7.179999999999999716e+00
7.269999999999999574e+00
-6.549999999999999822e+00
-1.072000000000000064e+01
1.000000000000000021e-02
-8.179999999999999716e+00
-9.289999999999999147e+00
5.100000000000000089e-01
1.110000000000000098e+00
-9.400000000000000355e+00
1.360000000000000098e+00
7.719999999999999751e+00
3.729999999999999982e+00
-1.675000000000000000e+01
3.000000000000000000e+00
4.990000000000000213e+00
3.209999999999999964e+00
-1.094999999999999929e+01
-4.950000000000000178e+00
-2.430000000000000071e+01
-3.688000000000000256e+01
-8.279999999999999361e+00
1.798300000000000125e+02
-7.043000000000000682e+01
-4.120000000000000284e+01
-6.370000000000000107e+00
1.481200000000000045e+02
-2.418799999999999955e+02
-2.186399999999999864e+02
3.467599999999999909e+02
8.334000000000000341e+01
-1.296000000000000085e+01
1.570800000000000125e+02
-2.809599999999999795e+02
5.017000000000000171e+01
3.425999999999999801e+01
-1.975000000000000000e+01
4.889000000000000057e+01
-1.705999999999999872e+01
-1.189000000000000057e+01
7.299999999999999822e+00
-1.573000000000000043e+01
1.812000000000000099e+01
2.569999999999999840e+00
-1.327999999999999936e+01
-4.428999999999999915e+01
-8.000000000000000444e-01
2.728000000000000114e+01
-7.200000000000000178e+00
-1.102999999999999936e+01
-4.111999999999999744e+01
2.528999999999999915e+01
-6.360000000000000320e+00
7.940999999999999659e+01
-6.909000000000000341e+01
-3.304999999999999716e+01
-1.980200000000000102e+02
1.175799999999999983e+02
2.051999999999999957e+01
-3.231000000000000227e+01
-1.090000000000000080e+00
1.659999999999999920e+00
-6.080000000000000071e+00
-1.460999999999999943e+01
1.651000000000000156e+01
-7.199999999999999734e-01
-1.013000000000000078e+01
-3.300999999999999801e+01
-1.463000000000000078e+01
9.210000000000000853e+00
5.574000000000000199e+01
9.750000000000000000e+00
-5.290000000000000036e+00
-8.449999999999999289e+00
-8.429999999999999716e+00
4.299999999999999822e+00
2.669999999999999929e+00
-1.540000000000000036e+00
2.000000000000000000e+00
2.970000000000000195e+00
2.140000000000000124e+00
3.370000000000000107e+00
-3.189999999999999947e+00
-2.899999999999999911e+00
-1.325999999999999979e+01
3.939999999999999947e+00
3.142000000000000171e+01
8.265000000000000568e+01
-1.350999999999999979e+01
-1.836399999999999864e+02
1.017300000000000040e+02
5.247999999999999687e+01
5.734000000000000341e+01
5.992999999999999972e+01
-8.076000000000000512e+01
-1.140999999999999943e+02
-4.332999999999999829e+01
3.026999999999999957e+01
9.792000000000000171e+01
-1.760699999999999932e+02
8.818000000000000682e+01
2.573999999999999844e+01
-3.660999999999999943e+01
-3.236999999999999744e+01
3.407999999999999829e+01
1.926000000000000156e+01
2.496999999999999886e+01
-4.478999999999999915e+01
-5.050999999999999801e+01
4.253000000000000114e+01
4.014000000000000057e+01
-4.053000000000000114e+01
-9.785999999999999943e+01
1.514399999999999977e+02
6.901000000000000512e+01
-9.254999999999999716e+01
1.992000000000000171e+01
2.207999999999999829e+01
-1.683999999999999986e+01
-2.953000000000000114e+01
-2.729999999999999982e+00
1.376999999999999957e+01
-1.165000000000000036e+01
-8.310000000000000497e+00
2.959999999999999964e+00
5.549999999999999822e+00
-3.779999999999999805e+00
4.030000000000000249e+00
3.470000000000000195e+00
-1.649999999999999911e+00
-8.800000000000000711e+00
1.929999999999999938e+00
4.580000000000000071e+00
-1.000000000000000021e-02
-3.209999999999999964e+00
3.439999999999999947e+00
2.470000000000000195e+00
-2.319999999999999840e+00
-3.669999999999999929e+00
4.330000000000000071e+00
-6.019999999999999574e+00
-1.131000000000000050e+01
1.031000000000000050e+01
1.371000000000000085e+01
6.379999999999999893e+00
1.814999999999999858e+01
4.782000000000000028e+01
-1.234999999999999964e+01
-9.654999999999999716e+01
4.929999999999999716e+01
-1.929999999999999938e+00
-3.350000000000000000e+01
-3.903000000000000114e+01
7.948999999999999488e+01
7.500000000000000000e+00
-1.826999999999999957e+01
-2.700000000000000178e-01
3.799999999999999822e+00
-4.349999999999999645e+00
6.269999999999999574e+00
1.513000000000000078e+01
6.790000000000000036e+00
2.166000000000000014e+01
3.033999999999999986e+01
3.907000000000000028e+01
-4.803999999999999915e+01
-1.087199999999999989e+02
-5.571000000000000085e+01
-3.096999999999999886e+01
6.320000000000000284e+01
1.277600000000000051e+02
4.414999999999999858e+01
-3.039999999999999858e+01
-2.144499999999999886e+02
8.189999999999999503e+00
-3.077699999999999818e+02
2.971800000000000068e+02
-6.278999999999999915e+01
-3.782000000000000028e+01
5.975999999999999801e+01
6.500000000000000000e+01
-2.980999999999999872e+01
-1.835999999999999943e+01
-1.898000000000000043e+01
1.516000000000000014e+01
1.244999999999999929e+01
2.139999999999999858e+01
-4.799999999999999822e-01
-8.990000000000000213e+00
1.555000000000000071e+01
5.549000000000000199e+01
5.160000000000000142e+00
-1.065300000000000011e+02
2.171000000000000085e+01
2.139999999999999858e+01
2.951000000000000156e+01
-6.599999999999999645e+00
-2.178000000000000114e+01
-5.639999999999999680e+00
-2.048999999999999844e+01
4.995000000000000284e+01
-5.480000000000000426e+00
-2.891000000000000014e+01
4.053999999999999915e+01
-1.473000000000000043e+01
-5.759999999999999787e+00
5.360000000000000320e+00
7.259999999999999787e+00
1.030000000000000027e+00
-9.200000000000000400e-01
-2.899999999999999911e+00
-7.750000000000000000e+00
7.600000000000000089e-01
1.344999999999999929e+01
3.580000000000000071e+00
-7.080000000000000071e+00
8.000000000000000444e-01
-4.200000000000000178e+00
-5.870000000000000107e+00
-3.699999999999999956e-01
2.779999999999999805e+00
-2.100000000000000089e+00
-4.299999999999999933e-01
8.750000000000000000e+00
5.129999999999999893e+00
-5.639999999999999680e+00
-1.096000000000000085e+01
2.000000000000000042e-02
-6.199999999999999956e-01
-4.969999999999999751e+00
3.160000000000000142e+00
5.099999999999999645e+00
-8.669999999999999929e+00
6.600000000000000311e-01
4.549999999999999822e+00
-1.729999999999999982e+00
-2.029999999999999805e+00
-1.700000000000000122e-01
-1.208000000000000007e+01
3.203999999999999915e+01
1.183000000000000007e+01
-6.309999999999999609e+00
-2.126999999999999957e+01
-1.220100000000000051e+02
-8.000000000000000000e+00
1.980699999999999932e+02
-7.329000000000000625e+01
-1.100999999999999943e+02
-1.440800000000000125e+02
5.628999999999999915e+01
1.572500000000000000e+02
4.854999999999999716e+01
-2.149399999999999977e+02
1.476999999999999957e+01
1.547000000000000064e+01
2.589999999999999858e+01
-3.950000000000000178e+00
-1.530000000000000071e+01
7.120999999999999375e+01
2.408999999999999986e+01
-8.179999999999999716e+00
1.064000000000000057e+01
-5.504999999999999716e+01
-7.673999999999999488e+01
-1.033700000000000045e+02
-3.657599999999999909e+02
2.012899999999999920e+02
1.250100000000000051e+02
-4.190000000000000391e+00
-2.228000000000000114e+01
1.061999999999999922e+01
8.900000000000000133e-01
-2.860000000000000142e+01
9.310000000000000497e+00
2.609999999999999876e+00
-9.380000000000000782e+00
-1.870000000000000107e+00
2.287000000000000099e+01
1.047000000000000064e+01
3.489999999999999858e+01
6.318999999999999773e+01
-1.860600000000000023e+02
3.367000000000000171e+01
2.078999999999999915e+01
-6.531000000000000227e+01
-8.145000000000000284e+01
2.330000000000000000e+02
7.279999999999999716e+01
-1.083999999999999986e+01
-3.910000000000000142e+00
1.699999999999999956e+00
9.750000000000000000e+00
-1.685000000000000142e+01
4.360000000000000320e+00
3.374000000000000199e+01
7.967000000000000171e+01
9.223000000000000398e+01
-1.301999999999999886e+02
1.027999999999999936e+01
1.177999999999999936e+01
1.887999999999999901e+01
2.114000000000000057e+01
-6.759999999999999787e+00
-2.051999999999999957e+01
1.023000000000000043e+01
3.856000000000000227e+01
-6.589999999999999858e+00
-5.854999999999999716e+01
1.189999999999999947e+00
1.108999999999999986e+01
-1.757999999999999829e+01
1.389999999999999902e+00
1.173000000000000043e+01
-2.450000000000000178e+00
-1.816000000000000014e+01
8.490000000000000213e+00
1.840000000000000080e+00
-1.202999999999999936e+01
-3.436999999999999744e+01
1.675000000000000000e+01
1.607000000000000028e+01
3.729999999999999982e+00
-5.000000000000000278e-02
4.570000000000000284e+00
1.889999999999999902e+00
9.800000000000000711e+00
5.674000000000000199e+01
-1.152800000000000011e+02
-3.286999999999999744e+01
1.673999999999999844e+01
1.400000000000000000e+01
-1.452999999999999936e+01
4.967999999999999972e+01
3.001000000000000156e+01
-7.681000000000000227e+01
-2.726000000000000156e+01
3.659000000000000341e+01
1.989000000000000057e+01
3.795000000000000284e+01
-2.178999999999999915e+01
-1.306000000000000050e+01
-5.360000000000000320e+00
1.649999999999999911e+00
7.200000000000000178e+00
-5.759999999999999787e+00
-5.120000000000000107e+00
-9.949999999999999289e+00
1.894999999999999929e+01
2.055000000000000071e+01
-3.700000000000000178e+00
-9.012000000000000455e+01
4.099999999999999645e+00
5.400999999999999801e+01
5.371999999999999886e+01
-7.950000000000000178e+00
-4.567000000000000171e+01
-5.910000000000000142e+00
3.557000000000000028e+01
-5.392999999999999972e+01
-1.201999999999999957e+01
1.155000000000000071e+01
8.859999999999999432e+00
-1.989999999999999991e+00
-1.013000000000000078e+01
8.029999999999999361e+00
6.549999999999999822e+00
-1.156000000000000050e+01
9.230000000000000426e+00
1.755000000000000071e+01
-6.259999999999999787e+00
1.719999999999999973e+00
6.959999999999999964e+00
-3.799999999999999822e+00
2.839999999999999858e+00
1.896999999999999886e+01
-9.699999999999999734e-01
-1.953000000000000114e+01
-4.240000000000000213e+00
5.899999999999999689e-01
8.410000000000000142e+00
-7.639999999999999680e+00
1.976000000000000156e+01
2.526000000000000156e+01
-1.101999999999999957e+01
-3.342000000000000171e+01
-2.391000000000000014e+01
-1.217999999999999972e+01
-1.310999999999999943e+01
2.410999999999999943e+01
2.135999999999999943e+01
-1.744000000000000128e+01
-8.039999999999999147e+00
1.063000000000000078e+01
7.349999999999999645e+00
-1.134999999999999964e+01
-1.694000000000000128e+01
-7.660000000000000142e+00
3.042999999999999972e+01
1.639999999999999858e+01
1.980000000000000071e+01
2.120000000000000107e+00
-9.339999999999999858e+00
-1.000000000000000056e-01
6.110000000000000320e+00
2.919999999999999929e+00
-7.179999999999999716e+00
2.176000000000000156e+01
7.700000000000000178e+00
-4.450000000000000178e+00
2.126999999999999957e+01
-1.016999999999999993e+01
-5.059999999999999609e+00
-3.215999999999999659e+01
1.471000000000000085e+01
3.569999999999999840e+00
-1.161999999999999922e+01
-2.100000000000000089e+00
8.390000000000000568e+00
-6.549999999999999822e+00
-1.541999999999999993e+01
1.939999999999999858e+01
1.980999999999999872e+01
-8.419999999999999929e+00
7.199999999999999734e-01
2.560000000000000053e+00
8.119999999999999218e+00
-9.820000000000000284e+00
8.259999999999999787e+00
1.047000000000000064e+01
-3.879999999999999893e+00
-2.167000000000000171e+01
1.650000000000000000e+01
1.339000000000000057e+01
-1.342999999999999972e+01
-1.662000000000000099e+01
1.174000000000000021e+01
5.719999999999999751e+00
-4.500000000000000000e+00
2.100000000000000089e+00
1.064000000000000057e+01
1.040000000000000036e+00
-1.308999999999999986e+01
-6.410000000000000142e+00
7.150000000000000355e+00
-6.429999999999999716e+00
-1.450999999999999979e+01
1.249000000000000021e+01
1.771000000000000085e+01
-1.344999999999999929e+01
-1.729999999999999982e+00
6.360000000000000320e+00
-1.898999999999999844e+01
5.050999999999999801e+01
-7.910000000000000142e+00
4.480000000000000426e+00
4.280000000000000249e+00
-4.360000000000000320e+00
3.020000000000000018e+00
-1.183999999999999986e+01
-2.114999999999999858e+01
-2.782000000000000028e+01
1.258999999999999986e+01
9.499999999999999556e-01
9.140000000000000568e+00
2.392000000000000171e+01
1.431000000000000050e+01
-2.200000000000000011e-01
-5.419999999999999929e+00
-3.557999999999999829e+01
-1.384999999999999964e+01
-7.750000000000000000e+00
1.792000000000000171e+01
-4.299999999999999822e+00
5.750000000000000000e+00
3.759999999999999787e+00
-1.315000000000000036e+01
-1.808999999999999986e+01
1.375000000000000000e+01
7.099999999999999645e+00
1.275000000000000000e+01
1.882000000000000028e+01
1.114000000000000057e+01
-6.389999999999999680e+00
-1.107000000000000028e+01
1.128999999999999915e+01
1.491000000000000014e+01
1.057000000000000028e+01
-1.623000000000000043e+01
1.633999999999999986e+01
2.359999999999999876e+00
-2.200000000000000000e+01
-1.449999999999999956e+00
-2.959999999999999964e+00
-1.330000000000000071e+00
7.600000000000000089e-01
1.533999999999999986e+01
6.469999999999999751e+00
-1.101999999999999957e+01
1.492999999999999972e+01
1.078999999999999915e+01
-7.540000000000000036e+00
-2.000000000000000000e+00
-2.169999999999999929e+01
-9.199999999999999289e+00
-1.158000000000000007e+01
1.405000000000000071e+01
1.140000000000000036e+01
-7.719999999999999751e+00
1.293999999999999950e+01
1.350999999999999979e+01
-3.169999999999999929e+00
-1.138000000000000078e+01
1.080000000000000071e+01
-1.158999999999999986e+01
-4.592999999999999972e+01
-1.100000000000000006e-01
1.687000000000000099e+01
-2.410000000000000142e+00
-4.969999999999999751e+00
1.543999999999999950e+01
1.467999999999999972e+01
-1.698999999999999844e+01
-1.294999999999999929e+01
1.477999999999999936e+01
8.750000000000000000e+00
-1.780000000000000027e+00
1.110000000000000098e+00
-3.609999999999999876e+00
-4.500000000000000111e-01
9.080000000000000071e+00
1.292999999999999972e+01
5.950000000000000178e+00
-1.017999999999999972e+01
-3.770000000000000018e+00
1.400000000000000000e+01
-1.333999999999999986e+01
-2.600000000000000089e-01
1.175000000000000000e+01
4.025999999999999801e+01
-1.658999999999999986e+01
2.626000000000000156e+01
8.480000000000000426e+00
-3.602000000000000313e+01
-8.259999999999999787e+00
1.424000000000000021e+01
-2.120000000000000107e+00
-2.132000000000000028e+01
3.155000000000000071e+01
5.820000000000000284e+01
-5.521999999999999886e+01
-8.093999999999999773e+01
6.906999999999999318e+01
4.063000000000000256e+01
1.633999999999999986e+01
4.821999999999999886e+01
-6.717000000000000171e+01
4.809999999999999609e+00
1.096000000000000085e+01
-4.400000000000000355e+00
-1.399999999999999911e+00
-5.129999999999999893e+00
1.213000000000000078e+01
9.779999999999999361e+00
-1.114000000000000057e+01
1.546000000000000085e+01
1.980000000000000071e+01
2.144999999999999929e+01
-2.508999999999999986e+01
1.057000000000000028e+01
-1.710000000000000142e+01
-2.982000000000000028e+01
-1.456000000000000050e+01
-2.519000000000000128e+01
5.159000000000000341e+01
5.042000000000000171e+01
5.009999999999999787e+00
-1.233000000000000007e+01
-7.609000000000000341e+01
-3.715999999999999659e+01
-1.801000000000000156e+01
4.303000000000000114e+01
3.640000000000000124e+00
-3.553999999999999915e+01
-5.518999999999999773e+01
3.825999999999999801e+01
2.660000000000000142e+00
4.052000000000000313e+01
-1.105000000000000071e+01
9.580000000000000071e+00
-3.069999999999999840e+00
-8.859999999999999432e+00
4.242000000000000171e+01
-7.730000000000000426e+00
-1.989999999999999858e+01
-3.620000000000000107e+00
2.792999999999999972e+01
5.400000000000000355e+00
-2.830000000000000071e+00
2.053000000000000114e+01
5.209999999999999964e+00
-2.344999999999999929e+01
-4.719999999999999751e+00
-1.969999999999999973e+00
-1.250999999999999979e+01
6.236999999999999744e+01
-9.779000000000000625e+01
-1.167500000000000000e+02
2.185300000000000011e+02
4.832000000000000028e+01
-4.139999999999999858e+01
-2.580000000000000071e+00
-4.720000000000000284e+01
-1.358999999999999986e+01
2.833999999999999986e+01
-6.160999999999999943e+01
5.014999999999999858e+01
4.777000000000000313e+01
-2.623000000000000043e+01
-4.460999999999999943e+01
-3.531000000000000227e+01
5.219999999999999751e+00
1.776000000000000156e+01
1.141999999999999993e+01
-1.907000000000000028e+01
-5.000000000000000000e+00
-2.890000000000000124e+00
9.234999999999999432e+01
-5.190999999999999659e+01
-1.015000000000000036e+01
-9.200000000000000000e+01
1.138000000000000078e+01
2.500000000000000000e+01
1.063000000000000078e+01
8.039999999999999147e+00
-7.589999999999999858e+00
3.599999999999999867e-01
1.166999999999999993e+01
1.250999999999999979e+01
2.421000000000000085e+01
2.439999999999999947e+00
-1.398000000000000043e+01
-1.083999999999999986e+01
1.979999999999999982e+00
-5.879999999999999893e+00
-6.240000000000000213e+00
3.529999999999999805e+00
8.000000000000000000e+00
4.030000000000000249e+00
-1.090000000000000080e+00
8.779999999999999361e+00
4.599999999999999645e+00
-1.019999999999999929e+01
-1.449999999999999956e+00
3.080000000000000071e+00
-3.899999999999999911e+00
-8.689999999999999503e+00
6.919999999999999929e+00
4.049999999999999822e+00
-5.730000000000000426e+00
-2.540000000000000036e+00
2.058999999999999986e+01
4.249000000000000199e+01
6.060999999999999943e+01
7.019999999999999574e+00
1.882999999999999829e+01
-4.593999999999999773e+01
2.594000000000000128e+01
2.764000000000000057e+01
-3.971000000000000085e+01
-4.671999999999999886e+01
1.507199999999999989e+02
-1.499600000000000080e+02
2.189999999999999947e+00
2.594900000000000091e+02
-1.771500000000000057e+02
-1.947500000000000000e+02
1.282599999999999909e+02
1.215699999999999932e+02
6.904999999999999716e+01
-4.110999999999999943e+01
4.959999999999999964e+00
1.052800000000000011e+02
-5.660000000000000142e+01
-1.056000000000000050e+01
1.128999999999999915e+01
8.840000000000000568e+01
-1.784000000000000057e+02
1.120400000000000063e+02
2.287000000000000099e+01
-1.100000000000000089e+00
-1.753999999999999915e+01
4.075999999999999801e+01
2.096000000000000085e+01
-3.811999999999999744e+01
-1.366999999999999993e+01
1.528999999999999915e+01
3.946999999999999886e+01
-1.846000000000000085e+01
-6.959999999999999964e+00
1.978999999999999915e+01
5.578000000000000114e+01
-8.100000000000000000e+01
-2.557999999999999829e+01
-1.812000000000000099e+01
2.864000000000000057e+01
-4.843999999999999773e+01
3.295000000000000284e+01
2.289000000000000057e+01
2.859999999999999876e+00
-1.001999999999999957e+01
6.879999999999999716e+01
5.740999999999999659e+01
-2.226999999999999957e+01
7.240000000000000213e+00
5.799999999999999600e-01
-3.228000000000000114e+01
-6.690000000000000568e+01
3.645000000000000284e+01
4.034000000000000341e+01
-4.078000000000000114e+01
-8.980000000000000426e+00
2.203999999999999915e+01
9.919999999999999929e+00
-7.339999999999999858e+00
-1.389999999999999902e+00
-5.950000000000000178e+00
-1.339000000000000057e+01
9.250000000000000000e+00
1.623000000000000043e+01
-5.440000000000000391e+00
-1.213000000000000078e+01
1.323000000000000043e+01
3.810000000000000053e+00
-1.469999999999999929e+01
1.129999999999999893e+00
1.757000000000000028e+01
3.600000000000000089e+00
-1.364000000000000057e+01
1.242999999999999972e+01
7.190000000000000391e+00
-1.084999999999999964e+01
-2.109999999999999876e+00
1.251999999999999957e+01
6.400000000000000133e-01
-2.328000000000000114e+01
1.093999999999999950e+01
1.189000000000000057e+01
-7.099999999999999645e+00
-1.200999999999999979e+01
1.393999999999999950e+01
2.950000000000000178e+00
-1.953999999999999915e+01
4.549999999999999822e+00
1.621999999999999886e+01
-7.209999999999999964e+00
-1.710000000000000142e+01
1.655999999999999872e+01
9.330000000000000071e+00
-1.230000000000000071e+01
-7.230000000000000426e+00
1.669999999999999929e+01
3.569999999999999840e+00
-1.333000000000000007e+01
1.780000000000000027e+00
1.171000000000000085e+01
-7.490000000000000213e+00
-2.010000000000000142e+01
1.476999999999999957e+01
8.339999999999999858e+00
-7.799999999999999822e+00
2.189999999999999947e+00
1.698999999999999844e+01
-2.455000000000000071e+01
-3.539000000000000057e+01
1.187500000000000000e+02
4.218999999999999773e+01
-7.534999999999999432e+01
-1.289000000000000057e+01
5.246000000000000085e+01
3.396999999999999886e+01
3.460000000000000142e+01
1.340500000000000114e+02
-8.910999999999999943e+01
-2.657300000000000182e+02
3.194999999999999929e+01
5.485999999999999943e+01
1.381000000000000050e+01
7.240000000000000213e+00
3.200999999999999801e+01
8.779000000000000625e+01
-3.367999999999999972e+01
-1.626200000000000045e+02
5.371000000000000085e+01
9.354000000000000625e+01
7.265000000000000568e+01
8.220000000000000639e+00
-7.193000000000000682e+01
-1.068900000000000006e+02
2.421500000000000057e+02
-4.122999999999999687e+01
-1.129999999999999893e+00
-2.078000000000000114e+01
-9.300000000000000711e+00
1.334999999999999964e+01
-5.480000000000000426e+00
-1.607999999999999829e+01
-1.102999999999999936e+01
1.535999999999999943e+01
1.125000000000000000e+01
4.419999999999999929e+00
-5.799999999999999822e+00
1.608999999999999986e+01
1.084999999999999964e+01
-5.110000000000000320e+00
-1.644000000000000128e+01
5.589999999999999858e+00
1.732000000000000028e+01
1.415000000000000036e+01
-5.889999999999999680e+00
1.281100000000000136e+02
7.628000000000000114e+01
-3.098199999999999932e+02
1.390900000000000034e+02
7.425000000000000000e+01
1.684000000000000057e+02
6.299999999999999822e+00
-2.631800000000000068e+02
-2.141000000000000014e+01
6.668000000000000682e+01
1.020000000000000018e+00
1.284999999999999964e+01
4.217000000000000171e+01
-9.917000000000000171e+01
4.419999999999999929e+00
1.823999999999999844e+01
2.117000000000000171e+01
-6.570000000000000284e+00
-3.620000000000000107e+00
3.430000000000000160e+00
3.245000000000000284e+01
2.405000000000000071e+01
-6.804000000000000625e+01
5.679999999999999716e+01
-1.875000000000000000e+01
9.050000000000000711e+00
8.919999999999999929e+00
-9.089999999999999858e+00
-2.512000000000000099e+01
2.417999999999999972e+01
-6.389999999999999680e+00
-5.311999999999999744e+01
3.572999999999999687e+01
8.910000000000000142e+00
1.124000000000000021e+01
-4.554999999999999716e+01
-1.494399999999999977e+02
3.748799999999999955e+02
-1.555399999999999920e+02
6.456000000000000227e+01
-7.254999999999999716e+01
-2.446000000000000085e+01
-3.779999999999999805e+00
-1.169999999999999929e+01
5.839999999999999858e+00
6.780000000000000249e+00
3.720000000000000195e+00
1.746000000000000085e+01
1.478999999999999915e+01
4.429999999999999716e+00
-1.605999999999999872e+01
2.760000000000000142e+01
1.067999999999999972e+01
3.709999999999999964e+00
1.598000000000000043e+01
3.971000000000000085e+01
5.277000000000000313e+01
-4.729999999999999716e+01
-5.724000000000000199e+01
9.820000000000000284e+00
1.601200000000000045e+02
-2.896000000000000085e+01
2.426999999999999957e+01
-3.511999999999999744e+01
-8.618000000000000682e+01
5.939000000000000057e+01
4.730000000000000426e+00
-6.339999999999999858e+00
4.469999999999999751e+00
-4.661999999999999744e+01
3.213000000000000256e+01
6.179999999999999716e+00
-4.519999999999999574e+00
-7.530000000000000249e+00
1.042999999999999972e+01
5.620000000000000107e+00
-9.130000000000000782e+00
1.183000000000000007e+01
6.019999999999999574e+00
-7.950000000000000178e+00
-4.250000000000000000e+00
7.650000000000000355e+00
3.299999999999999822e+00
-1.475000000000000000e+01
2.290000000000000036e+00
5.179999999999999716e+00
-3.220000000000000195e+00
-4.500000000000000111e-01
8.150000000000000355e+00
-3.200000000000000178e+00
-1.002999999999999936e+01
-9.009999999999999787e+00
4.580000000000000071e+00
1.146000000000000085e+01
1.692000000000000171e+01
3.821999999999999886e+01
1.937000000000000099e+01
-6.518000000000000682e+01
-1.773000000000000043e+01
1.378999999999999915e+01
2.080000000000000071e+00
-1.819000000000000128e+01
3.970000000000000195e+00
1.232000000000000028e+01
-7.269999999999999574e+00
-2.989000000000000057e+01
3.014999999999999858e+01
1.862999999999999901e+01
-9.669999999999999929e+00
-1.607999999999999829e+01
-5.950000000000000178e+00
-5.759999999999999787e+00
-7.290000000000000036e+00
1.628999999999999915e+01
2.870000000000000107e+00
-1.578999999999999915e+01
9.070000000000000284e+00
1.160999999999999943e+01
-4.679999999999999716e+00
-5.400000000000000355e+00
1.325999999999999979e+01
2.939999999999999947e+00
-9.769999999999999574e+00
5.200000000000000178e+00
9.320000000000000284e+00
-5.169999999999999929e+00
-1.128999999999999915e+01
-8.849999999999999645e+00
3.270000000000000018e+00
1.280000000000000071e+01
1.292999999999999972e+01
8.169999999999999929e+00
-4.580000000000000071e+00
-3.250000000000000000e+00
4.622999999999999687e+01
2.290000000000000036e+00
-2.416000000000000014e+01
-2.762000000000000099e+01
-2.479999999999999982e+00
3.300000000000000155e-01
-1.455000000000000071e+01
1.840000000000000080e+00
5.809999999999999609e+00
-2.770000000000000018e+00
1.139999999999999902e+00
1.163000000000000078e+01
-1.060000000000000053e+00
-1.411999999999999922e+01
9.240000000000000213e+00
1.216999999999999993e+01
-5.629999999999999893e+00
-1.580000000000000071e+01
3.299999999999999822e+00
1.891000000000000014e+01
2.496999999999999886e+01
4.875999999999999801e+01
-2.726000000000000156e+01
-1.533999999999999986e+01
1.457000000000000028e+01
-5.421999999999999886e+01
-4.378000000000000114e+01
-3.736999999999999744e+01
3.123000000000000043e+01
2.437999999999999901e+01
1.028999999999999915e+01
-7.009999999999999787e+00
5.000000000000000000e+00
-1.620000000000000107e+00
-7.199999999999999734e-01
1.283999999999999986e+01
9.320000000000000284e+00
-5.019999999999999574e+00
-1.564000000000000057e+01
9.109999999999999432e+00
1.907999999999999829e+01
1.059999999999999964e+01
-4.403000000000000114e+01
1.667999999999999972e+01
3.586999999999999744e+01
-2.373000000000000043e+01
-1.599000000000000021e+01
-1.030000000000000027e+00
4.764999999999999858e+01
-4.382000000000000028e+01
-4.164000000000000057e+01
1.708999999999999986e+01
-8.140000000000000568e+00
3.020000000000000018e+00
1.832000000000000028e+01
6.919999999999999929e+00
-6.349999999999999645e+00
-9.869999999999999218e+00
8.820000000000000284e+00
2.207000000000000028e+01
6.363000000000000256e+01
-1.417999999999999972e+01
-4.375999999999999801e+01
-9.984000000000000341e+01
1.216000000000000014e+01
2.475000000000000000e+01
2.064999999999999858e+01
-6.339999999999999858e+01
1.331000000000000050e+01
3.742999999999999972e+01
1.332000000000000028e+01
-1.200999999999999979e+01
-2.500000000000000000e-01
-9.169999999999999929e+00
5.629999999999999893e+00
1.662999999999999901e+01
1.607999999999999829e+01
-2.155000000000000071e+01
1.876999999999999957e+01
6.169999999999999929e+00
-2.819999999999999840e+00
-1.208999999999999986e+01
1.300000000000000044e-01
1.583000000000000007e+01
1.653999999999999915e+01
2.629999999999999893e+00
-1.091000000000000014e+01
-1.166999999999999993e+01
-9.640000000000000568e+00
-9.500000000000000000e+00
4.207999999999999829e+01
2.126999999999999957e+01
-7.804000000000000625e+01
-1.499000000000000021e+01
4.592999999999999972e+01
4.849999999999999645e+00
-2.370000000000000107e+00
-3.580000000000000071e+00
1.909999999999999920e+00
1.778999999999999915e+01
-3.300000000000000155e-01
-1.176999999999999957e+01
-2.076999999999999957e+01
-5.370000000000000107e+00
1.365000000000000036e+01
5.500000000000000000e+00
2.844000000000000128e+01
-7.589999999999999858e+00
-3.472999999999999687e+01
-8.000000000000000000e+00
2.137000000000000099e+01
2.364999999999999858e+01
-1.198000000000000043e+01
1.168999999999999950e+01
-1.450999999999999979e+01
-2.903999999999999915e+01
-6.150000000000000355e+00
2.462999999999999901e+01
1.506000000000000050e+01
-2.444999999999999929e+01
-2.500000000000000000e+01
1.022000000000000064e+01
1.753000000000000114e+01
2.062000000000000099e+01
-6.750000000000000000e+00
-3.540999999999999659e+01
-4.888000000000000256e+01
6.135000000000000142e+01
5.914000000000000057e+01
-8.342000000000000171e+01
1.159999999999999964e+01
-5.382999999999999829e+01
4.125999999999999801e+01
-2.446999999999999886e+01
1.626000000000000156e+01
2.203999999999999915e+01
2.310000000000000053e+00
-1.217999999999999972e+01
1.980000000000000071e+01
-1.317999999999999972e+01
-1.732000000000000028e+01
8.400000000000000355e+00
1.343999999999999950e+01
-2.200000000000000011e-01
-5.620000000000000107e+00
8.119999999999999218e+00
2.470000000000000195e+00
-1.081000000000000050e+01
1.018999999999999950e+01
3.157999999999999829e+01
6.656000000000000227e+01
-4.182000000000000028e+01
5.021999999999999886e+01
1.368999999999999950e+01
-9.612000000000000455e+01
5.925999999999999801e+01
-4.600999999999999801e+01
-3.073999999999999844e+01
-1.992000000000000171e+01
-7.900000000000000355e+00
2.779999999999999805e+00
1.156000000000000050e+01
8.128000000000000114e+01
-4.265999999999999659e+01
-6.580000000000000071e+00
-9.939999999999999503e+00
1.020000000000000018e+00
-2.000000000000000000e+01
-3.643999999999999773e+01
1.583999999999999986e+01
1.472000000000000064e+01
-1.837000000000000099e+01
-3.338000000000000256e+01
3.720000000000000284e+01
1.522000000000000064e+01
6.030000000000000249e+00
8.942000000000000171e+01
1.284600000000000080e+02
-6.692000000000000171e+01
-7.159999999999999432e+01
-3.585000000000000142e+01
5.059999999999999609e+00
-2.885999999999999943e+01
-3.030999999999999872e+01
1.901999999999999957e+01
-1.870000000000000107e+00
-2.048999999999999844e+01
-4.546999999999999886e+01
-7.103000000000000114e+01
4.815999999999999659e+01
8.209000000000000341e+01
1.989999999999999858e+01
-6.610000000000000320e+00
2.098000000000000043e+01
6.540000000000000036e+00
-1.801000000000000156e+01
1.614999999999999858e+01
8.169999999999999929e+00
-9.740000000000000213e+00
3.080000000000000071e+00
1.964000000000000057e+01
3.080000000000000071e+00
-1.394999999999999929e+01
1.380000000000000071e+01
4.429999999999999716e+00
-9.960000000000000853e+00
-3.779999999999999805e+00
1.255000000000000071e+01
-2.589999999999999858e+00
-1.998999999999999844e+01
1.516999999999999993e+01
6.879999999999999893e+00
-1.348000000000000043e+01
-9.339999999999999858e+00
1.115000000000000036e+01
2.319999999999999840e+00
-1.133999999999999986e+01
3.870000000000000107e+00
8.660000000000000142e+00
-1.739999999999999991e+00
-1.221000000000000085e+01
1.293999999999999950e+01
-6.120000000000000107e+00
-1.933999999999999986e+01
2.392000000000000171e+01
1.832000000000000028e+01
-1.314000000000000057e+01
-5.060999999999999943e+01
1.284999999999999964e+01
2.110000000000000142e+01
-1.070000000000000062e+00
-6.400000000000000133e-01
1.097000000000000064e+01
-2.870000000000000107e+00
-5.980000000000000426e+00
-6.440000000000000391e+00
1.367999999999999972e+01
5.669999999999999929e+00
-1.563000000000000078e+01
2.959999999999999964e+00
1.310000000000000053e+00
-1.131000000000000050e+01
5.379999999999999893e+00
1.133999999999999986e+01
2.890000000000000124e+00
-2.060000000000000142e+01
9.439999999999999503e+00
1.138000000000000078e+01
-3.790000000000000036e+00
1.998999999999999844e+01
1.018100000000000023e+02
1.701000000000000156e+01
-7.201000000000000512e+01
-3.173000000000000043e+01
-1.496000000000000085e+01
-1.397000000000000064e+01
-2.379999999999999893e+00
-4.089999999999999858e+00
-1.277600000000000051e+02
3.660000000000000142e+01
5.061999999999999744e+01
4.261999999999999744e+01
-2.339999999999999858e+00
-9.189999999999999503e+00
-6.190000000000000391e+00
-4.530000000000000249e+00
6.599999999999999645e+00
-1.208000000000000007e+01
-2.355000000000000071e+01
-3.307000000000000028e+01
-1.696999999999999886e+01
-5.409000000000000341e+01
-1.053999999999999915e+01
5.106000000000000227e+01
4.857999999999999829e+01
2.385999999999999943e+01
-6.650000000000000355e+00
5.879999999999999893e+00
3.796000000000000085e+01
7.570000000000000284e+01
-2.366000000000000014e+01
-4.563000000000000256e+01
-1.957999999999999829e+01
-1.270799999999999983e+02
5.414999999999999858e+01
6.976999999999999602e+01
8.550000000000000711e+00
-2.162999999999999901e+01
-2.300000000000000100e-01
-5.740000000000000213e+00
-1.987999999999999901e+01
-1.410999999999999943e+01
1.352999999999999936e+01
3.300000000000000155e-01
-5.982000000000000028e+01
-8.537000000000000455e+01
1.503199999999999932e+02
5.674000000000000199e+01
3.225000000000000000e+01
-9.934999999999999432e+01
-8.046999999999999886e+01
-2.885999999999999943e+01
3.889000000000000057e+01
2.685999999999999943e+01
5.639999999999999680e+00
-1.208000000000000007e+01
5.397999999999999687e+01
3.954999999999999716e+01
-1.190000000000000036e+01
-1.410999999999999943e+01
1.209999999999999964e+00
4.967999999999999972e+01
1.628999999999999915e+01
1.948999999999999844e+01
1.150000000000000000e+01
2.459999999999999964e+00
2.200000000000000178e+00
-4.025999999999999801e+01
-2.239999999999999858e+01
-1.750000000000000000e+00
-1.167999999999999972e+01
3.267000000000000171e+01
3.064999999999999858e+01
7.396999999999999886e+01
-7.345999999999999375e+01
-7.709999999999999432e+01
-3.835000000000000142e+01
4.507999999999999829e+01
3.101000000000000156e+01
-1.534999999999999964e+01
-1.591000000000000014e+01
-1.732000000000000028e+01
1.416000000000000014e+01
1.476999999999999957e+01
3.191000000000000014e+01
3.757999999999999829e+01
-9.404999999999999716e+01
-1.605000000000000071e+01
7.610000000000000320e+00
8.269999999999999574e+00
2.983999999999999986e+01
2.583999999999999986e+01
-1.989999999999999858e+01
-7.010999999999999943e+01
1.655999999999999872e+01
1.217999999999999972e+01
-7.240000000000000213e+00
1.178999999999999915e+01
1.976000000000000156e+01
1.691000000000000014e+01
-2.220000000000000195e+00
1.169999999999999929e+01
6.245000000000000284e+01
8.379999999999999716e+01
-6.288000000000000256e+01
-6.295000000000000284e+01
-2.958999999999999986e+01
-5.090999999999999659e+01
-5.736999999999999744e+01
-1.391000000000000014e+01
4.360000000000000320e+00
2.939000000000000057e+01
2.569999999999999929e+01
1.958999999999999986e+01
6.950000000000000178e+00
4.209999999999999964e+00
4.400000000000000355e+00
1.340000000000000080e+00
-9.339999999999999858e+00
5.250000000000000000e+00
1.206000000000000050e+01
4.969999999999999751e+00
-8.779999999999999361e+00
1.024000000000000021e+01
3.649999999999999911e+00
-1.411999999999999922e+01
4.339999999999999858e+00
1.350000000000000000e+01
-3.800000000000000044e-01
-1.324000000000000021e+01
8.210000000000000853e+00
3.580000000000000071e+00
-5.849999999999999645e+00
1.265000000000000036e+01
4.050000000000000000e+01
7.715999999999999659e+01
-3.521000000000000085e+01
2.558999999999999986e+01
-7.554000000000000625e+01
-1.739999999999999858e+01
-2.885999999999999943e+01
3.759999999999999787e+00
-2.401999999999999957e+01
-2.696000000000000085e+01
-6.481999999999999318e+01
2.606600000000000250e+02
-2.453000000000000114e+01
1.612000000000000099e+01
2.870000000000000107e+00
-4.945000000000000284e+01
4.620000000000000107e+00
-5.331000000000000227e+01
5.500000000000000000e+00
-1.350000000000000089e+00
1.555000000000000071e+01
-7.990000000000000213e+00
-1.524000000000000021e+01
-4.660000000000000142e+00
1.140000000000000036e+01
-1.689999999999999858e+01
-2.594999999999999929e+01
9.980000000000000426e+00
1.592999999999999972e+01
-7.259999999999999787e+00
-2.919999999999999929e+00
2.779999999999999805e+00
2.740000000000000213e+00
4.709999999999999964e+00
1.502999999999999936e+01
-3.435000000000000142e+01
6.417000000000000171e+01
-4.080000000000000071e+00
-1.335999999999999943e+01
-2.203999999999999915e+01
-3.817000000000000171e+01
-5.084000000000000341e+01
3.321999999999999886e+01
1.987999999999999901e+01
9.470000000000000639e+00
-4.500000000000000000e+00
1.531000000000000050e+01
2.367000000000000171e+01
-1.571000000000000085e+01
-2.629999999999999893e+00
-1.580000000000000071e+00
-8.919999999999999929e+00
1.151999999999999957e+01
1.000000000000000056e-01
2.379999999999999893e+00
7.969999999999999751e+00
2.316000000000000014e+01
3.539000000000000057e+01
-8.670999999999999375e+01
2.858999999999999986e+01
1.713199999999999932e+02
-6.790000000000000568e+01
1.515999999999999943e+02
2.348999999999999844e+01
-8.085999999999999943e+01
4.570000000000000284e+01
4.397999999999999687e+01
3.515999999999999659e+01
-3.048000000000000043e+01
-2.653000000000000114e+01
1.208000000000000007e+01
-6.309999999999999609e+00
-2.398999999999999844e+01
4.480000000000000426e+00
7.099999999999999645e+00
1.760000000000000009e+00
-1.449999999999999956e+00
2.087000000000000099e+01
6.573000000000000398e+01
-1.374699999999999989e+02
4.343999999999999773e+01
-7.032999999999999829e+01
-9.282999999999999829e+01
7.045000000000000284e+01
5.914000000000000057e+01
5.846999999999999886e+01
3.207000000000000028e+01
-3.117999999999999972e+01
-4.339999999999999858e+01
-9.693000000000000682e+01
-1.258299999999999983e+02
9.840999999999999659e+01
3.728000000000000114e+01
-5.482999999999999829e+01
-7.120999999999999375e+01
1.220300000000000011e+02
1.149599999999999937e+02
2.339999999999999858e+00
-1.116599999999999966e+02
6.028000000000000114e+01
-3.249000000000000199e+01
-1.016999999999999993e+01
4.240000000000000213e+00
-1.074000000000000021e+01
-1.538000000000000078e+01
4.535999999999999943e+01
4.756000000000000227e+01
9.759999999999999787e+00
4.588000000000000256e+01
-5.559000000000000341e+01
-8.070000000000000284e+00
-4.980000000000000426e+00
-8.779999999999999361e+00
3.350000000000000089e+00
-6.719999999999999751e+00
1.007000000000000028e+01
1.348000000000000043e+01
-1.332000000000000028e+01
-4.379999999999999893e+00
9.349999999999999645e+00
-9.179999999999999716e+00
-1.732000000000000028e+01
1.241999999999999993e+01
4.509000000000000341e+01
-3.718999999999999773e+01
-5.578999999999999915e+01
2.862999999999999901e+01
-1.184999999999999964e+01
-5.478999999999999915e+01
1.753999999999999915e+01
-1.760999999999999943e+01
-1.200400000000000063e+02
1.215699999999999932e+02
5.168999999999999773e+01
-1.415600000000000023e+02
1.984499999999999886e+02
-3.044999999999999929e+01
-2.626999999999999957e+01
1.012699999999999960e+02
5.571999999999999886e+01
9.380000000000000782e+00
-4.160000000000000142e+00
-1.311999999999999922e+01
2.560000000000000053e+00
-1.166000000000000014e+01
1.932999999999999829e+01
-1.573000000000000043e+01
5.270000000000000284e+01
-4.914000000000000057e+01
1.717000000000000171e+01
-1.267999999999999972e+01
5.118999999999999773e+01
6.067999999999999972e+01
-5.089999999999999858e+01
-2.974300000000000068e+02
1.034899999999999949e+02
1.073499999999999943e+02
7.150000000000000355e+00
1.439999999999999947e+00
-3.518999999999999773e+01
-1.536999999999999922e+01
-3.324000000000000199e+01
-3.439999999999999947e+00
-1.450999999999999979e+01
3.150000000000000000e+01
4.264000000000000057e+01
1.459999999999999964e+01
-1.783999999999999986e+01
-4.846999999999999886e+01
2.317999999999999972e+01
5.099999999999999645e+00
-1.850000000000000089e+00
8.759999999999999787e+00
1.091999999999999993e+01
-3.509999999999999787e+00
-1.637999999999999901e+01
1.323000000000000043e+01
8.539999999999999147e+00
-8.689999999999999503e+00
-3.029999999999999805e+00
1.432000000000000028e+01
2.830000000000000071e+00
-1.923000000000000043e+01
8.070000000000000284e+00
8.410000000000000142e+00
-8.859999999999999432e+00
-1.480000000000000071e+01
-4.419999999999999929e+00
1.328999999999999915e+01
-2.890000000000000124e+00
-2.459999999999999964e+00
1.051999999999999957e+01
-1.409999999999999920e+00
-2.746999999999999886e+01
3.799999999999999822e+00
1.570000000000000062e+00
-1.819000000000000128e+01
1.134999999999999964e+01
1.442999999999999972e+01
-9.320000000000000284e+00
-2.896999999999999886e+01
7.271999999999999886e+01
3.381000000000000227e+01
-2.925000000000000000e+01
3.140000000000000124e+00
6.820000000000000284e+00
-2.982000000000000028e+01
-1.796000000000000085e+01
1.600000000000000000e+01
-9.720000000000000639e+00
8.210000000000000853e+00
1.907999999999999829e+01
-1.739999999999999991e+00
-9.339999999999999858e+00
-2.412000000000000099e+01
-7.730000000000000426e+00
5.821999999999999886e+01
9.490000000000000213e+00
5.309999999999999609e+00
-2.126999999999999957e+01
-8.599999999999999645e+00
-2.214000000000000057e+01
2.580000000000000071e+00
1.917000000000000171e+01
-3.310000000000000053e+00
-2.039000000000000057e+01
1.689999999999999947e+00
6.089999999999999858e+00
-5.879999999999999893e+00
-1.038000000000000078e+01
1.723999999999999844e+01
5.139999999999999680e+00
-1.008999999999999986e+01
-7.570000000000000284e+00
1.805000000000000071e+01
3.899999999999999911e+00
-1.898999999999999844e+01
7.099999999999999645e-01
1.536999999999999922e+01
-5.019999999999999574e+00
-1.753999999999999915e+01
1.000999999999999979e+01
8.970000000000000639e+00
-9.140000000000000568e+00
-7.480000000000000426e+00
1.435999999999999943e+01
6.230000000000000426e+00
-1.860000000000000142e+01
1.222000000000000064e+01
9.810000000000000497e+00
-8.640000000000000568e+00
-2.171000000000000085e+01
1.930000000000000071e+01
-2.439999999999999947e+00
-8.310000000000000497e+00
3.209999999999999964e+00
-2.991000000000000014e+01
4.017999999999999972e+01
2.012000000000000099e+01
1.479999999999999982e+00
-2.750000000000000000e+01
-3.128999999999999915e+01
7.221999999999999886e+01
1.776000000000000156e+01
-4.079999999999999716e+01
-1.413000000000000078e+01
-7.089999999999999858e+00
7.320000000000000284e+00
1.450999999999999979e+01
1.235999999999999943e+01
4.959999999999999964e+00
-2.519999999999999929e+01
-1.459999999999999964e+01
2.600000000000000089e-01
-4.870000000000000107e+00
-1.180000000000000071e+01
1.973999999999999844e+01
6.730000000000000426e+00
-1.407000000000000028e+01
5.820000000000000284e+00
7.040000000000000036e+00
-1.135999999999999943e+01
-1.283000000000000007e+01
2.037999999999999901e+01
1.614000000000000057e+01
-1.912999999999999901e+01
-1.639999999999999858e+01
1.757000000000000028e+01
3.250000000000000000e+00
-1.796999999999999886e+01
6.629999999999999893e+00
-3.620000000000000107e+00
3.799999999999999822e+00
3.457000000000000028e+01
1.889999999999999902e+00
-4.625999999999999801e+01
-4.969999999999999751e+00
1.785999999999999943e+01
-8.460000000000000853e+00
2.112999999999999901e+01
7.660000000000000142e+00
-1.148000000000000043e+01
-2.912000000000000099e+01
4.978999999999999915e+01
2.067000000000000171e+01
-1.285999999999999943e+01
1.060999999999999943e+01
-1.540000000000000036e+01
-8.179999999999999716e+00
-1.116999999999999993e+01
-2.923999999999999844e+01
3.286999999999999744e+01
2.262999999999999901e+01
-4.360000000000000320e+00
-1.141999999999999993e+01
-1.530000000000000027e+00
-1.819999999999999929e+01
-5.404999999999999716e+01
4.502000000000000313e+01
3.964999999999999858e+01
-2.589999999999999858e+01
-8.400000000000000355e+00
9.400000000000000355e+00
-1.050000000000000000e+01
-5.230000000000000426e+00
4.768999999999999773e+01
2.583999999999999986e+01
-2.410999999999999943e+01
-2.255999999999999872e+01
-1.570000000000000062e+00
-8.100000000000000533e-01
-3.132000000000000028e+01
-6.599999999999999645e+00
5.511999999999999744e+01
3.535999999999999943e+01
-2.685999999999999943e+01
-2.057000000000000028e+01
-5.722999999999999687e+01
4.992999999999999972e+01
-1.071000000000000085e+01
-8.465000000000000568e+01
3.427000000000000313e+01
-2.164999999999999858e+01
5.099999999999999645e+00
5.392000000000000171e+01
-2.105999999999999872e+01
-2.039999999999999858e+01
-1.880999999999999872e+01
1.646000000000000085e+01
1.621999999999999886e+01
1.521000000000000085e+01
-1.002999999999999936e+01
-3.105000000000000071e+01
4.353999999999999915e+01
6.860000000000000320e+00
-6.117999999999999972e+01
2.478000000000000114e+01
4.599999999999999645e+00
3.153999999999999915e+01
1.541999999999999993e+01
-7.849999999999999645e+00
-4.860000000000000320e+00
-1.173000000000000043e+01
-1.541000000000000014e+01
1.100000000000000006e-01
3.600999999999999801e+01
-1.198000000000000043e+01
-3.532000000000000028e+01
1.052999999999999936e+01
3.497999999999999687e+01
2.014999999999999858e+01
6.500000000000000000e+00
-3.051000000000000156e+01
-7.543000000000000682e+01
8.151000000000000512e+01
5.800999999999999801e+01
-2.894000000000000128e+01
-2.605000000000000071e+01
2.942999999999999972e+01
-4.940000000000000391e+00
-2.714000000000000057e+01
9.910000000000000142e+00
1.384999999999999964e+01
-7.830000000000000071e+00
-8.220000000000000639e+00
9.330000000000000071e+00
9.640000000000000568e+00
-1.209999999999999964e+01
1.370000000000000107e+00
5.980000000000000426e+00
-7.969999999999999751e+00
-5.100000000000000089e-01
8.730000000000000426e+00
-1.790000000000000036e+00
-1.892999999999999972e+01
9.429999999999999716e+00
3.240000000000000213e+00
-1.111999999999999922e+01
-1.379999999999999893e+00
1.335999999999999943e+01
-6.099999999999999867e-01
-1.006000000000000050e+01
1.122000000000000064e+01
5.190000000000000391e+00
-1.169999999999999929e+01
-1.066000000000000014e+01
-2.469000000000000128e+01
5.225999999999999801e+01
1.139000000000000057e+01
-9.300000000000000711e+00
7.399999999999999911e-01
-5.709999999999999964e+00
-2.230999999999999872e+01
7.280000000000000249e+00
9.089999999999999858e+00
-1.272000000000000064e+01
-8.000000000000000167e-02
1.599000000000000021e+01
1.600000000000000033e-01
-1.880999999999999872e+01
2.073999999999999844e+01
7.299999999999999822e+00
-2.280999999999999872e+01
-5.088000000000000256e+01
3.514000000000000057e+01
-1.830000000000000071e+00
-3.747999999999999687e+01
4.903999999999999915e+01
3.464000000000000057e+01
4.678000000000000114e+01
-2.026999999999999957e+01
-4.082999999999999829e+01
-5.974000000000000199e+01
1.701999999999999957e+01
9.519999999999999574e+00
-3.222999999999999687e+01
2.964999999999999858e+01
-2.410000000000000142e+01
-3.578000000000000114e+01
-8.810999999999999943e+01
1.267800000000000011e+02
-2.217000000000000171e+01
-1.837000000000000099e+01
-1.792000000000000171e+01
3.770000000000000018e+00
3.614999999999999858e+01
-5.169999999999999929e+00
2.149999999999999911e+00
-5.150000000000000355e+00
-1.098000000000000043e+01
-1.375000000000000000e+01
6.709999999999999964e+00
-1.648000000000000043e+01
-9.393999999999999773e+01
6.773000000000000398e+01
4.589000000000000057e+01
-2.770000000000000018e+00
-2.512000000000000099e+01
1.051999999999999957e+01
-1.250000000000000000e+00
-1.473000000000000043e+01
2.810000000000000053e+00
6.790000000000000036e+00
-1.059999999999999964e+01
-2.341000000000000014e+01
1.701999999999999957e+01
8.449999999999999289e+00
-7.679999999999999716e+00
-1.110000000000000098e+00
1.466999999999999993e+01
-1.449999999999999956e+00
-3.536999999999999744e+01
-4.570000000000000284e+01
5.978999999999999915e+01
4.714000000000000057e+01
-1.657999999999999829e+01
2.890000000000000124e+00
1.199999999999999956e-01
-1.825000000000000000e+01
4.299999999999999822e+00
-4.339999999999999858e+00
2.771999999999999886e+01
6.940000000000000391e+00
2.740000000000000213e+00
-1.409999999999999964e+01
4.019999999999999574e+00
5.171000000000000085e+01
6.500000000000000222e-01
-1.919000000000000128e+01
-3.239000000000000057e+01
4.490000000000000213e+00
6.465999999999999659e+01
-5.714000000000000057e+01
3.625999999999999801e+01
-3.899999999999999911e+00
-9.080000000000000071e+00
-2.533999999999999986e+01
5.056000000000000227e+01
-1.333999999999999986e+01
-2.617000000000000171e+01
-7.190000000000000391e+00
1.449000000000000021e+01
-6.870000000000000107e+00
-2.580999999999999872e+01
2.012000000000000099e+01
1.590000000000000036e+01
-5.700000000000000178e+00
4.379999999999999893e+00
1.782000000000000028e+01
2.000000000000000111e-01
-2.083999999999999986e+01
8.830000000000000071e+00
1.452999999999999936e+01
-5.290000000000000036e+00
-2.201000000000000156e+01
1.982000000000000028e+01
8.800000000000000711e+00
-1.780000000000000071e+01
-1.939999999999999947e+00
1.394999999999999929e+01
-8.669999999999999929e+00
-5.080000000000000071e+00
1.391999999999999993e+01
1.190000000000000036e+01
-2.666000000000000014e+01
9.710000000000000853e+00
3.353999999999999915e+01
-8.539999999999999147e+00
-4.271999999999999886e+01
4.952000000000000313e+01
5.030000000000000249e+00
-1.810000000000000142e+01
-3.395000000000000284e+01
9.900000000000000355e+00
2.689000000000000057e+01
-1.320000000000000062e+00
-1.132000000000000028e+01
1.094999999999999929e+01
3.049999999999999822e+00
-2.307999999999999829e+01
8.250000000000000000e+00
-1.091999999999999993e+01
-6.767000000000000171e+01
5.054999999999999716e+01
4.765999999999999659e+01
-7.769999999999999574e+00
-4.688000000000000256e+01
-1.332000000000000028e+01
3.943999999999999773e+01
-2.487000000000000099e+01
-1.616000000000000014e+01
1.450000000000000000e+01
2.240000000000000213e+00
-1.814999999999999858e+01
1.244999999999999929e+01
1.372000000000000064e+01
-3.040000000000000036e+00
-1.798000000000000043e+01
1.564000000000000057e+01
1.238000000000000078e+01
-6.990000000000000213e+00
-9.960000000000000853e+00
1.623999999999999844e+01
-1.753000000000000114e+01
-4.349000000000000199e+01
4.732999999999999829e+01
3.289000000000000057e+01
-2.370000000000000107e+00
-1.869999999999999929e+01
2.310000000000000053e+00
-7.600000000000000089e-01
-1.560999999999999943e+01
-5.910000000000000142e+00
1.000999999999999979e+01
-2.099999999999999922e-01
-2.019000000000000128e+01
1.421000000000000085e+01
1.198000000000000043e+01
-8.769999999999999574e+00
-8.150000000000000355e+00
1.796999999999999886e+01
4.759999999999999787e+00
-1.973000000000000043e+01
8.859999999999999432e+00
1.685000000000000142e+01
-3.709999999999999964e+00
-2.033999999999999986e+01
1.380000000000000071e+01
6.019999999999999574e+00
-1.755999999999999872e+01
2.950000000000000000e+01
1.196000000000000085e+01
-7.362999999999999545e+01
-6.110000000000000320e+00
2.003999999999999915e+01
-2.044000000000000128e+01
3.832999999999999829e+01
-2.839999999999999858e+00
-9.160000000000000142e+00
2.362000000000000099e+01
-8.109999999999999432e+00
3.770000000000000284e+01
-7.839999999999999858e+00
-2.394000000000000128e+01
-7.000000000000000666e-02
-4.070000000000000284e+00
-3.856000000000000227e+01
3.496999999999999886e+01
1.175000000000000000e+01
4.371999999999999886e+01
-1.360999999999999943e+01
8.039999999999999147e+00
-1.297700000000000102e+02
8.087000000000000455e+01
5.038000000000000256e+01
1.873100000000000023e+02
-3.359800000000000182e+02
-1.672199999999999989e+02
-2.946899999999999977e+02
2.932099999999999795e+02
1.581899999999999977e+02
-1.377199999999999989e+02
1.196000000000000085e+01
5.889999999999999680e+00
-1.405200000000000102e+02
2.970000000000000000e+02
-9.970999999999999375e+01
-1.093499999999999943e+02
9.254000000000000625e+01
-1.145799999999999983e+02
9.029000000000000625e+01
-1.427599999999999909e+02
4.468999999999999773e+01
3.329100000000000250e+02
-1.620099999999999909e+02
1.232000000000000028e+01
8.395999999999999375e+01
-6.042000000000000171e+01
4.075999999999999801e+01
8.301000000000000512e+01
-1.676000000000000156e+01
-1.338300000000000125e+02
5.189000000000000057e+01
-1.007500000000000000e+02
-1.083999999999999986e+01
3.014300000000000068e+02
-2.471100000000000136e+02
-1.237999999999999972e+02
-1.410399999999999920e+02
-9.653000000000000114e+01
4.858700000000000045e+02
2.175900000000000034e+02
-1.483499999999999943e+02
3.738000000000000256e+01
7.299999999999999822e+00
-1.308499999999999943e+02
9.621999999999999886e+01
2.608399999999999750e+02
-3.680199999999999818e+02
-8.476000000000000512e+01
-4.621000000000000085e+01
7.884999999999999432e+01
9.179999999999999716e+00
8.820000000000000284e+01
6.469999999999999751e+00
4.578700000000000045e+02
-1.814699999999999989e+02
-4.338000000000000256e+01
3.396999999999999886e+01
-4.667000000000000171e+01
-6.578000000000000114e+01
6.353000000000000114e+01
-4.360999999999999943e+01
2.200000000000000178e+00
3.796999999999999886e+01
3.089999999999999858e+00
-1.015699999999999932e+02
-1.819300000000000068e+02
2.235500000000000114e+02
4.989000000000000057e+01
-9.725000000000000000e+01
-5.099999999999999645e+00
1.089399999999999977e+02
3.007999999999999829e+01
-2.097400000000000091e+02
-6.099999999999999645e+00
7.631999999999999318e+01
6.292000000000000171e+01
-1.189999999999999947e+00
6.121999999999999886e+01
-6.728000000000000114e+01
9.093000000000000682e+01
-9.578000000000000114e+01
6.640999999999999659e+01
-1.326800000000000068e+02
-3.080000000000000071e+00
8.982999999999999829e+01
-8.715000000000000568e+01
-3.368999999999999773e+01
5.299999999999999822e+00
6.435999999999999943e+01
4.230000000000000426e+00
-2.667000000000000171e+01
9.790000000000000568e+01
-2.441000000000000014e+01
-1.326999999999999957e+01
-2.378999999999999915e+01
6.139999999999999858e+01
8.700000000000000000e+01
2.275000000000000000e+01
8.073000000000000398e+01
-1.939000000000000057e+01
-1.382000000000000028e+01
-1.048900000000000006e+02
-2.990600000000000023e+02
9.575000000000000000e+01
4.026100000000000136e+02
6.904999999999999716e+01
-1.564900000000000091e+02
1.616800000000000068e+02
-2.757799999999999727e+02
-3.757000000000000028e+01
-2.160000000000000142e+01
1.176999999999999957e+01
8.056000000000000227e+01
1.484300000000000068e+02
-5.950000000000000000e+01
-3.015400000000000205e+02
1.069200000000000017e+02
9.017000000000000171e+01
1.387800000000000011e+02
3.508999999999999773e+02
-3.973199999999999932e+02
-9.562999999999999545e+01
-2.160999999999999943e+01
-6.189999999999999858e+01
-1.199999999999999956e+00
4.075999999999999801e+01
1.267199999999999989e+02
-9.740000000000000568e+01
-4.521999999999999886e+01
2.444099999999999966e+02
-2.699100000000000250e+02
-1.262600000000000051e+02
-1.300999999999999979e+01
7.734999999999999432e+01
-4.000000000000000083e-02
-1.590000000000000080e+00
2.990000000000000213e+00
-6.418999999999999773e+01
-1.170000000000000000e+02
-5.120000000000000284e+01
2.914999999999999858e+01
3.140099999999999909e+02
8.980000000000000426e+00
-5.169999999999999929e+00
-1.944300000000000068e+02
1.095199999999999960e+02
6.278999999999999915e+01
1.019099999999999966e+02
2.746999999999999886e+01
-1.759199999999999875e+02
5.046000000000000085e+01
8.818999999999999773e+01
5.899000000000000199e+01
-1.038100000000000023e+02
-2.937000000000000099e+01
-1.725000000000000000e+01
3.888000000000000256e+01
2.271000000000000085e+01
-1.370200000000000102e+02
1.478999999999999915e+01
1.192999999999999972e+01
-1.288899999999999864e+02
1.752400000000000091e+02
1.110900000000000034e+02
-2.333199999999999932e+02
-2.473400000000000034e+02
2.267199999999999989e+02
6.228000000000000114e+01
1.026999999999999957e+01
1.043599999999999994e+02
9.139000000000000057e+01
-2.945799999999999841e+02
4.271000000000000085e+01
3.328299999999999841e+02
-1.304300000000000068e+02
-2.266299999999999955e+02
-1.141099999999999994e+02
-6.618000000000000682e+01
3.480400000000000205e+02
-6.257000000000000028e+01
-6.732999999999999829e+01
1.876999999999999957e+01
-7.509999999999999432e+01
5.435000000000000142e+01
1.985999999999999943e+01
-7.593000000000000682e+01
-2.519000000000000128e+01
-5.759999999999999787e+00
4.860000000000000142e+01
3.393999999999999773e+01
-8.198000000000000398e+01
-6.515000000000000568e+01
1.172300000000000040e+02
3.799000000000000199e+01
-6.762000000000000455e+01
-7.353000000000000114e+01
-4.010999999999999943e+01
4.771999999999999886e+01
5.896000000000000085e+01
3.839000000000000057e+01
-5.089999999999999858e+00
-6.275999999999999801e+01
-8.718000000000000682e+01
-1.566100000000000136e+02
1.670699999999999932e+02
-6.440000000000000391e+00
-3.310999999999999943e+01
-3.396999999999999886e+01
5.690000000000000391e+00
2.392700000000000102e+02
-1.518999999999999950e+01
3.710000000000000142e+01
-1.953999999999999915e+01
-2.162500000000000000e+02
3.130000000000000071e+01
4.735999999999999943e+01
4.561999999999999744e+01
1.101999999999999957e+01
-3.459999999999999964e+00
-7.820000000000000284e+00
-1.671999999999999886e+01
-5.459999999999999964e+00
7.209999999999999964e+00
2.526000000000000156e+01
-7.599999999999999645e+00
2.735999999999999943e+01
6.410000000000000142e+00
9.029999999999999361e+00
3.140000000000000124e+00
2.089999999999999858e+00
-6.009999999999999787e+00
-1.277999999999999936e+01
2.220000000000000195e+00
3.629999999999999716e+01
7.040000000000000036e+00
-1.687000000000000099e+01
2.910000000000000142e+00
1.159999999999999920e+00
-3.671000000000000085e+01
-9.926000000000000512e+01
-1.010999999999999943e+02
5.336799999999999500e+02
-4.025199999999999818e+02
-1.791699999999999875e+02
-2.838700000000000045e+02
5.732999999999999829e+01
7.050000000000000000e+01
-2.230900000000000034e+02
5.172999999999999687e+01
1.106500000000000057e+02
6.042999999999999972e+01
-1.291999999999999993e+01
1.192999999999999972e+02
-3.590999999999999659e+01
1.240400000000000063e+02
1.008700000000000045e+02
-4.792999999999999972e+01
-2.058999999999999986e+01
-2.026000000000000156e+01
1.147000000000000064e+01
1.133799999999999955e+02
-2.285999999999999943e+01
-8.834000000000000341e+01
-1.960000000000000142e+01
1.358000000000000007e+01
-5.445000000000000284e+01
3.173000000000000043e+01
1.750000000000000000e+00
-8.359000000000000341e+01
-1.989999999999999858e+01
5.529999999999999716e+01
8.440999999999999659e+01
-4.184000000000000341e+01
-4.367000000000000171e+01
2.810999999999999943e+01
9.456999999999999318e+01
-5.421999999999999886e+01
9.706000000000000227e+01
-4.529999999999999716e+01
4.011999999999999744e+01
1.828999999999999915e+01
4.842000000000000171e+01
-9.410999999999999943e+01
-2.440200000000000102e+02
2.422800000000000011e+02
3.153000000000000114e+01
8.351999999999999602e+01
-1.776999999999999957e+01
-4.860000000000000320e+00
-3.879999999999999716e+01
-7.809999999999999609e+00
-4.136999999999999744e+01
3.263000000000000256e+01
-1.471200000000000045e+02
2.430699999999999932e+02
2.075800000000000125e+02
4.190600000000000023e+02
-2.518899999999999864e+02
-6.286399999999999864e+02
8.556000000000000227e+01
2.738199999999999932e+02
1.938700000000000045e+02
-3.182099999999999795e+02
-3.348299999999999841e+02
2.130699999999999932e+02
2.404699999999999989e+02
8.773000000000000398e+01
-1.712100000000000080e+02
-1.920300000000000011e+02
-3.739999999999999858e+01
2.950299999999999727e+02
-4.259000000000000341e+01
8.653000000000000114e+01
-1.240000000000000036e+01
1.792000000000000171e+01
-2.079399999999999977e+02
3.650999999999999801e+01
3.503000000000000114e+01
-9.980000000000000426e+00
-3.169999999999999929e+00
3.214000000000000057e+01
9.000000000000000000e+01
5.488000000000000256e+01
-1.196200000000000045e+02
-1.635999999999999943e+01
4.310999999999999943e+01
2.447199999999999989e+02
6.181000000000000227e+01
-2.379999999999999893e+00
-7.080000000000000071e+00
1.050100000000000051e+02
5.714000000000000057e+01
-1.035300000000000011e+02
-3.044000000000000128e+01
4.485999999999999943e+01
1.032399999999999949e+02
-4.120000000000000284e+01
-1.208199999999999932e+02
1.490500000000000114e+02
1.381100000000000136e+02
-2.220800000000000125e+02
-1.316999999999999993e+01
4.085999999999999943e+01
2.560000000000000053e+00
-3.124599999999999795e+02
2.643199999999999932e+02
-1.809300000000000068e+02
-1.757899999999999920e+02
-1.059999999999999964e+01
3.990999999999999659e+01
1.565099999999999909e+02
-1.493799999999999955e+02
5.250000000000000000e+01
7.262000000000000455e+01
2.989999999999999858e+01
-2.322199999999999989e+02
-2.806100000000000136e+02
3.748000000000000114e+02
-1.265199999999999960e+02
-2.494199999999999875e+02
9.951000000000000512e+01
2.730799999999999841e+02
-4.796000000000000085e+01
-1.603600000000000136e+02
-1.004200000000000017e+02
-6.049999999999999822e+00
-9.179999999999999716e+00
-3.459999999999999964e+00
-2.689999999999999947e+00
-5.404999999999999716e+01
-2.786600000000000250e+02
3.223500000000000227e+02
2.833999999999999986e+01
4.152000000000000313e+01
7.748000000000000398e+01
-4.636999999999999744e+01
-2.760999999999999943e+01
-1.541000000000000014e+01
4.506000000000000227e+01
2.194000000000000128e+01
-1.000000000000000000e+00
4.064999999999999858e+01
2.512899999999999920e+02
-2.643299999999999841e+02
1.525999999999999979e+01
2.248000000000000043e+01
-2.310000000000000142e+01
6.631000000000000227e+01
-7.739000000000000057e+01
-1.823000000000000043e+01
7.400000000000000000e+01
-2.730999999999999872e+01
1.817999999999999972e+01
-3.475000000000000000e+01
-1.640600000000000023e+02
8.146999999999999886e+01
4.463700000000000045e+02
-1.214000000000000057e+02
6.860000000000000320e+00
-5.506000000000000227e+01
-1.780999999999999872e+01
-8.650000000000000355e+00
6.080000000000000071e+00
-2.207999999999999829e+01
-7.373000000000000398e+01
-8.279999999999999361e+00
1.171299999999999955e+02
4.590999999999999659e+01
1.705000000000000071e+01
1.129999999999999893e+00
-1.050999999999999979e+01
-2.279999999999999805e+00
1.590000000000000080e+00
-9.300000000000000711e+00
-3.329999999999999716e+01
-6.328000000000000114e+01
3.474000000000000199e+01
-9.609999999999999432e+00
3.910000000000000142e+01
2.658500000000000227e+02
-1.556699999999999875e+02
-1.870099999999999909e+02
-3.087000000000000099e+01
6.940000000000000391e+00
-3.885999999999999943e+01
-7.454999999999999716e+01
2.584800000000000182e+02
8.285999999999999943e+01
-1.167399999999999949e+02
-9.398000000000000398e+01
-5.397999999999999687e+01
-1.247000000000000064e+01
1.939999999999999947e+00
3.680000000000000160e+00
-1.166999999999999993e+01
3.140000000000000124e+00
7.330000000000000071e+00
-2.270000000000000018e+00
-1.850000000000000000e+01
-2.460999999999999943e+01
-3.535000000000000142e+01
-2.062000000000000099e+01
1.162800000000000011e+02
4.040999999999999659e+01
7.393000000000000682e+01
2.220000000000000000e+02
-1.909300000000000068e+02
-8.006999999999999318e+01
-3.503000000000000114e+01
-2.200000000000000011e-01
-2.003000000000000114e+01
6.164999999999999858e+01
-5.231000000000000227e+01
7.429999999999999716e+00
-1.093299999999999983e+02
1.385399999999999920e+02
-2.523000000000000043e+01
-3.688000000000000256e+01
-3.599999999999999867e-01
1.130000000000000071e+01
4.830000000000000071e+00
8.109999999999999432e+00
-1.534999999999999964e+01
4.204999999999999716e+01
-8.431999999999999318e+01
5.804999999999999716e+01
-8.364000000000000057e+01
-9.949999999999999289e+00
-4.099999999999999756e-01
-1.152999999999999936e+01
-5.030000000000000249e+00
9.015999999999999659e+01
6.848000000000000398e+01
-2.653000000000000114e+01
-9.507999999999999829e+01
-3.575000000000000000e+01
1.022000000000000064e+01
-5.239000000000000057e+01
-4.197999999999999687e+01
2.457999999999999829e+01
2.600000000000000089e-01
-1.092199999999999989e+02
-3.198000000000000043e+01
1.000000000000000000e+02
-1.516999999999999993e+01
5.120000000000000284e+01
-3.689000000000000057e+01
-4.360000000000000142e+01
6.113000000000000256e+01
-2.860000000000000142e+01
-6.415000000000000568e+01
-2.880000000000000071e+01
3.419100000000000250e+02
-1.893499999999999943e+02
-1.345399999999999920e+02
8.220999999999999375e+01
-1.471000000000000085e+01
-1.528600000000000136e+02
1.028499999999999943e+02
2.505000000000000071e+01
-1.257399999999999949e+02
1.777599999999999909e+02
2.969000000000000128e+01
-3.073999999999999844e+01
1.395399999999999920e+02
1.186999999999999922e+01
-1.292899999999999920e+02
3.356000000000000227e+01
2.207000000000000028e+01
1.280000000000000027e+00
-2.239999999999999858e+01
4.839999999999999858e+01
-1.044699999999999989e+02
3.073999999999999844e+01
5.919999999999999929e+00
2.548999999999999844e+01
-3.568999999999999773e+01
-5.070000000000000284e+00
-1.995300000000000011e+02
4.402000000000000313e+01
-3.821999999999999886e+01
-6.120000000000000107e+00
-2.560000000000000142e+01
-3.970000000000000284e+01
-9.434000000000000341e+01
-3.137999999999999901e+01
7.080000000000000071e+00
4.671999999999999886e+01
-5.859000000000000341e+01
3.162000000000000099e+01
4.229999999999999716e+01
5.125999999999999801e+01
-3.852599999999999909e+02
5.560999999999999943e+01
1.791399999999999864e+02
-3.490000000000000213e+00
-6.795000000000000284e+01
-6.401000000000000512e+01
-9.400000000000000355e+00
-5.068999999999999773e+01
-7.995000000000000284e+01
2.041000000000000014e+01
-2.110000000000000142e+01
1.291999999999999886e+02
-1.091000000000000014e+01
4.732999999999999829e+01
1.241999999999999993e+01
-1.303899999999999864e+02
-8.418000000000000682e+01
-7.573999999999999488e+01
-3.328999999999999915e+01
2.561499999999999773e+02
1.873100000000000023e+02
-3.289000000000000057e+01
3.920000000000000284e+01
-7.109000000000000341e+01
-1.155600000000000023e+02
7.500000000000000000e+00
9.929999999999999716e+00
-1.069699999999999989e+02
1.135799999999999983e+02
3.634000000000000341e+01
-4.714999999999999858e+01
4.517999999999999972e+01
3.735999999999999943e+01
3.903999999999999915e+01
2.597300000000000182e+02
-1.955900000000000034e+02
-1.661899999999999977e+02
6.825000000000000000e+01
1.071000000000000085e+01
-2.977699999999999818e+02
1.383499999999999943e+02
8.682999999999999829e+01
3.625999999999999801e+01
-6.459999999999999432e+01
4.659599999999999795e+02
-1.681399999999999864e+02
4.117999999999999972e+01
-2.482000000000000028e+01
1.499600000000000080e+02
-5.311999999999999744e+01
-1.403499999999999943e+02
1.732500000000000000e+02
-3.930000000000000160e+00
1.413300000000000125e+02
-1.200300000000000011e+02
3.965999999999999659e+01
1.271000000000000085e+01
2.332400000000000091e+02
-2.830999999999999872e+01
3.711700000000000159e+02
-1.145699999999999932e+02
-2.080900000000000034e+02
4.464999999999999858e+01
2.417199999999999989e+02
-4.840999999999999659e+01
-8.606999999999999318e+01
4.493999999999999773e+01
2.103999999999999915e+01
-4.293999999999999773e+01
-4.629999999999999893e+00
-6.209999999999999964e+00
7.526000000000000512e+01
9.449999999999999289e+00
5.949000000000000199e+01
-1.494600000000000080e+02
6.329999999999999716e+01
-4.292999999999999972e+01
3.089000000000000057e+01
-4.146999999999999886e+01
-1.042600000000000051e+02
2.883999999999999986e+01
5.478999999999999915e+01
-9.150000000000000355e+00
-1.572000000000000064e+01
-2.557999999999999829e+01
-1.194800000000000040e+02
5.757000000000000028e+01
6.412000000000000455e+01
-9.799999999999999822e-01
5.368999999999999773e+01
-1.315500000000000114e+02
1.374300000000000068e+02
1.514499999999999886e+02
-9.093000000000000682e+01
-5.650000000000000355e+00
2.089199999999999875e+02
1.393700000000000045e+02
2.335999999999999943e+01
9.545000000000000284e+01
2.414999999999999858e+01
-1.232500000000000000e+02
3.215600000000000023e+02
-2.752900000000000205e+02
-1.217999999999999972e+01
-9.300000000000000000e+01
3.335000000000000142e+01
1.547599999999999909e+02
6.639999999999999680e+00
-1.515399999999999920e+02
-1.565800000000000125e+02
2.305999999999999872e+01
-1.135199999999999960e+02
2.267999999999999972e+01
1.475000000000000000e+02
-1.349099999999999966e+02
-7.398999999999999488e+01
-4.667000000000000171e+01
8.595000000000000284e+01
4.146999999999999886e+01
-8.829000000000000625e+01
-4.911999999999999744e+01
3.098999999999999844e+01
-2.750000000000000000e+00
1.244999999999999929e+01
-4.139999999999999680e+00
-3.140000000000000124e+00
1.629799999999999898e+02
-2.725000000000000000e+01
2.270000000000000018e+00
-5.229999999999999716e+01
7.987999999999999545e+01
-4.857000000000000028e+01
5.939999999999999858e+01
8.960000000000000853e+00
-2.844999999999999929e+01
-5.040000000000000036e+00
2.160999999999999943e+01
-6.579999999999999716e+01
-1.410999999999999943e+01
4.800000000000000000e+01
-9.179999999999999716e+00
7.784999999999999432e+01
8.189999999999999503e+00
-6.271999999999999886e+01
-6.310999999999999943e+01
-3.669999999999999929e+00
-2.391000000000000014e+01
-2.198999999999999844e+01
6.556000000000000227e+01
-4.513000000000000256e+01
1.608999999999999986e+01
-1.701999999999999957e+01
6.750000000000000000e+01
-9.759999999999999787e+00
-4.360000000000000142e+01
-2.000000000000000000e+01
-1.559999999999999964e+01
1.125300000000000011e+02
1.409999999999999920e+00
-4.054999999999999716e+01
1.435999999999999943e+01
-1.416000000000000014e+01
6.634999999999999432e+01
-1.595900000000000034e+02
1.961999999999999886e+02
-2.064799999999999898e+02
-2.642999999999999972e+01
-6.798999999999999488e+01
5.904999999999999716e+01
1.394900000000000091e+02
-2.402199999999999989e+02
-1.454099999999999966e+02
1.346800000000000068e+02
-1.684699999999999989e+02
6.539000000000000057e+01
1.200799999999999983e+02
1.043499999999999943e+02
-1.020100000000000051e+02
-3.732000000000000028e+01
1.689000000000000057e+01
1.419999999999999929e+00
-3.831000000000000227e+01
-3.793999999999999773e+01
1.099300000000000068e+02
-7.117000000000000171e+01
3.112000000000000099e+01
7.135999999999999943e+01
-1.223000000000000043e+01
-5.624000000000000199e+01
-2.035000000000000142e+01
-9.769999999999999574e+00
-5.756000000000000227e+01
6.901999999999999602e+01
-1.358000000000000007e+01
-4.484000000000000341e+01
-5.354999999999999716e+01
1.410500000000000114e+02
5.049999999999999822e+00
-1.640800000000000125e+02
-9.546999999999999886e+01
1.477199999999999989e+02
1.761999999999999886e+02
9.157999999999999829e+01
-1.187900000000000063e+02
-1.276200000000000045e+02
-9.854999999999999716e+01
3.330000000000000071e+00
3.691299999999999955e+02
-1.519499999999999886e+02
5.295000000000000284e+01
-1.825000000000000000e+02
5.814000000000000057e+01
6.698000000000000398e+01
4.127000000000000313e+01
-5.775999999999999801e+01
-2.682000000000000028e+01
2.519999999999999929e+01
6.568000000000000682e+01
-2.928000000000000114e+01
-6.820000000000000284e+00
5.803000000000000114e+01
-2.235999999999999943e+01
1.019999999999999929e+01
-3.129999999999999893e+00
1.694999999999999929e+01
-1.958999999999999986e+01
-2.519000000000000128e+01
1.188000000000000078e+01
4.889999999999999858e+01
-1.689000000000000057e+01
6.303999999999999915e+01
1.065400000000000063e+02
-1.181099999999999994e+02
-1.393999999999999950e+01
1.042600000000000051e+02
-2.756299999999999955e+02
1.122099999999999937e+02
1.086999999999999922e+01
7.675000000000000000e+01
9.481999999999999318e+01
-3.276999999999999886e+02
-5.797999999999999687e+01
3.489800000000000182e+02
4.547999999999999687e+01
7.693999999999999773e+01
-4.275899999999999750e+02
-9.115999999999999659e+01
-1.957999999999999829e+01
4.596999999999999886e+01
3.135500000000000114e+02
3.359900000000000091e+02
-2.974700000000000273e+02
-3.014000000000000057e+01
-3.242999999999999972e+01
-2.767000000000000171e+01
-3.902000000000000313e+01
5.752000000000000313e+01
1.107300000000000040e+02
-2.025099999999999909e+02
2.210300000000000011e+02
6.530000000000000249e+00
-3.995199999999999818e+02
1.032900000000000063e+02
6.615999999999999659e+01
1.572000000000000064e+01
-6.099999999999999867e-01
-3.050000000000000000e+01
3.110000000000000142e+01
-9.787000000000000455e+01
-5.230000000000000426e+00
-2.750000000000000000e+01
-1.265600000000000023e+02
3.340099999999999909e+02
7.043000000000000682e+01
8.151999999999999602e+01
-4.927000000000000313e+01
-4.676999999999999886e+02
1.737299999999999898e+02
9.151999999999999602e+01
9.439999999999999503e+00
3.510999999999999943e+01
-5.265999999999999659e+01
-2.182999999999999829e+01
1.168100000000000023e+02
2.814999999999999858e+01
1.062600000000000051e+02
-2.693100000000000023e+02
-1.673999999999999844e+01
5.677000000000000313e+01
-9.839000000000000057e+01
2.760000000000000000e+02
2.180000000000000000e+02
-1.812199999999999989e+02
-1.645900000000000034e+02
3.203999999999999915e+01
1.717000000000000171e+01
4.270000000000000284e+01
-4.221999999999999886e+01
-2.226000000000000156e+01
8.781000000000000227e+01
-7.320000000000000284e+01
-7.065000000000000568e+01
-1.823999999999999844e+01
1.132399999999999949e+02
1.804000000000000057e+02
1.083199999999999932e+02
-2.017800000000000011e+02
-1.378100000000000023e+02
-1.515200000000000102e+02
2.908799999999999955e+02
-4.249700000000000273e+02
9.781000000000000227e+01
7.256100000000000136e+02
-3.028500000000000227e+02
-6.053200000000000500e+02
8.856000000000000227e+01
4.537300000000000182e+02
3.847699999999999818e+02
1.201500000000000057e+02
-4.198199999999999932e+02
-3.328100000000000023e+02
3.410999999999999943e+01
1.225000000000000000e+01
5.992000000000000171e+01
-1.771200000000000045e+02
9.229000000000000625e+01
5.853000000000000114e+01
9.830000000000000071e+00
-1.848899999999999864e+02
-1.511999999999999886e+02
-5.692000000000000171e+01
2.406200000000000045e+02
2.850099999999999909e+02
1.796100000000000136e+02
-5.921100000000000136e+02
1.721000000000000085e+01
2.350800000000000125e+02
2.397400000000000091e+02
-3.181499999999999773e+02
-5.706000000000000227e+01
2.188600000000000136e+02
1.507599999999999909e+02
-3.823500000000000227e+02
3.549999999999999822e+00
4.464800000000000182e+02
2.650299999999999727e+02
-1.292199999999999989e+02
-1.541599999999999966e+02
-2.292999999999999972e+01
1.885600000000000023e+02
-1.485500000000000114e+02
4.453999999999999915e+01
-6.554000000000000625e+01
3.736499999999999773e+02
-4.275600000000000023e+02
1.254000000000000057e+02
3.176100000000000136e+02
3.606000000000000227e+01
-3.571899999999999977e+02
1.722199999999999989e+02
9.584999999999999432e+01
7.623000000000000398e+01
1.094899999999999949e+02
-2.386800000000000068e+02
-3.624000000000000199e+01
-2.233999999999999986e+01
4.350000000000000000e+02
-6.473000000000000398e+01
-2.314399999999999977e+02
8.245000000000000284e+01
9.432999999999999829e+01
2.279999999999999805e+00
-2.776100000000000136e+02
8.709000000000000341e+01
-1.850399999999999920e+02
2.438899999999999864e+02
6.343999999999999773e+01
4.829999999999999716e+01
6.385999999999999943e+01
-3.715199999999999818e+02
-6.643000000000000682e+01
-1.636699999999999875e+02
1.385399999999999920e+02
-4.318999999999999773e+01
3.127599999999999909e+02
-5.972999999999999687e+01
-4.208799999999999955e+02
1.653999999999999915e+01
-2.966000000000000014e+01
4.618199999999999932e+02
-3.636600000000000250e+02
-7.810999999999999943e+01
1.900099999999999909e+02
2.184600000000000080e+02
1.629999999999999893e+00
7.896999999999999886e+01
5.678000000000000114e+01
4.604999999999999716e+01
8.181999999999999318e+01
-2.535200000000000102e+02
-3.600500000000000114e+02
1.722199999999999989e+02
3.736899999999999977e+02
-1.424900000000000091e+02
5.867999999999999972e+01
-4.084000000000000341e+01
5.154999999999999716e+01
7.001000000000000512e+01
-7.984999999999999432e+01
-4.120000000000000284e+01
3.557000000000000028e+01
-2.664999999999999858e+01
1.017699999999999960e+02
-5.589000000000000057e+01
6.695999999999999375e+01
-4.100000000000000000e+01
2.117000000000000171e+01
3.671000000000000085e+01
1.141500000000000057e+02
-1.092999999999999972e+02
-3.172799999999999727e+02
3.965999999999999659e+01
4.607000000000000028e+01
4.004999999999999716e+01
8.715999999999999659e+01
-1.096000000000000085e+01
-1.108100000000000023e+02
1.015600000000000023e+02
-1.546999999999999886e+02
-9.185999999999999943e+01
4.894200000000000159e+02
-1.314000000000000057e+01
-1.170999999999999943e+02
-1.780699999999999932e+02
1.279000000000000057e+02
1.838300000000000125e+02
9.460000000000000853e+00
-4.471999999999999886e+01
-2.427599999999999909e+02
-5.975999999999999801e+01
-4.768999999999999773e+01
5.921000000000000085e+01
-1.005199999999999960e+02
-8.334999999999999432e+01
1.636500000000000057e+02
-1.769600000000000080e+02
2.484099999999999966e+02
-3.017999999999999972e+01
-1.751200000000000045e+02
1.456000000000000050e+01
1.251099999999999994e+02
3.346999999999999886e+02
3.359000000000000341e+01
-1.991999999999999886e+02
-1.303499999999999943e+02
1.112199999999999989e+02
1.581000000000000050e+01
2.951000000000000156e+01
-5.645000000000000284e+01
-7.070000000000000284e+01
1.000999999999999943e+02
4.690000000000000391e+00
-3.877000000000000313e+01
2.182999999999999829e+01
-2.462999999999999901e+01
-1.894499999999999886e+02
1.404799999999999898e+02
-1.855000000000000071e+01
-1.249599999999999937e+02
-6.053999999999999915e+01
2.236200000000000045e+02
-1.978000000000000114e+01
-2.337899999999999920e+02
1.402299999999999898e+02
8.868999999999999773e+01
-1.590500000000000114e+02
1.834499999999999886e+02
-8.367000000000000171e+01
-4.799999999999999822e-01
3.664000000000000057e+01
-1.182000000000000028e+01
-6.969999999999999751e+00
-2.798999999999999844e+01
3.604999999999999716e+01
7.923000000000000398e+01
1.776999999999999957e+01
2.121999999999999886e+01
3.978999999999999915e+01
-2.399900000000000091e+02
2.265999999999999943e+02
2.242199999999999989e+02
-2.538400000000000034e+02
-2.055999999999999872e+01
-8.629999999999999716e+01
-5.463000000000000256e+01
5.788000000000000256e+01
-3.328000000000000114e+01
1.694999999999999929e+01
1.571999999999999886e+02
-1.888199999999999932e+02
8.023999999999999488e+01
5.432000000000000028e+01
-2.125000000000000000e+01
-4.792999999999999972e+01
-1.805600000000000023e+02
1.393199999999999932e+02
-9.987000000000000455e+01
1.378300000000000125e+02
-1.229099999999999966e+02
9.820000000000000284e+00
1.452299999999999898e+02
-2.373999999999999844e+01
3.800999999999999801e+01
-1.362700000000000102e+02
-1.902100000000000080e+02
9.759999999999999432e+01
4.699700000000000273e+02
-1.480300000000000011e+02
-7.782999999999999829e+01
7.395999999999999375e+01
-2.799999999999999822e+00
-5.049999999999999822e+00
-9.000000000000000222e-01
6.959999999999999964e+00
-1.841000000000000014e+01
-1.964999999999999858e+01
-3.126999999999999957e+01
7.087000000000000455e+01
2.039699999999999989e+02
-9.309000000000000341e+01
-4.799999999999999822e-01
-3.016000000000000014e+01
-3.060999999999999943e+01
1.550000000000000000e+01
-6.660000000000000142e+00
2.460999999999999943e+01
-5.990000000000000213e+00
-1.402999999999999936e+01
8.189999999999999503e+00
1.003999999999999915e+01
-1.790000000000000036e+00
3.430000000000000160e+00
5.299999999999999822e+00
-1.520000000000000018e+00
-8.980000000000000426e+00
4.790000000000000036e+00
9.699999999999999734e-01
-1.100999999999999979e+01
7.009999999999999787e+00
4.610000000000000320e+00
-6.799999999999999822e+00
1.570000000000000062e+00
6.049999999999999822e+00
-4.669999999999999929e+00
2.700000000000000178e-01
6.410000000000000142e+00
-6.199999999999999956e-01
3.970000000000000195e+00
1.571000000000000085e+01
2.460999999999999943e+01
6.751000000000000512e+01
8.692000000000000171e+01
-3.987799999999999727e+02
9.845999999999999375e+01
-1.530000000000000071e+01
-1.676800000000000068e+02
1.633899999999999864e+02
6.582999999999999829e+01
-3.082000000000000028e+01
-5.089000000000000057e+01
6.401999999999999602e+01
6.423999999999999488e+01
-2.700000000000000000e+01
-1.839000000000000057e+01
-2.400000000000000000e+01
-3.135000000000000142e+01
1.569999999999999929e+01
2.325000000000000000e+01
3.270000000000000018e+00
-2.569999999999999840e+00
-2.299999999999999822e+00
-4.414000000000000057e+01
-2.028000000000000114e+01
8.425000000000000000e+01
-2.366100000000000136e+02
1.642100000000000080e+02
6.556999999999999318e+01
1.306299999999999955e+02
6.239000000000000057e+01
-3.257900000000000205e+02
-1.704499999999999886e+02
7.757999999999999829e+01
1.661999999999999886e+02
6.114000000000000057e+01
-3.649000000000000199e+01
1.600000000000000000e+01
-4.389999999999999858e+01
-1.910999999999999943e+02
-1.416899999999999977e+02
9.381999999999999318e+01
-2.983999999999999986e+01
4.661999999999999744e+01
-5.742000000000000171e+01
-8.084000000000000341e+01
-3.009999999999999787e+00
1.983799999999999955e+02
-5.806000000000000227e+01
-2.000200000000000102e+02
7.834000000000000341e+01
-4.000000000000000083e-02
3.932999999999999829e+01
-1.433499999999999943e+02
2.369799999999999898e+02
7.559999999999999609e+00
-1.614300000000000068e+02
2.259499999999999886e+02
-1.714499999999999886e+02
-1.052399999999999949e+02
-5.357999999999999829e+01
9.246999999999999886e+01
-1.290000000000000036e+01
-2.134199999999999875e+02
-2.566100000000000136e+02
1.818600000000000136e+02
7.806999999999999318e+01
-3.867000000000000171e+01
-1.013400000000000034e+02
-4.332999999999999829e+01
3.685000000000000142e+01
-5.225000000000000000e+01
1.171000000000000085e+01
5.570000000000000284e+00
-6.018999999999999773e+01
1.317999999999999972e+01
4.070000000000000284e+00
-1.855999999999999872e+01
-6.282999999999999829e+01
-6.662000000000000455e+01
-2.327899999999999920e+02
1.917899999999999920e+02
-3.191000000000000227e+02
1.049200000000000017e+02
7.976000000000000512e+01
7.865999999999999659e+01
-4.567999999999999972e+01
1.067900000000000063e+02
1.173499999999999943e+02
5.589999999999999858e+01
-8.132999999999999829e+01
-2.050699999999999932e+02
2.046000000000000085e+01
1.191999999999999993e+01
1.294600000000000080e+02
1.368999999999999950e+01
-3.439999999999999947e+00
-2.271000000000000085e+01
-4.018999999999999773e+01
1.865099999999999909e+02
6.146000000000000085e+01
-3.534200000000000159e+02
1.285200000000000102e+02
-4.295000000000000284e+01
-5.299999999999999822e+00
-1.197600000000000051e+02
7.489000000000000057e+01
-2.192999999999999972e+01
7.206000000000000227e+01
2.267000000000000171e+01
-9.643000000000000682e+01
5.243999999999999773e+01
-7.298999999999999488e+01
-7.585999999999999943e+01
1.533199999999999932e+02
1.027099999999999937e+02
4.693999999999999773e+01
2.202299999999999898e+02
-2.013400000000000034e+02
-3.289300000000000068e+02
-5.550900000000000318e+02
5.698400000000000318e+02
1.844399999999999977e+02
-8.245999999999999375e+01
6.870000000000000107e+00
-6.601999999999999602e+01
1.066700000000000017e+02
9.315999999999999659e+01
-1.298000000000000114e+02
4.490999999999999659e+01
-1.654600000000000080e+02
-1.952100000000000080e+02
1.559300000000000068e+02
1.189899999999999949e+02
-2.484900000000000091e+02
-1.886699999999999875e+02
2.108199999999999932e+02
1.964699999999999989e+02
-7.646999999999999886e+01
-3.592200000000000273e+02
-2.650000000000000000e+01
-1.560200000000000102e+02
-8.470999999999999375e+01
2.421999999999999886e+01
4.602000000000000313e+01
1.406899999999999977e+02
3.303700000000000045e+02
-2.583399999999999750e+02
-1.419600000000000080e+02
-1.321500000000000057e+02
-5.782000000000000028e+01
6.407999999999999829e+01
9.604000000000000625e+01
-1.678100000000000023e+02
-5.496999999999999886e+01
-7.262999999999999545e+01
2.466500000000000057e+02
1.107699999999999960e+02
5.140999999999999659e+01
1.688300000000000125e+02
-7.740999999999999659e+01
2.958999999999999986e+01
-7.299999999999999822e-01
1.073700000000000045e+02
-2.932999999999999829e+01
7.820999999999999375e+01
6.343999999999999773e+01
5.059000000000000341e+01
-7.745000000000000284e+01
-1.839000000000000057e+01
-1.291000000000000014e+01
-1.484999999999999964e+01
-1.189200000000000017e+02
7.065000000000000568e+01
9.509999999999999787e+00
9.130000000000000782e+00
