1592926011.00
64.000000
-0.00
-0.00
-0.00
-0.00
-0.00
-0.00
-0.00
-0.00
-0.00
-0.00
0.00
0.01
0.01
-0.00
-0.03
-0.05
-0.05
0.00
0.13
0.36
0.66
1.01
1.37
1.72
2.06
2.40
2.79
3.24
3.80
4.42
5.06
5.66
6.20
6.68
7.15
7.68
8.31
9.14
10.09
11.04
11.88
12.56
13.14
13.76
14.65
15.96
17.91
20.32
22.90
25.38
27.58
29.57
31.68
34.32
37.81
42.54
48.15
54.10
59.83
64.97
69.58
74.14
79.34
85.71
93.76
103.00
112.62
121.73
129.77
136.75
143.30
150.75
157.77
166.64
177.95
191.79
206.97
220.57
228.25
225.36
208.53
176.87
132.76
80.05
23.07
-34.94
-92.44
-149.16
-205.23
-260.36
-313.72
-363.84
-409.80
-450.91
-486.57
-515.91
-537.51
-549.60
-550.40
-538.82
-514.64
-479.08
-434.29
-382.92
-327.59
-270.52
-213.41
-157.48
-103.76
-53.13
-6.63
34.81
70.51
100.19
124.06
142.72
156.93
167.43
174.74
179.15
180.80
179.85
176.61
171.58
165.39
158.62
151.64
144.54
137.17
129.28
120.76
111.72
102.55
93.73
85.70
78.58
72.13
65.84
59.21
51.94
44.16
36.38
29.23
23.24
18.52
14.79
11.47
7.95
3.74
-1.46
-7.69
-14.55
-21.05
-25.52
-26.00
-21.00
-10.30
4.57
20.68
34.63
43.79
47.26
45.90
41.72
36.83
32.66
29.67
27.54
25.79
24.03
22.17
20.33
18.57
16.78
14.65
12.03
9.17
6.87
6.20
7.89
11.88
17.07
21.75
24.32
23.99
21.08
16.81
12.63
9.64
8.19
7.93
8.10
7.87
6.76
4.70
2.09
-0.46
-2.37
-3.35
-3.65
-3.77
-4.22
-5.19
-6.36
-7.14
-7.06
-6.03
-4.51
-3.24
-2.79
-3.27
-4.24
-4.96
-4.77
-3.51
-1.58
0.22
1.14
0.89
-0.16
-1.23
-1.46
-0.42
1.67
4.12
6.07
7.00
6.98
6.52
6.26
6.65
7.65
8.91
10.00
10.67
11.01
11.25
11.61
11.90
11.69
10.50
8.06
4.52
0.49
-3.26
-6.12
-7.88
-8.83
-9.53
-10.45
-11.72
-13.06
-13.98
-14.07
-13.29
-11.99
-10.77
-10.10
-10.06
-10.35
-10.46
-9.99
-8.90
-7.55
-6.51
-6.21
-6.63
-7.39
-7.90
-7.73
-6.87
-5.72
-4.87
-4.70
-5.21
-5.91
-6.22
-5.73
-4.54
-3.18
-2.34
-2.48
-3.52
-4.88
-5.65
-5.14
-3.14
-0.00
3.57
6.92
9.75
12.14
14.38
16.78
19.30
21.58
23.11
23.53
22.89
21.58
20.20
19.02
18.20
17.56
16.61
14.91
12.36
9.31
6.46
4.53
3.82
4.10
4.65
4.62
3.53
1.49
-0.87
-2.75
-3.62
-3.53
-3.06
-3.02
-4.01
-6.06
-8.68
-11.10
-12.76
-13.59
-14.04
-14.75
-16.17
-18.26
-20.55
-22.43
-23.67
-24.52
-25.69
-27.80
-30.91
-34.36
-36.93
-37.46
-35.41
-31.11
-25.57
-19.87
-14.65
-9.90
-5.12
0.20
6.09
12.04
17.10
20.42
21.59
20.85
18.95
16.77
14.89
13.37
11.86
9.88
7.25
4.25
1.49
-0.37
-1.07
-0.84
-0.26
0.16
0.32
0.58
1.56
3.70
6.90
10.51
13.63
15.53
16.04
15.52
14.64
13.96
13.58
13.09
11.88
9.54
6.11
2.13
-1.66
-4.75
-7.15
-9.36
-12.06
-15.61
-19.74
-23.62
-26.13
-26.46
-24.40
-20.42
-15.36
-10.02
-4.76
0.45
5.87
11.63
17.43
22.63
26.49
28.62
29.11
28.55
27.71
27.09
26.75
26.30
25.19
23.12
20.21
17.01
14.20
12.22
11.09
10.37
9.53
8.19
6.39
4.53
3.16
2.56
2.60
2.76
2.37
1.04
-1.15
-3.72
-6.04
-7.73
-8.90
-10.04
-11.67
-14.01
-16.81
-19.48
-21.53
-22.93
-24.13
-25.83
-28.46
-31.76
-34.84
-36.54
-35.95
-32.88
-27.90
-22.02
-16.17
-10.83
-5.95
-1.16
3.86
8.99
13.73
17.34
19.25
19.38
18.15
16.37
14.81
13.89
13.53
13.29
12.71
11.69
10.53
9.79
9.90
10.83
11.98
12.48
11.62
9.32
6.17
3.21
1.34
0.80
1.04
0.97
-0.43
-3.59
-8.16
-13.22
-17.87
-21.69
-24.93
-28.26
-32.29
-37.14
-42.40
-47.40
-51.56
-54.76
-57.24
-59.34
-61.01
-61.68
-60.37
-56.14
-48.60
-38.14
-25.87
-13.19
-1.23
9.43
18.80
27.23
34.94
41.84
47.48
51.35
53.24
53.40
52.51
51.40
50.58
50.07
49.46
48.20
46.00
43.08
40.04
37.61
36.10
35.31
34.55
33.08
30.51
27.02
23.20
19.73
16.91
14.52
11.97
8.70
4.58
0.01
-4.29
-7.70
-10.06
-11.79
-13.66
-16.37
-20.14
-24.67
-29.25
-33.16
-36.00
-37.80
-38.82
-39.29
-39.07
-37.76
-34.81
-29.95
-23.44
-16.05
-8.80
-2.55
2.37
6.18
9.44
12.62
15.83
18.71
20.64
21.14
20.19
18.27
16.20
14.69
14.02
13.94
13.93
13.51
12.61
11.52
10.76
10.59
10.84
10.93
10.12
8.02
4.79
1.11
-2.15
-4.42
-5.73
-6.69
-8.13
-10.62
-14.08
-17.81
-20.85
-22.58
-23.04
-23.03
-23.65
-25.68
-29.17
-33.36
-37.02
-39.06
-38.98
-36.98
-33.73
-29.90
-25.85
-21.57
-16.86
-11.72
-6.46
-1.69
1.97
4.23
5.25
5.58
5.84
6.36
6.99
7.26
6.66
5.01
2.56
-0.05
-2.12
-3.25
-3.45
-3.13
-2.73
-2.48
-2.20
-1.39
0.42
3.39
7.12
10.88
13.90
15.81
16.80
17.50
18.61
20.39
22.53
24.24
24.67
23.41
20.62
16.91
12.94
9.03
5.12
0.95
-3.50
-7.80
-11.08
-12.43
-11.36
-8.08
-3.40
1.59
6.08
9.85
13.21
16.75
20.83
25.25
29.32
32.13
33.06
32.13
30.02
27.71
25.88
24.63
23.47
21.95
19.92
17.67
15.55
13.53
11.00
7.25
2.36
-2.50
-5.59
-5.92
-4.05
-1.87
-1.57
-4.56
-11.21
-21.50
-35.94
-55.59
-81.43
-112.69
-145.62
-174.05
-191.55
-194.12
-181.49
-156.51
-123.08
-84.98
-45.42
-7.05
27.44
55.54
75.61
87.03
90.66
90.39
90.62
93.03
95.92
96.20
92.01
83.70
74.64
66.47
60.17
55.49
51.39
47.00
42.29
37.95
34.81
32.97
32.00
31.21
29.55
26.09
20.70
14.23
8.13
3.71
1.53
1.11
1.53
1.65
0.76
-1.04
-2.92
-3.95
-3.74
-2.69
-1.79
-1.89
-3.32
-5.73
-8.23
-9.92
-10.40
-9.98
-9.48
-9.70
-10.91
-12.77
-14.57
-15.61
-15.61
-14.76
-13.60
-12.55
-11.66
-10.54
-8.72
-5.93
-2.47
0.94
3.50
4.74
4.83
4.41
4.28
4.95
6.33
7.79
8.55
8.10
6.44
4.13
1.98
0.67
0.42
1.01
1.90
2.60
2.88
2.82
2.66
2.56
2.52
2.34
1.90
1.25
0.72
0.72
1.49
2.90
4.41
5.31
5.06
3.62
1.48
-0.55
-1.79
-2.02
-1.60
-1.30
-1.85
-3.53
-6.00
-8.47
-10.08
-10.37
-9.47
-7.95
-6.41
-5.13
-3.85
-2.04
0.73
4.46
8.56
12.16
14.53
15.45
15.33
14.97
15.19
16.41
18.48
20.83
22.72
23.65
23.54
22.85
22.30
22.62
24.23
27.07
30.60
33.91
36.06
36.34
34.58
31.20
27.31
24.39
24.11
27.81
35.93
47.52
60.17
70.37
74.22
68.38
50.97
22.39
-14.22
-53.19
-87.55
-110.97
-119.74
-114.02
-97.11
-73.83
-48.63
-24.17
-1.72
18.29
35.46
49.22
59.08
65.36
69.14
71.55
72.94
72.24
67.86
58.76
45.29
28.92
12.10
-2.50
-12.90
-18.15
-19.09
-17.38
-14.60
-11.72
-10.03
-9.85
-10.56
-11.22
-10.78
-10.19
-10.55
-12.04
-14.13
-18.18
-25.31
-35.64
-48.30
-60.64
-72.54
-83.71
-93.15
-100.19
-108.59
-122.04
-141.89
-166.35
-189.77
-210.36
-227.04
-238.79
-245.84
-254.08
-268.83
-291.87
-321.04
-349.90
-378.02
-406.20
-434.56
-431.32
-378.46
-281.35
-165.41
-75.80
-11.47
34.16
66.05
92.51
116.14
133.90
144.04
148.26
151.08
159.70
173.81
190.96
209.22
227.01
240.42
247.04
247.21
243.51
240.95
239.46
237.84
235.50
231.95
225.01
213.23
196.74
177.17
157.80
138.78
119.68
100.57
81.82
63.28
45.12
27.98
12.67
0.35
-9.61
-17.99
-25.10
-30.91
-35.53
-39.17
-42.09
-44.48
-46.06
-46.75
-46.20
-43.91
-39.66
-33.70
-26.80
-19.89
-13.73
-8.59
-4.32
-0.58
2.87
5.91
8.23
9.53
9.88
9.74
9.77
10.42
11.52
12.30
11.73
9.24
5.21
0.96
-1.78
-1.91
0.29
2.97
3.58
0.08
-7.78
-18.17
-27.91
-34.05
-35.54
-33.79
-32.07
-33.76
-40.60
-51.70
-64.43
-75.87
-84.45
-90.59
-96.09
-103.10
-113.55
-129.15
-151.54
-181.60
-218.28
-257.19
-290.67
-309.67
-306.82
-279.21
-229.48
-164.76
-94.08
-25.48
36.13
89.58
136.30
178.14
215.24
244.99
263.07
266.40
256.26
239.36
225.64
223.45
234.58
252.92
267.57
269.07
254.95
231.05
208.00
195.01
195.00
203.96
213.86
217.43
211.49
197.47
179.10
159.61
139.83
118.44
93.50
64.27
32.12
0.18
-28.08
-50.27
-65.90
-76.34
-84.05
-91.46
-100.04
-109.87
-119.83
-128.18
-133.31
-134.39
-132.19
-129.09
-128.66
-134.19
-147.04
-165.22
-183.31
-193.91
-190.35
-169.28
-132.13
-84.49
-34.03
12.21
49.81
77.48
96.11
107.29
112.06
110.75
103.43
90.88
75.03
58.71
44.58
34.08
26.85
21.17
14.97
6.95
-2.84
-13.18
-22.56
-29.91
-35.04
-38.34
-40.37
-41.53
-42.00
-42.00
-42.05
-42.80
-44.80
-48.01
-51.66
-54.53
-55.45
-53.90
-50.16
-45.17
-39.84
-34.62
-29.29
-23.24
-15.96
-7.53
1.27
9.33
15.76
20.36
23.70
26.73
30.27
34.47
38.66
41.77
42.88
41.85
39.41
36.83
35.33
35.32
36.26
36.93
36.17
33.57
29.76
26.09
23.94
23.93
25.66
27.92
29.41
29.32
27.46
24.14
19.68
14.30
8.16
1.79
-3.59
-6.29
-4.81
1.22
10.53
20.32
27.29
28.73
23.47
12.00
-4.05
-22.76
-42.64
-62.67
-81.95
-98.98
-111.81
-118.48
-117.67
-109.12
-93.89
-74.08
-52.24
-30.77
-11.08
5.84
19.25
28.64
33.82
35.05
32.96
28.66
23.78
20.73
21.28
25.77
33.03
41.07
47.86
52.16
54.05
54.99
57.80
64.30
74.13
84.70
92.50
94.55
89.39
77.48
56.47
28.45
-0.95
-26.11
-44.88
-58.14
-67.31
-72.95
-74.87
-73.09
-67.71
-60.08
-52.34
-46.38
-42.80
-41.01
-39.85
-38.39
-36.21
-32.88
-28.65
-24.40
-21.04
-18.95
-17.87
-17.21
-16.41
-15.15
-13.04
-10.16
-7.06
-4.50
-2.91
-2.35
-2.46
-2.78
-2.83
-2.13
-0.62
1.27
2.78
3.23
2.26
0.14
-2.46
-4.60
-5.41
-4.55
-2.43
-0.03
1.56
1.56
0.06
-2.20
-4.10
-4.90
-4.38
-3.25
-2.75
-4.10
-8.44
-16.15
-27.38
-41.71
-57.50
-71.57
-79.65
-77.82
-64.05
-40.86
-13.69
10.85
27.72
35.37
35.74
32.55
29.07
26.68
24.83
22.62
19.69
16.75
15.02
15.27
17.16
19.52
20.98
20.49
18.17
14.91
11.94
10.26
10.22
11.45
13.11
14.30
14.41
13.46
11.81
10.04
8.66
7.92
7.83
8.28
9.02
9.74
10.12
9.80
8.64
6.98
5.65
5.61
7.11
9.21
9.96
7.12
-0.84
-14.20
-32.11
-53.16
-75.63
-97.14
-114.32
-122.58
-117.65
-97.68
-64.94
-25.87
11.14
39.09
55.06
60.78
60.94
60.20
61.02
63.22
65.31
66.00
65.04
62.99
60.17
55.89
48.60
37.38
23.03
8.47
-2.54
-7.43
-6.38
-2.10
2.07
4.45
5.91
8.55
13.40
18.61
20.04
13.94
0.15
-16.81
-29.85
-32.38
-23.34
-7.94
5.33
9.54
2.96
-10.28
-22.76
-27.78
-22.43
-8.33
10.10
27.83
40.82
46.47
43.62
32.76
16.25
-1.77
-16.38
-23.58
-22.05
-13.97
-4.25
1.86
1.28
-5.52
-15.34
-24.08
-28.74
-28.35
-23.82
-16.90
-9.07
-1.10
6.77
13.78
18.76
20.46
18.37
13.06
6.30
0.46
-2.23
-0.71
3.83
8.95
12.08
11.75
8.05
2.37
-3.33
-7.49
-8.79
-8.19
-7.79
-10.03
-16.40
-27.04
-40.89
-56.01
-70.25
-78.27
-76.83
-66.69
-52.64
-39.52
-29.63
-22.61
-16.90
-11.20
-5.37
-1.88
-2.67
-9.00
-20.04
-33.07
-44.38
-50.36
-48.50
-38.00
-20.52
2.09
25.61
45.47
58.26
62.94
61.35
57.46
55.48
57.62
63.45
70.27
75.28
77.14
76.49
75.19
74.97
76.27
77.87
78.04
75.55
70.70
64.92
59.52
54.69
49.26
41.45
29.93
14.81
-2.30
-18.83
-32.31
-41.37
-45.99
-47.08
-45.78
-42.88
-38.75
-33.69
-28.13
-22.69
-18.03
-14.58
-12.37
-11.16
-10.62
-10.52
-10.87
-11.83
-13.49
-15.75
-18.34
-20.83
-22.85
-24.17
-24.77
-24.78
-24.47
-24.05
-23.67
-23.34
-22.93
-22.31
-21.45
-20.48
-19.69
-19.34
-19.54
-20.18
-20.95
-21.49
-21.60
-21.27
-20.67
-20.05
-19.67
-19.73
-20.29
-21.25
-22.35
-23.28
-23.78
-23.85
-23.76
-23.92
-24.63
-25.96
-27.69
-29.39
-30.51
-30.45
-28.51
-24.14
-17.14
-8.04
1.86
10.82
17.32
20.73
21.56
21.08
20.68
21.12
22.35
23.71
24.49
24.37
23.51
22.30
21.07
19.81
18.27
16.14
13.38
10.25
7.33
5.17
4.07
3.87
4.03
3.86
2.84
0.89
-1.66
-4.21
-6.25
-7.53
-8.18
-8.57
-9.10
-9.97
-11.20
-12.69
-14.37
-16.31
-18.62
-21.34
-24.25
-26.86
-28.59
-28.96
-27.87
-25.59
-22.57
-19.21
-15.65
-11.78
-7.48
-2.87
1.51
4.90
6.60
6.33
4.44
1.72
-0.85
-2.49
-2.85
-2.08
-0.71
0.53
0.96
0.13
-1.90
-4.60
-7.12
-8.69
-8.97
-8.18
-6.86
-5.47
-3.87
-1.32
3.26
10.74
21.33
34.43
48.81
63.02
75.65
85.56
91.87
94.00
91.72
85.34
75.67
63.93
51.54
39.80
29.65
21.45
14.97
9.50
4.19
-1.56
-7.75
-13.76
-18.64
-21.64
-22.67
-22.46
-22.20
-22.97
-25.11
-28.04
-30.58
-31.57
-30.49
-27.70
-24.23
-21.16
-19.11
-17.94
-16.85
-14.85
-11.24
-5.95
0.53
7.29
13.42
18.20
21.22
22.48
22.51
22.63
24.95
31.92
45.24
64.52
86.28
104.16
110.61
99.73
69.79
24.35
-28.82
-80.50
-123.09
-152.40
-167.74
-170.55
-163.01
-147.30
-125.84
-101.74
-78.74
-60.18
-47.68
-40.31
-35.08
-28.41
-17.96
-3.67
12.27
26.71
36.89
41.58
41.26
37.60
32.66
28.07
24.66
22.45
21.05
20.06
19.36
19.10
19.49
20.50
21.74
22.60
22.54
21.37
19.39
17.23
15.49
14.42
13.77
12.99
11.58
9.42
6.88
4.59
3.07
2.36
1.98
1.15
-0.74
-3.76
-7.33
-10.50
-12.34
-12.40
-10.86
-8.43
-5.91
-3.82
-2.24
-0.80
0.99
3.37
6.18
8.88
10.87
11.81
11.78
11.27
10.83
10.77
11.04
11.29
11.19
10.66
9.95
9.45
9.40
9.61
9.53
8.49
6.17
2.76
-1.06
-4.43
-6.74
-7.94
-8.47
-8.95
-9.84
-11.20
-12.69
-13.87
-14.49
-14.72
-15.03
-16.00
-17.92
-20.70
-23.79
-26.48
-28.16
-28.54
-27.71
-25.99
-23.62
-20.62
-16.81
-11.98
-6.13
0.30
6.58
11.91
15.84
18.42
20.15
21.72
23.60
25.81
27.99
29.62
30.36
30.26
29.66
29.01
28.58
28.28
27.69
26.38
24.11
21.07
17.75
14.77
12.43
10.58
8.64
5.94
2.08
-2.75
-7.86
-12.36
-15.65
-17.67
-18.90
-20.08
-21.81
-24.22
-27.05
-29.85
-32.29
-34.37
-36.32
-38.34
-40.30
-41.71
-41.84
-40.10
-36.34
-31.00
-24.96
-19.14
-14.12
-9.93
-6.10
-2.02
2.68
7.86
12.93
17.14
20.01
21.54
22.20
22.68
23.47
24.61
25.73
26.32
26.11
25.25
24.23
23.58
23.53
23.84
23.98
23.40
21.92
19.82
17.73
16.24
15.59
15.46
15.19
14.07
11.77
8.43
4.63
1.05
-1.92
-4.37
-6.76
-9.69
-13.41
-17.73
-22.00
-25.41
-27.38
-27.79
-27.01
-25.60
-24.03
-22.38
-20.40
-17.72
-14.20
-10.12
-6.07
-2.69
-0.31
1.21
2.33
3.53
5.02
6.58
7.77
8.19
7.78
6.84
5.91
5.41
5.42
5.69
5.76
5.29
4.29
3.08
2.10
1.67
1.76
2.03
2.05
1.54
0.61
-0.39
-0.99
-0.95
-0.32
0.53
1.15
1.25
0.85
0.20
-0.35
-0.59
-0.62
-0.83
-1.70
-3.54
-6.19
-9.05
-11.23
-11.99
-11.10
-8.93
-6.23
-3.69
-1.59
0.35
2.70
5.99
10.27
15.10
19.75
23.58
26.36
28.31
29.83
31.23
32.42
33.03
32.66
31.26
29.25
27.42
26.50
26.77
27.85
28.90
29.00
27.70
25.20
22.23
19.68
18.11
17.47
17.19
16.52
14.98
12.58
9.79
7.27
5.46
4.36
3.49
2.21
0.06
-2.96
-6.41
-9.64
-12.20
-14.06
-15.62
-17.37
-19.52
-21.71
-23.08
-22.72
-20.12
-15.52
-9.83
-4.20
0.51
4.04
6.76
9.28
11.96
14.73
17.07
18.39
18.39
17.33
15.83
14.54
13.82
13.45
12.88
11.53
9.19
6.18
3.18
0.87
-0.45
-1.01
-1.44
-2.34
-4.01
-6.22
-8.44
-10.11
-11.03
-11.41
-11.80
-12.75
-14.46
-16.67
-18.76
-20.09
-20.30
-19.59
-18.48
-17.60
-17.36
-17.72
-18.32
-18.72
-18.65
-18.16
-17.49
-16.87
-16.32
-15.56
-14.17
-11.84
-8.55
-4.66
-0.71
2.79
5.62
7.85
9.81
11.80
13.90
15.87
17.28
17.81
17.46
16.65
15.98
16.00
16.84
18.21
19.53
20.33
20.42
20.04
19.59
19.45
19.67
20.06
20.32
20.33
20.22
20.32
20.86
21.76
22.55
22.58
21.42
19.16
16.54
14.55
13.97
14.84
16.33
17.14
16.21
13.35
9.45
6.10
4.79
6.04
9.14
12.46
14.26
13.53
10.48
6.34
2.89
2.11
5.85
15.59
31.76
52.91
75.34
93.64
102.52
98.92
83.50
60.42
35.55
13.96
-1.75
-11.75
-17.68
-21.15
-22.88
-22.80
-20.81
-17.35
-13.39
-9.83
-6.97
-4.44
-1.55
2.17
6.67
11.33
15.24
17.59
17.99
16.53
13.74
10.30
6.75
3.28
-0.40
-4.87
-10.66
-17.97
-26.56
-35.77
-44.76
-52.68
-58.85
-62.93
-64.92
-65.20
-64.50
-63.49
-62.40
-60.79
-57.78
-52.62
-45.32
-36.97
-29.41
-24.55
-23.16
-24.29
-25.32
-22.99
-14.88
-0.69
17.29
34.70
46.44
48.84
41.52
27.98
14.72
8.87
15.43
35.30
64.90
97.01
123.86
139.80
142.56
133.04
114.09
89.55
63.75
40.95
23.28
11.09
3.08
-3.08
-9.90
-18.84
-29.19
-37.80
-40.32
-35.46
-24.81
-12.16
-1.73
3.07
0.41
-9.53
-24.97
-43.97
-68.38
-101.53
-145.61
-199.24
-257.53
-314.13
-363.52
-402.65
-414.11
-386.91
-322.51
-236.17
-147.05
-67.70
-1.97
51.23
94.26
128.59
152.69
165.14
166.70
160.97
152.79
145.85
141.67
139.98
138.48
134.12
124.52
109.22
89.98
69.41
49.28
30.02
14.75
3.07
-6.33
-14.29
-20.81
-25.26
-27.39
-27.96
-28.38
-29.61
-32.02
-34.89
-36.82
-36.72
-34.22
-30.20
-26.40
-24.60
-25.58
-29.78
-36.87
-45.89
-54.60
-58.95
-53.97
-36.20
-6.61
28.28
57.41
70.58
63.29
39.11
7.95
-18.95
-34.41
-39.00
-36.68
-33.24
-31.92
-32.25
-31.50
-27.37
-20.00
-12.01
-6.90
-6.86
-12.38
-21.24
-29.61
-33.84
-32.16
-25.02
-15.02
-5.78
-0.24
-0.93
-8.75
-23.60
-44.62
-69.99
-96.39
-119.06
-132.84
-131.17
-114.65
-88.54
-60.51
-37.37
-22.22
-13.59
-7.13
1.40
14.48
30.91
48.58
66.00
83.46
102.62
125.08
151.15
177.12
201.24
221.56
236.59
244.32
241.90
226.41
196.62
154.69
106.51
60.37
23.14
-1.70
-14.81
-19.65
-20.13
-18.60
-15.71
-11.28
-5.31
0.67
4.75
5.68
3.80
0.81
-1.21
-0.68
2.50
7.26
11.58
13.59
12.39
8.30
2.61
-3.10
-7.80
-11.26
-13.96
-17.00
-21.39
-27.50
-34.92
-42.51
-48.88
-53.17
-54.98
-54.44
-52.17
-48.85
-44.78
-39.81
-33.35
-24.80
-14.46
-2.90
8.81
19.34
27.50
32.74
35.39
36.47
37.22
37.64
37.54
36.17
32.38
25.30
14.84
2.02
-11.30
-23.33
-34.04
-43.74
-53.57
-65.12
-79.92
-99.20
-123.90
-154.53
-182.74
-204.97
-216.85
-213.66
-192.59
-155.20
-107.83
-59.87
-20.11
6.59
19.30
21.81
19.28
15.41
11.50
7.33
2.75
-1.40
-3.43
-2.90
0.07
4.21
7.49
7.90
4.63
-1.75
-9.60
-16.96
-22.96
-27.20
-29.83
-31.57
-33.19
-34.93
-36.20
-36.11
-33.81
-29.33
-23.18
-15.87
-8.40
-1.75
3.65
8.00
11.88
15.99
20.77
26.32
33.29
41.40
49.98
58.31
65.83
72.16
77.00
80.20
81.63
82.43
83.09
83.93
85.32
87.75
91.76
97.91
106.70
111.28
111.43
108.23
102.93
96.41
89.19
81.49
73.35
64.77
55.76
47.29
39.77
33.19
27.36
22.07
17.11
12.37
7.74
3.08
-1.14
-4.75
-7.94
-11.00
-14.30
-18.15
-22.70
-28.10
-32.91
-37.84
-43.16
-49.04
-55.62
-62.97
-71.10
-79.69
-88.44
-97.08
-105.42
-113.11
-120.07
-126.41
-132.36
-138.26
-143.95
-149.44
-154.73
-159.91
-164.90
-169.70
-174.41
-179.18
-184.26
-189.23
-193.78
-197.60
-200.44
-201.82
-201.16
-197.68
-190.07
-180.89
-170.82
-160.11
-148.77
-136.77
-124.05
-110.73
-97.17
-83.91
-71.53
-59.81
-48.42
-36.89
-24.73
-11.62
2.40
16.89
31.17
44.59
57.35
70.00
83.51
98.93
117.03
137.96
161.23
185.89
210.80
235.41
259.52
283.42
307.87
334.09
363.32
396.22
431.87
467.07
496.72
514.85
516.79
500.96
469.54
427.59
381.10
334.99
291.97
252.75
217.00
184.32
154.66
128.08
104.40
83.23
64.28
47.73
34.10
23.59
15.56
8.39
0.13
-10.54
-23.66
-38.09
-52.16
-64.58
-74.91
-83.42
-90.46
-95.90
-99.10
-99.30
-96.12
-89.82
-81.31
-71.92
-63.22
-56.76
-53.77
-54.75
-59.11
-65.24
-70.92
-74.08
-73.51
-69.08
-61.65
-52.52
-42.98
-34.20
-27.30
-23.33
-23.16
-27.08
-34.46
-43.77
-53.01
-60.44
-65.17
-67.44
-68.24
-68.73
-69.56
-70.70
-71.59
-71.63
-70.61
-68.81
-66.79
-65.01
-63.56
-62.21
-60.62
-58.62
-56.27
-53.73
-51.11
-48.17
-44.53
-39.87
-34.22
-28.11
-22.42
-18.00
-15.28
-14.07
-13.63
-13.10
-11.82
-9.68
-7.07
-4.66
-3.03
-2.36
-2.45
-2.80
-2.97
-2.76
-2.36
-2.15
-2.58
-3.82
-5.75
-7.99
-10.07
-11.72
-12.98
-14.12
-15.58
-17.69
-20.51
-23.85
-27.31
-30.47
-33.09
-35.17
-36.93
-38.75
-40.98
-43.84
-47.39
-51.51
-55.92
-60.30
-64.29
-67.59
-69.99
-71.42
-71.99
-71.96
-71.73
-71.69
-72.07
-72.82
-73.60
-73.90
-73.42
-72.46
-72.11
-73.98
-79.33
-87.95
-97.51
-103.86
-102.64
-91.14
-69.77
-41.98
-12.81
13.12
33.22
47.25
56.59
62.90
67.30
70.31
72.31
73.94
75.97
78.75
81.66
83.22
81.83
76.77
68.87
60.30
53.62
50.59
51.32
54.31
57.34
58.66
57.77
55.41
52.83
50.87
49.50
48.04
45.75
42.50
38.85
35.71
33.72
32.79
32.19
30.89
28.10
23.72
18.39
13.20
9.28
7.34
7.35
8.54
9.69
9.63
7.83
4.61
1.04
-1.61
-2.52
-1.65
0.26
2.16
3.27
3.51
3.40
3.66
4.70
6.25
7.46
7.40
5.58
2.30
-1.51
-4.73
-6.69
-7.48
-7.84
-8.71
-10.71
-13.78
-17.37
-20.73
-23.39
-25.46
-27.47
-30.05
-33.51
-37.68
-41.95
-45.63
-48.33
-50.13
-51.50
-52.99
-54.80
-56.63
-57.74
-57.22
-54.46
-49.33
-42.21
-33.83
-24.95
-16.10
-7.55
0.63
8.31
15.15
20.58
24.00
25.03
23.84
21.07
17.67
14.47
11.84
9.67
7.58
5.25
2.64
-0.01
-2.42
-4.52
-6.51
-8.68
-11.23
-14.04
-16.79
-19.18
-21.18
-23.09
-25.38
-28.44
-32.24
-36.28
-39.65
-41.36
-40.71
-37.62
-32.83
-27.81
-24.20
-23.20
-25.06
-28.88
-33.08
-36.10
-37.09
-36.06
-33.59
-30.27
-26.18
-20.98
-14.27
-6.02
3.19
12.50
21.33
29.72
38.41
48.37
60.12
73.33
86.78
98.84
108.16
114.13
116.96
117.24
115.51
111.97
106.57
99.38
90.88
81.99
73.69
66.66
60.88
55.71
50.00
42.37
31.44
16.27
-3.20
-25.62
-48.32
-67.73
-80.38
-83.93
-77.68
-62.66
-41.17
-16.20
9.01
31.45
48.77
59.90
65.35
67.12
68.02
70.53
75.73
82.81
89.51
93.06
91.33
83.51
70.33
53.60
35.66
18.83
5.01
-4.57
-9.53
-10.45
-8.80
-6.45
-5.00
-5.24
-6.90
-8.99
-10.41
-10.70
-10.20
-9.88
-10.85
-13.96
-19.60
-27.75
-37.98
-49.53
-61.32
-71.97
-80.26
-85.41
-87.33
-86.61
-84.11
-80.72
-77.06
-73.50
-70.36
-67.98
-66.75
-66.82
-68.00
-69.68
-71.11
-71.73
-71.44
-70.55
-69.47
-68.25
-66.31
-62.71
-56.50
-47.33
-35.73
-22.92
-10.24
1.28
11.24
19.72
26.79
32.32
35.86
37.05
35.98
33.43
30.64
28.83
28.57
29.60
30.98
31.63
30.96
29.13
26.86
24.99
23.99
23.72
23.53
22.61
20.38
16.65
11.63
5.72
-0.63
-7.05
-13.30
-19.31
-25.11
-30.75
-36.21
-41.31
-45.73
-49.19
-51.70
-53.64
-55.69
-58.42
-61.91
-65.61
-68.55
-69.81
-69.01
-66.46
-62.87
-58.86
-54.58
-49.60
-43.23
-34.81
-24.05
-10.99
4.12
21.00
39.28
58.35
77.28
94.86
109.84
121.25
128.58
131.85
131.46
128.09
122.59
115.94
109.14
102.96
97.80
93.48
89.39
84.73
78.96
71.99
64.20
56.21
48.60
41.70
35.61
30.25
25.52
21.39
17.79
14.63
11.73
8.94
6.19
3.48
0.91
-1.48
-3.73
-5.91
-8.02
-9.93
-11.38
-12.10
-11.95
-11.03
-9.65
-8.18
-6.93
-5.95
-5.14
-4.28
-3.23
-2.00
-0.83
-0.02
0.15
-0.42
-1.59
-3.03
-4.34
-5.25
-5.69
-5.87
-6.12
-6.74
-7.84
-9.26
-10.67
-11.77
-12.45
-12.88
-13.39
-14.29
-15.64
-17.24
-18.73
-19.78
-20.32
-20.53
-20.66
-20.93
-21.28
-21.47
-21.20
-20.38
-19.22
-18.20
-17.76
-18.07
-18.87
-19.51
-19.23
-17.57
-14.55
-10.72
-6.85
-3.59
-1.11
0.85
2.82
5.20
8.01
10.88
13.27
14.84
15.64
16.07
16.64
17.63
18.90
19.92
20.09
19.09
17.04
14.48
12.14
10.55
9.78
9.42
8.77
7.25
4.69
1.42
-1.95
-4.84
-7.02
-8.61
-9.99
-11.40
-12.74
-13.58
-13.39
-11.85
-9.09
-5.64
-2.18
0.74
2.89
4.35
5.35
6.03
6.41
6.35
5.80
4.92
4.09
3.83
4.57
6.44
9.16
12.21
15.07
17.43
19.32
21.03
22.88
24.97
27.11
28.86
29.81
29.74
28.76
27.22
25.54
23.94
22.36
20.56
18.30
15.54
12.50
9.58
7.11
5.16
3.43
1.45
-1.18
-4.52
-8.26
-11.82
-14.69
-16.69
-18.03
-19.16
-20.52
-22.32
-24.42
-26.47
-28.16
-29.42
-30.46
-31.64
-33.21
-35.11
-36.97
-38.20
-38.36
-37.31
-35.26
-32.70
-30.02
-27.40
-24.70
-21.62
-17.93
-13.67
-9.15
-4.84
-1.12
1.86
4.23
6.27
8.25
10.25
12.15
13.66
14.58
14.91
14.85
14.73
14.84
15.21
15.63
15.74
15.29
14.32
13.13
12.17
11.77
11.93
12.33
12.48
12.04
10.96
9.52
8.19
7.32
7.00
6.99
6.91
6.48
5.66
4.65
3.74
3.10
2.61
1.93
0.71
-1.18
-3.50
-5.73
-7.24
-7.67
-7.05
-5.80
-4.53
-3.66
-3.28
-3.12
-2.71
-1.64
0.17
2.49
4.87
6.94
8.54
9.78
10.94
12.22
13.62
14.87
15.63
15.69
15.10
14.21
13.44
13.09
13.12
13.19
12.83
11.76
10.05
8.11
6.47
5.47
5.04
4.78
4.16
2.91
1.08
-0.97
-2.84
-4.34
-5.64
-7.14
-9.16
-11.75
-14.64
-17.35
-19.50
-21.04
-22.24
-23.59
-25.48
-27.97
-30.73
-33.20
-34.81
-35.29
-34.76
-33.64
-32.38
-31.22
-30.10
-28.67
-26.58
-23.70
-20.24
-16.68
-13.51
-10.98
-8.96
-7.09
-4.99
-2.52
0.04
2.26
3.72
4.37
4.50
4.63
5.21
6.31
7.68
8.84
9.41
9.34
8.91
8.59
8.72
9.32
10.06
10.47
10.20
9.26
8.01
6.92
6.37
6.37
6.58
6.49
5.71
4.23
2.39
0.70
-0.43
-0.94
-1.17
-1.64
-2.72
-4.41
-6.30
-7.78
-8.33
-7.87
-6.71
-5.45
-4.55
-4.10
-3.79
-3.12
-1.74
0.30
2.59
4.54
5.73
6.12
6.05
6.01
6.33
6.98
7.66
7.91
7.51
6.58
5.55
4.95
5.09
5.94
7.14
8.16
8.62
8.45
7.87
7.34
7.24
7.71
8.60
9.56
10.24
10.47
10.30
9.92
9.50
9.05
8.42
7.46
6.22
5.01
4.33
4.50
5.35
6.19
6.00
4.06
0.56
-3.05
-4.52
-1.76
5.87
16.90
28.15
35.88
37.23
31.30
19.64
5.48
-7.63
-17.26
-22.61
-24.27
-23.43
-21.42
-19.37
-17.79
-16.75
-15.99
-15.15
-13.78
-11.29
-7.37
-2.47
1.92
4.34
4.08
1.95
0.02
1.11
7.90
22.06
43.44
66.14
82.13
84.33
70.99
45.97
15.22
-16.15
-44.63
-68.16
-85.62
-96.04
-98.65
-92.97
-79.47
-59.45
-34.71
-7.42
19.57
43.30
60.92
70.44
71.71
66.34
57.09
46.79
37.27
28.88
20.88
12.47
3.74
-4.31
-10.67
-15.30
-19.34
-24.72
-33.34
-44.83
-57.68
-69.40
-77.55
-80.91
-80.00
-76.62
-72.73
-69.48
-66.69
-63.45
-58.68
-52.09
-44.42
-37.09
-31.31
-27.33
-24.43
-21.32
-17.23
-12.34
-7.69
-4.68
-4.17
-5.95
-8.89
-11.41
-12.34
-11.54
-9.77
-8.24
-7.85
-8.79
-10.43
-11.76
-11.98
-10.89
-8.95
-6.91
-5.19
-3.55
-1.19
2.83
9.03
17.07
25.86
34.03
40.52
45.04
48.09
50.58
53.26
56.25
58.99
60.53
60.11
57.63
53.73
49.55
46.14
43.95
42.64
41.36
39.35
36.42
33.02
30.06
28.22
27.54
27.35
26.59
24.53
21.09
16.99
13.32
11.00
10.24
10.53
10.84
10.26
8.44
5.68
2.75
0.36
-1.32
-2.73
-4.53
-7.13
-10.27
-13.11
-14.71
-14.67
-13.46
-12.31
-12.57
-14.98
-19.30
-24.49
-29.26
-32.76
-34.92
-36.38
-37.92
-39.91
-42.06
-43.49
-43.22
-40.76
-36.47
-31.40
-26.88
-23.76
-22.09
-21.16
-19.97
-17.95
-15.43
-13.52
-13.53
-16.15
-20.95
-26.54
-31.24
-34.00
-34.96
-35.23
-36.12
-38.24
-41.06
-43.20
-43.35
-41.16
-37.54
-34.23
-32.74
-33.53
-35.72
-37.71
-38.10
-36.51
-33.72
-31.09
-29.69
-29.62
-29.89
-29.05
-25.90
-20.24
-12.96
-5.54
0.64
5.03
8.04
10.77
14.31
19.06
24.56
29.69
33.39
35.24
35.67
35.74
36.47
38.28
40.77
43.06
44.34
44.42
43.79
43.34
43.84
45.42
47.49
49.06
49.27
47.86
45.33
42.67
40.92
40.55
41.30
42.33
42.76
42.12
40.54
38.70
37.27
36.43
35.69
34.09
30.75
25.44
18.71
11.77
5.89
1.90
-0.14
-0.78
-0.70
-0.29
0.56
2.35
5.51
9.99
15.11
19.81
23.11
24.63
24.64
23.89
23.07
22.39
21.52
19.80
16.84
12.85
8.63
5.27
3.62
3.80
5.19
6.70
7.38
6.85
5.38
3.73
2.54
1.93
1.29
-0.36
-3.80
-9.09
-15.42
-21.48
-26.17
-29.19
-31.20
-33.46
-36.97
-41.93
-47.54
-52.44
-55.52
-56.64
-56.75
-57.42
-59.92
-64.49
-70.15
-75.20
-78.06
-78.15
-75.98
-72.73
-69.42
-66.21
-62.37
-56.85
-49.11
-39.68
-30.11
-22.21
-17.06
-14.51
-13.30
-11.77
-8.88
-4.75
-0.57
2.13
2.44
0.53
-2.35
-4.61
-5.20
-4.11
-2.35
-1.28
-1.75
-3.61
-5.77
-6.81
-5.80
-2.82
1.08
4.54
6.61
7.23
7.17
7.46
8.74
10.93
13.37
15.35
16.71
17.97
20.01
23.50
28.34
33.55
37.74
39.76
39.44
37.59
35.66
35.06
36.45
39.58
43.48
47.07
49.75
51.60
53.19
55.16
57.74
60.49
62.51
62.90
61.33
58.21
54.55
51.47
49.58
48.67
47.86
46.09
42.71
37.83
32.27
27.11
23.08
20.24
18.02
15.63
12.57
8.92
5.29
2.43
0.76
0.08
-0.40
-1.61
-4.11
-7.77
-11.85
-15.36
-17.67
-18.88
-19.76
-21.31
-24.19
-28.32
-32.90
-36.88
-39.57
-40.98
-41.80
-42.91
-44.75
-47.03
-48.77
-48.85
-46.69
-42.60
-37.66
-33.15
-29.94
-28.05
-26.90
-25.74
-24.29
-22.96
-22.54
-23.66
-26.21
-29.27
-31.53
-32.00
-30.56
-28.06
-25.82
-24.88
-25.39
-26.59
-27.24
-26.44
-24.23
-21.61
-20.06
-20.69
-23.55
-27.62
-31.32
-33.40
-33.63
-32.89
-32.67
-34.16
-37.56
-41.91
-45.55
-46.87
-44.99
-40.08
-33.10
-25.23
-17.26
-9.47
-1.68
6.33
14.40
21.90
27.92
31.70
33.04
32.46
30.95
29.56
28.94
29.18
29.96
30.98
32.25
34.10
37.05
41.31
46.48
51.63
55.52
57.23
56.45
53.69
49.92
46.16
43.02
40.57
38.45
36.30
34.14
32.39
31.67
32.39
34.32
36.63
38.16
38.06
36.13
32.90
29.34
26.23
23.75
21.43
18.49
14.42
9.40
4.25
0.08
-2.39
-3.19
-3.10
-3.22
-4.24
-6.10
-7.96
-8.71
-7.53
-4.44
-0.18
4.12
7.67
10.38
12.85
15.95
20.20
25.38
30.61
34.79
37.22
37.96
37.66
37.11
36.65
35.85
33.73
29.30
22.20
13.02
3.07
-6.09
-13.33
-18.40
-21.80
-24.43
-26.97
-29.57
-31.80
-33.08
-33.10
-32.26
-31.49
-31.88
-34.00
-37.66
-42.03
-46.09
-49.29
-51.82
-54.40
-57.71
-61.78
-65.81
-68.51
-68.77
-66.38
-62.16
-57.62
-54.18
-52.45
-51.95
-51.46
-49.65
-45.86
-40.39
-34.32
-28.84
-24.57
-21.28
-18.03
-13.83
-8.25
-1.86
4.11
8.30
10.08
9.88
8.98
8.86
10.36
13.29
16.57
18.92
19.67
19.16
18.56
19.14
21.53
25.24
29.02
31.47
31.97
30.95
29.68
29.51
31.10
34.12
37.42
39.76
40.42
39.50
37.76
36.07
34.93
34.19
33.24
31.45
28.52
24.71
20.68
17.10
14.35
12.34
10.63
8.81
6.81
5.03
4.18
4.85
7.14
10.47
13.83
16.20
17.11
16.77
15.93
15.43
15.70
16.50
17.15
16.94
15.61
13.54
11.54
10.41
10.42
11.15
11.73
11.36
9.79
7.41
5.08
3.53
2.96
2.92
2.53
1.03
-1.80
-5.46
-9.07
-11.80
-13.37
-14.20
-15.14
-16.96
-19.86
-23.35
-26.51
-28.52
-29.26
-29.45
-30.40
-33.33
-38.72
-45.97
-53.62
-60.00
-64.01
-65.49
-65.17
-64.00
-62.57
-60.71
-57.74
-52.97
-46.36
-38.68
-31.23
-25.09
-20.55
-16.98
-13.18
-8.19
-1.92
4.71
10.23
13.39
13.93
12.62
10.97
10.34
11.24
13.13
14.84
15.26
14.09
11.94
9.98
9.20
9.85
11.27
12.35
12.25
10.93
9.15
8.05
8.45
10.31
12.78
14.71
15.32
14.65
13.49
12.92
13.60
15.41
17.45
18.53
17.95
15.82
13.08
11.04
10.70
12.24
14.99
17.85
19.93
21.08
21.86
23.25
25.94
29.91
34.33
38.03
40.19
40.74
40.36
40.06
40.53
41.74
42.92
43.13
41.78
39.06
35.81
33.03
31.32
30.53
29.90
28.47
25.68
21.69
17.23
13.28
10.45
8.77
7.68
6.42
4.44
1.75
-1.21
-3.83
-5.78
-7.23
-8.80
-11.21
-14.77
-19.16
-23.60
-27.22
-29.62
-31.10
-32.58
-34.99
-38.71
-43.25
-47.42
-49.89
-49.92
-47.78
-44.57
-41.68
-40.02
-39.59
-39.57
-38.82
-36.62
-33.13
-29.33
-26.43
-25.14
-25.28
-25.83
-25.50
-23.48
-19.89
-15.68
-12.14
-10.05
-9.33
-9.08
-8.14
-5.81
-2.26
1.54
4.30
5.24
4.41
2.67
1.16
0.63
1.01
1.53
1.26
-0.19
-2.43
-4.41
-5.07
-4.01
-1.75
0.46
1.34
0.28
-2.31
-5.22
-7.01
-6.87
-4.96
-2.34
-0.34
0.18
-0.67
-1.90
-2.19
-0.67
2.65
6.94
11.10
14.42
16.97
19.49
22.83
27.35
32.58
37.41
40.63
41.62
40.60
38.52
36.60
35.70
35.91
36.69
37.19
36.84
35.60
34.05
32.92
32.66
33.11
33.63
33.39
31.93
29.38
26.37
23.72
21.84
20.58
19.26
17.12
13.79
9.57
5.27
1.83
-0.27
-1.23
-1.86
-3.09
-5.43
-8.70
-12.18
-15.02
-16.85
-18.00
-19.33
-21.66
-25.23
-29.47
-33.24
-35.40
-35.45
-33.77
-31.40
-29.44
-28.39
-28.00
-27.39
-25.67
-22.56
-18.59
-14.86
-12.38
-11.56
-11.91
-12.39
-12.00
-10.44
-8.28
-6.66
-6.67
-8.64
-12.04
-15.69
-18.44
-19.77
-20.06
-20.30
-21.45
-23.86
-27.04
-29.90
-31.34
-30.88
-28.96
-26.65
-25.03
-24.59
-25.00
-25.34
-24.73
-22.92
-20.48
-18.49
-17.86
-18.79
-20.61
-22.14
-22.40
-21.18
-19.15
-17.47
-17.10
-18.23
-20.13
-21.49
-21.16
-18.68
-14.51
-9.69
-5.21
-1.48
1.86
5.65
10.64
16.86
23.59
29.59
33.78
35.85
36.32
36.28
36.76
38.14
40.06
41.68
42.24
41.52
39.97
38.42
37.58
37.63
38.13
38.28
37.41
35.29
32.30
29.16
26.60
24.90
23.84
22.81
21.21
18.83
15.94
13.13
10.99
9.68
8.83
7.76
5.86
3.03
-0.25
-3.11
-4.77
-5.06
-4.50
-4.06
-4.63
-6.49
-9.17
-11.67
-13.01
-12.75
-11.23
-9.31
-7.81
-7.07
-6.75
-6.09
-4.38
-1.49
2.06
5.37
7.65
8.69
8.91
9.08
9.85
11.27
12.75
13.41
12.61
10.37
7.44
4.89
3.55
3.45
3.88
3.69
2.07
-1.05
-4.88
-8.25
-10.26
-10.84
-10.72
-11.04
-12.63
-15.60
-19.28
-22.68
-25.02
-26.25
-27.05
-28.37
-30.86
-34.43
-38.26
-41.19
-42.42
-41.98
-40.72
-39.90
-40.40
-42.26
-44.65
-46.27
-46.10
-43.95
-40.47
-36.72
-33.46
-30.73
-27.85
-23.86
-18.26
-11.41
-4.42
1.34
5.02
6.72
7.40
8.35
10.43
13.66
17.22
20.02
21.37
21.40
20.99
21.21
22.68
25.20
27.87
29.62
29.88
28.92
27.61
26.98
27.56
29.13
30.83
31.75
31.44
30.18
28.83
28.26
28.84
30.17
31.28
31.14
29.28
26.07
22.49
19.70
18.35
18.30
18.73
18.60
17.23
14.56
11.18
7.93
5.48
4.05
3.36
2.95
2.48
2.00
1.85
2.52
4.20
6.64
9.18
11.10
11.97
11.94
11.63
11.77
12.72
14.16
15.25
15.05
13.11
9.79
6.06
3.07
1.53
1.29
1.50
1.09
-0.59
-3.40
-6.49
-8.80
-9.70
-9.36
-8.69
-8.82
-10.45
-13.51
-17.14
-20.29
-22.28
-23.19
-23.81
-25.15
-27.73
-31.28
-34.82
-37.21
-37.83
-36.88
-35.34
-34.28
-34.24
-34.86
-35.16
-34.14
-31.50
-27.94
-24.81
-23.38
-24.04
-26.05
-27.89
-28.04
-25.81
-21.66
-16.95
-13.09
-10.82
-9.84
-9.08
-7.45
-4.51
-0.73
2.76
4.94
5.51
5.07
4.82
5.83
8.41
11.93
15.18
17.08
17.27
16.32
15.36
15.43
16.84
18.97
20.67
20.92
19.43
16.84
14.35
13.04
13.23
14.36
15.29
15.01
13.17
10.31
7.58
6.12
6.39
7.87
9.30
9.26
6.93
2.49
-2.91
-7.58
-10.06
-9.85
-7.61
-4.74
-2.77
-2.55
-4.07
-6.49
-8.42
-8.57
-6.37
-2.22
2.74
6.88
8.96
8.31
5.18
0.86
-2.86
-4.65
-4.12
-1.67
1.83
5.61
8.26
7.72
2.09
-9.60
-25.94
-42.32
-51.38
-46.10
-23.36
12.70
51.82
82.68
97.87
97.11
86.38
74.25
64.07
57.68
53.68
49.29
44.54
42.91
49.83
66.87
91.35
117.52
139.89
155.03
160.11
156.61
148.16
138.55
130.02
122.95
115.67
105.77
90.63
68.66
40.38
7.63
-27.08
-61.02
-91.08
-113.92
-126.43
-127.08
-116.79
-98.60
-77.14
-56.94
-40.97
-29.78
-22.19
-16.52
-11.90
-8.39
-6.19
-5.13
-4.51
-3.51
-1.72
0.46
2.06
1.98
-0.25
-4.07
-8.14
-10.97
-11.47
-9.38
-5.18
0.18
5.78
11.34
17.64
26.44
39.88
59.45
85.03
114.49
144.12
169.91
188.68
198.64
199.04
189.36
168.72
136.01
90.80
34.60
-28.55
-92.64
-151.26
-199.51
-235.14
-258.60
-272.02
-277.85
-277.91
-273.19
-264.44
-252.74
-239.73
-227.23
-216.58
-208.09
-201.12
-194.72
-188.43
-182.74
-179.00
-178.69
-182.74
-190.90
-201.88
-213.66
-224.44
-233.31
-240.70
-248.36
-258.76
-273.95
-294.24
-317.28
-338.15
-350.75
-349.84
-333.04
-301.67
-260.10
-213.90
-167.73
-123.99
-82.69
-42.37
-1.21
42.23
88.70
138.22
189.98
242.17
291.89
335.76
370.93
396.15
412.10
421.05
425.70
428.05
428.77
427.39
423.04
415.41
405.26
394.13
383.71
375.04
368.05
361.44
353.08
340.73
322.88
299.38
271.68
242.79
216.35
195.26
180.11
168.37
154.83
133.50
99.73
51.74
-8.84
-77.52
-148.28
-214.86
-271.77
-314.84
-341.42
-351.11
-346.30
-331.71
-312.69
-293.69
-277.15
-263.65
-252.90
-244.23
-237.46
-233.13
-231.61
-231.61
-230.27
-223.92
-209.66
-186.21
-153.22
-111.27
-62.11
-8.78
45.21
95.33
137.53
168.83
183.90
180.02
161.22
136.25
112.10
91.55
72.79
54.32
35.77
18.35
4.42
-4.31
-7.52
-6.14
-0.46
6.94
14.56
20.94
25.18
27.28
27.67
26.91
24.37
22.62
23.38
30.64
47.05
72.65
103.60
132.78
152.01
147.82
130.59
103.41
73.59
47.85
30.74
23.46
24.55
31.38
41.64
55.75
71.73
88.12
97.12
91.23
67.54
30.23
-11.97
-49.94
-76.08
-89.10
-91.08
-86.93
-81.11
-76.19
-72.50
-69.19
-65.50
-60.64
-55.90
-52.25
-50.33
-49.57
-48.82
-47.12
-44.41
-41.34
-38.61
-37.05
-36.74
-36.96
-36.39
-34.04
-30.15
-26.43
-24.96
-26.67
-30.59
-34.20
-33.64
-25.97
-10.53
10.58
33.24
52.96
66.13
71.81
71.13
66.70
61.38
57.56
56.55
58.37
61.73
63.94
61.50
51.00
31.01
3.45
-26.08
-49.62
-60.47
-56.33
-41.49
-23.65
-11.25
-9.06
-15.91
-25.65
-31.03
-27.69
-16.27
-1.53
10.54
15.54
12.47
3.17
-8.67
-19.52
-26.91
-29.54
-26.82
-18.69
-6.18
8.40
21.85
30.99
33.66
29.60
20.26
7.83
-5.54
-18.22
-28.68
-35.11
-35.36
-28.32
-15.01
0.71
13.15
17.36
11.49
-2.01
-17.44
-28.49
-31.27
-25.45
-13.66
0.14
12.72
22.25
28.12
30.21
28.30
22.28
12.99
2.79
-4.79
-6.24
0.18
13.37
29.58
43.88
52.34
53.42
48.52
40.66
33.46
29.34
29.15
32.49
38.21
44.93
50.84
53.73
51.12
41.29
24.33
2.50
-19.35
-35.46
-41.68
-37.55
-26.83
-16.07
-11.26
-15.32
-26.78
-40.85
-52.10
-57.08
-55.72
-50.04
-43.71
-38.75
-35.00
-30.93
-24.92
-16.83
-7.98
-0.62
3.34
3.13
-0.19
-4.38
-7.03
-6.49
-2.89
2.42
7.00
8.65
6.29
0.49
-7.39
-16.09
-24.83
-32.99
-39.26
-41.41
-36.26
-22.61
-1.35
23.80
47.56
65.46
75.87
80.45
82.43
84.07
84.38
79.87
66.54
42.79
11.13
-22.55
-51.56
-71.36
-80.87
-82.34
-79.50
-75.24
-70.82
-66.24
-61.62
-57.70
-55.89
-57.04
-60.62
-64.12
-63.75
-55.92
-38.65
-13.24
15.78
41.54
57.30
59.06
47.57
28.37
9.65
-1.28
-1.23
7.86
20.30
29.87
32.80
29.16
22.14
15.81
13.18
14.99
19.96
25.64
29.66
30.15
25.78
16.07
1.65
-15.13
-30.43
-39.87
-40.33
-31.20
-14.97
3.75
20.29
31.70
37.57
39.30
38.65
36.41
32.65
27.43
22.04
19.28
22.51
33.96
53.28
77.81
101.29
117.90
123.82
118.19
102.66
80.14
53.64
25.92
-0.32
-22.26
-36.94
-42.59
-39.54
-30.49
-19.66
-11.23
-7.80
-9.80
-15.79
-23.11
-29.05
-31.48
-29.26
-22.34
-11.67
0.96
13.47
23.96
31.35
35.31
35.83
32.87
26.24
15.80
1.92
-14.30
-31.15
-46.82
-60.12
-70.83
-79.56
-87.23
-94.41
-101.05
-106.65
-110.75
-113.06
-113.24
-110.51
-103.68
-91.55
-73.79
-51.58
-27.48
-4.70
14.01
27.23
35.11
38.76
39.50
38.35
36.06
33.56
32.31
34.24
41.10
53.71
71.27
91.43
110.70
125.34
132.37
130.26
119.10
100.34
76.42
50.57
26.46
7.79
-2.56
-3.57
3.34
14.48
24.94
30.12
27.01
14.67
-6.06
-33.29
-64.50
-96.66
-126.18
-149.01
-161.38
-160.96
-147.87
-124.95
-97.05
-69.47
-46.36
-29.56
-18.41
-10.54
-3.19
5.57
16.21
27.73
38.27
45.91
49.31
48.01
42.44
33.81
23.77
14.18
6.76
2.67
2.30
5.11
9.87
14.98
19.00
20.92
20.37
17.52
12.94
7.37
1.41
-4.60
-10.58
-16.57
-22.52
-28.22
-33.20
-36.98
-39.30
-40.40
-40.93
-41.84
-44.08
-48.22
-54.23
-61.49
-68.78
-74.53
-76.92
-74.17
-64.92
-48.62
-25.90
1.24
29.67
55.75
76.18
88.86
93.25
90.34
82.05
70.56
57.73
44.98
33.43
24.11
17.90
15.18
15.50
17.50
19.26
19.09
16.20
11.08
5.23
0.53
-1.64
-0.85
2.30
6.45
10.09
12.03
11.76
9.48
5.96
2.11
-1.31
-4.04
-6.40
-9.04
-12.63
-17.43
-23.19
-29.25
-34.71
-38.68
-40.42
-39.29
-34.90
-27.20
-16.64
-4.23
8.61
20.43
30.25
37.78
43.39
47.76
51.38
54.32
56.00
55.38
50.97
41.37
25.67
4.04
-21.88
-49.30
-75.15
-97.05
-113.80
-124.94
-129.79
-126.96
-114.91
-93.43
-64.86
-34.29
-7.85
9.81
17.47
17.55
14.41
11.85
11.31
11.79
11.26
8.39
3.50
-1.72
-5.42
-6.77
-6.30
-5.38
-5.55
-7.64
-11.56
-16.46
-21.23
-24.71
-26.05
-24.60
-20.01
-12.38
-2.43
8.24
17.30
22.19
20.84
12.40
-2.32
-21.11
-41.38
-61.23
-79.98
-97.82
-114.94
-130.76
-143.74
-151.87
-153.28
-146.69
-131.44
-107.48
-75.65
-38.26
0.37
34.45
58.32
68.78
66.73
57.20
47.28
42.99
46.81
57.11
69.74
80.42
86.93
89.71
91.03
93.23
97.36
102.83
108.02
111.27
111.44
107.89
100.17
87.99
71.52
52.06
32.19
15.50
5.56
4.63
12.96
28.52
47.41
64.75
75.80
77.25
68.47
51.87
32.32
15.53
5.97
5.44
12.64
24.05
35.47
43.34
45.48
41.27
31.43
17.89
3.56
-8.18
-14.32
-13.39
-6.24
3.99
13.13
17.56
15.59
8.04
-2.41
-12.37
-19.03
-20.88
-17.89
-11.16
-2.53
5.75
11.38
12.38
7.55
-3.02
-17.82
-34.17
-48.84
-59.03
-63.04
-60.71
-53.39
-43.44
-33.30
-24.63
-17.66
-11.25
-3.62
6.45
18.59
30.52
38.88
40.88
35.91
26.17
15.97
9.72
9.79
15.29
22.61
27.40
26.93
21.48
13.94
8.06
6.40
9.20
14.67
20.31
24.26
25.80
25.15
22.92
19.82
16.74
14.85
15.32
18.79
24.87
32.20
39.12
44.65
48.83
52.39
55.93
59.22
61.23
60.38
54.99
43.52
24.75
-1.74
-34.49
-69.36
-99.66
-118.01
-119.15
-102.40
-72.23
-36.45
-2.80
23.99
43.24
57.01
67.67
75.82
80.00
78.05
69.12
54.89
39.23
26.59
19.78
18.68
20.38
20.63
15.96
5.28
-9.38
-23.57
-32.29
-32.24
-23.37
-9.19
4.69
13.05
13.35
6.79
-2.59
-10.11
-12.82
-10.62
-5.62
-0.44
3.58
6.99
11.56
18.81
28.96
40.84
52.91
64.42
75.93
89.08
105.31
124.63
145.26
164.22
178.70
187.13
189.38
185.94
176.95
161.80
139.78
111.47
79.57
48.10
20.41
-2.83
-24.57
-49.96
-83.34
-125.10
-170.48
-211.27
-239.64
-252.08
-251.39
-245.76
-245.52
-259.23
-290.79
-338.45
-395.79
-453.71
-502.76
-535.14
-546.14
-534.71
-503.31
-456.86
-401.24
-341.87
-282.70
-226.18
-173.78
-126.55
-84.73
-47.59
-13.38
20.52
56.83
96.92
140.49
186.08
232.09
277.30
320.95
362.12
399.37
431.06
455.32
470.71
476.94
474.92
466.38
453.33
437.30
419.71
402.61
387.63
375.31
365.11
355.11
342.38
323.87
296.72
260.12
217.50
172.88
128.90
87.01
47.17
8.44
-30.12
-70.36
-112.62
-151.81
-184.30
-210.11
-230.92
-250.21
-272.18
-300.33
-338.40
-385.33
-428.53
-455.25
-457.69
-431.67
-378.31
-303.93
-218.73
-138.60
-78.33
-40.51
-26.25
-36.95
-69.00
-115.23
-166.76
-189.46
-160.71
-122.72
-95.54
-72.70
-56.27
-47.07
-42.91
-38.38
-26.84
-7.30
17.88
51.53
90.96
127.53
153.96
164.90
157.04
129.71
83.10
22.79
-34.19
-72.24
-84.06
-69.74
-37.19
1.28
34.02
52.10
52.69
41.92
26.26
8.90
-8.07
-23.19
-34.92
-41.57
-43.11
-40.74
-34.82
-26.98
-19.65
-13.84
-9.17
-4.45
1.36
8.19
15.29
22.37
28.97
34.32
37.93
39.46
38.81
36.37
33.17
30.69
30.43
33.23
38.98
46.60
54.36
60.62
64.20
64.70
62.37
57.87
52.03
45.57
39.05
32.83
26.97
21.39
16.01
10.83
6.15
2.46
0.25
-0.14
1.36
4.60
9.28
14.90
20.81
26.06
29.51
30.04
27.05
20.85
12.86
5.26
0.30
-0.77
1.62
5.52
8.20
7.45
2.49
-5.69
-15.01
-23.29
-29.28
-32.89
-34.84
-35.90
-36.35
-36.04
-34.70
-32.40
-29.70
-27.29
-25.50
-23.99
-21.89
-18.28
-12.68
-5.38
2.63
10.09
16.02
20.06
22.53
24.05
25.31
26.55
27.49
27.54
26.15
23.24
19.29
15.15
11.62
9.12
7.54
6.33
4.85
2.67
-0.17
-3.27
-6.05
-8.05
-9.17
-9.75
-10.50
-12.17
-15.21
-19.53
-24.52
-29.30
-33.18
-35.80
-37.26
-37.86
-37.91
-37.64
-37.11
-36.44
-35.97
-36.27
-37.93
-41.30
-46.13
-51.47
-55.80
-57.65
-56.17
-51.52
-44.68
-36.93
-29.18
-21.55
-13.45
-4.19
6.29
17.20
27.23
35.25
40.81
44.29
46.36
47.58
48.34
49.05
50.35
53.19
58.25
65.24
72.55
77.44
77.41
71.66
61.28
48.55
35.71
24.16
14.34
6.46
0.41
-3.38
-4.17
-2.16
0.92
2.42
0.28
-5.66
-13.03
-18.64
-18.81
-10.33
8.02
34.77
66.65
99.56
129.37
152.27
163.57
159.56
139.19
104.36
59.66
12.48
-28.38
-56.87
-64.38
-51.97
-32.32
-18.80
-16.39
-21.33
-25.74
-22.86
-10.73
7.30
23.87
32.47
31.08
21.81
8.74
-3.91
-13.16
-17.81
-18.51
-17.57
-16.99
-16.69
-15.12
-10.90
-3.67
5.63
14.86
20.76
21.53
17.29
10.60
4.76
1.89
2.46
5.72
10.34
13.25
12.70
8.65
3.42
-0.40
-1.25
1.21
6.46
13.64
18.59
18.75
13.36
4.47
-5.38
-14.52
-22.52
-30.21
-39.78
-59.32
-88.46
-126.86
-171.12
-217.03
-261.74
-304.96
-348.71
-368.39
-352.81
-308.08
-249.55
-186.07
-119.47
-51.04
15.28
74.49
123.34
156.93
173.37
170.32
148.18
111.37
68.86
32.81
15.42
25.45
62.08
122.53
197.27
267.15
312.89
326.06
309.87
272.76
224.16
170.65
119.16
75.61
44.16
26.02
18.24
16.65
16.85
15.80
10.38
-0.32
-16.23
-36.07
-57.52
-78.92
-100.99
-128.40
-160.45
-199.32
-244.69
-292.73
-335.94
-364.92
-371.85
-353.27
-311.68
-254.11
-190.29
-128.25
-73.19
-27.42
8.87
36.70
58.94
79.04
100.64
125.93
156.18
190.47
225.11
254.61
273.32
279.02
272.32
255.63
231.87
204.86
178.60
156.20
139.58
129.47
127.75
135.08
149.93
162.44
162.30
147.51
126.01
111.67
102.97
94.40
79.05
50.30
6.01
-51.13
-111.93
-163.84
-195.96
-203.56
-187.33
-154.46
-116.49
-84.89
-68.37
-67.93
-78.51
-94.02
-111.54
-130.28
-151.29
-175.59
-201.89
-228.25
-249.00
-257.61
-250.58
-229.60
-199.02
-164.12
-129.70
-82.95
-25.72
31.18
79.10
117.05
146.49
167.53
180.46
185.44
184.61
179.54
174.33
171.64
171.73
170.69
162.83
143.86
112.75
72.21
25.42
-22.36
-65.50
-99.79
-123.57
-136.54
-138.84
-131.43
-116.25
-97.86
-80.78
-68.61
-63.79
-67.68
-80.00
-98.74
-121.08
-143.81
-164.49
-180.30
-187.98
-184.40
-167.83
-138.74
-100.02
-56.56
-13.78
23.63
53.15
74.30
87.72
93.93
92.98
84.94
70.71
52.63
33.98
17.77
5.55
-3.26
-10.66
-18.92
-29.38
-42.17
-56.88
-73.31
-91.67
-111.87
-132.49
-150.32
-161.12
-161.41
-150.30
-129.95
-104.55
-78.42
-54.37
-33.29
-15.00
0.48
12.28
19.25
21.18
19.67
18.01
19.91
27.95
42.63
62.50
85.18
108.45
130.82
151.50
169.65
183.99
192.99
195.51
191.56
182.59
171.05
159.50
149.75
142.52
137.61
134.23
131.32
127.69
121.93
112.70
98.95
80.38
57.73
32.65
7.19
-16.84
-38.42
-57.58
-75.09
-91.97
-108.93
-126.04
-142.78
-158.22
-171.47
-181.77
-188.56
-191.28
-189.43
-182.74
-171.35
-156.08
-138.25
-119.36
-100.64
-82.73
-65.76
-49.68
-34.67
-21.35
-10.65
-3.32
0.61
2.21
3.71
7.93
17.51
33.82
56.27
82.18
107.45
127.97
141.03
146.15
145.11
140.94
136.40
133.03
130.73
128.36
124.67
119.10
111.87
103.63
94.82
85.28
74.45
61.83
47.59
32.69
18.68
6.94
-1.88
-8.26
-13.52
-19.14
-25.89
-33.41
-40.21
-44.35
-44.39
-40.05
-32.39
-23.29
-14.55
-7.19
-1.24
3.97
9.06
14.16
18.82
22.38
24.54
25.66
26.58
28.19
30.91
34.43
37.96
40.75
42.52
43.63
44.84
46.81
49.64
52.75
55.13
55.78
54.23
50.75
46.19
41.60
37.70
34.65
32.02
29.15
25.53
21.03
15.97
10.88
6.17
1.91
-2.05
-5.89
-9.53
-12.63
-14.73
-15.64
-15.52
-14.89
-14.12
-13.16
-11.26
-7.28
-0.25
10.08
22.98
36.90
50.00
60.82
68.82
74.72
80.35
88.15
100.19
117.20
138.00
159.61
178.16
190.19
193.73
188.81
177.06
160.92
142.68
123.80
104.69
84.76
62.69
37.04
6.85
-27.60
-64.44
-100.43
-131.88
-155.85
-170.93
-177.52
-177.29
-172.36
-164.59
-155.35
-145.45
-135.45
-125.82
-116.80
-108.51
-100.90
-93.84
-87.26
-81.15
-75.41
-69.76
-63.75
-56.90
-48.99
-40.18
-30.97
-21.91
-13.36
-5.43
2.02
8.99
15.27
20.42
24.04
26.14
27.29
28.55
30.99
35.21
41.05
47.54
53.49
58.02
61.04
63.14
65.29
68.16
71.69
75.16
77.61
78.49
77.97
76.73
75.34
73.60
70.36
64.01
53.36
38.50
20.96
3.15
-12.64
-25.18
-34.60
-41.95
-48.40
-54.48
-59.92
-64.07
-66.54
-67.71
-68.63
-70.40
-73.52
-77.35
-80.37
-80.84
-77.63
-70.75
-61.32
-51.05
-41.47
-33.42
-26.92
-21.47
-16.49
-11.76
-7.46
-4.03
-1.85
-0.85
-0.51
-0.01
1.34
3.71
6.62
9.17
10.47
10.11
8.31
5.80
3.40
1.60
0.38
-0.73
-2.35
-4.86
-8.28
-12.22
-16.11
-19.53
-22.39
-25.01
-27.87
-31.29
-35.18
-39.06
-42.24
-44.30
-45.35
-46.08
-47.41
-49.92
-53.40
-56.83
-58.73
-57.80
-53.55
-46.48
-37.81
-28.86
-20.48
-12.82
-5.50
1.84
9.19
15.99
21.42
24.95
26.68
27.30
27.75
28.75
30.39
32.18
33.39
33.56
32.75
31.55
30.66
30.50
30.85
31.03
30.17
27.79
24.02
19.57
15.40
12.18
9.97
8.19
5.97
2.68
-1.75
-6.76
-11.49
-15.21
-17.79
-19.65
-21.57
-24.19
-27.71
-31.86
-36.11
-39.95
-43.11
-45.47
-46.84
-46.80
-44.70
-39.89
-32.14
-21.85
-10.15
1.50
11.77
19.93
26.05
30.79
34.99
39.15
43.14
46.40
48.26
48.45
47.31
45.58
44.07
43.19
42.79
42.34
41.30
39.49
37.25
35.19
33.90
33.56
33.78
33.83
32.95
30.79
27.58
24.05
21.02
19.00
17.84
16.80
14.95
11.70
7.15
2.05
-2.62
-6.27
-9.09
-12.02
-16.32
-22.96
-32.15
-43.27
-55.19
-66.70
-76.78
-84.73
-89.86
-91.41
-88.58
-80.89
-68.50
-52.51
-34.81
-17.62
-3.01
7.79
14.50
17.83
19.05
19.53
20.33
22.02
24.77
28.60
33.46
39.23
45.39
50.94
54.50
54.83
51.46
45.10
37.40
30.23
24.87
21.39
18.80
15.69
11.05
4.75
-2.51
-9.69
-15.95
-21.00
-25.09
-28.65
-32.10
-35.46
-38.56
-41.13
-43.11
-44.73
-46.51
-48.87
-51.81
-54.71
-56.36
-55.46
-51.16
-43.57
-33.76
-23.34
-13.60
-5.02
2.89
11.06
20.12
29.83
38.99
46.01
49.65
49.74
47.26
43.83
41.00
39.48
38.97
38.49
37.03
34.25
30.67
27.37
25.42
25.19
26.07
26.83
26.20
23.59
19.36
14.57
10.36
7.32
5.20
3.12
0.17
-4.03
-9.11
-14.16
-18.25
-21.06
-23.06
-25.29
-28.83
-34.10
-40.62
-47.06
-51.73
-53.23
-51.03
-45.50
-37.71
-28.87
-19.86
-11.16
-2.87
4.91
11.89
17.52
21.28
22.97
22.91
21.84
20.62
19.88
19.66
19.55
18.84
17.07
14.26
10.95
7.98
6.00
5.11
4.78
4.11
2.41
-0.47
-4.06
-7.51
-10.25
-12.31
-14.40
-17.37
-21.75
-27.27
-33.02
-37.94
-41.39
-43.54
-45.33
-47.92
-52.04
-57.63
-63.92
-69.84
-74.62
-78.03
-80.33
-81.94
-82.86
-82.60
-80.41
-75.65
-68.28
-58.71
-47.51
-35.15
-21.93
-8.12
5.65
18.15
27.96
33.90
35.78
34.70
32.35
30.15
28.74
27.95
26.85
24.80
21.49
17.22
12.84
8.92
5.50
2.43
-0.59
-4.44
-9.57
-16.45
-24.90
-33.69
-40.97
-44.61
-41.89
-30.90
-11.75
14.28
41.57
61.35
67.18
59.43
43.80
27.50
18.38
16.03
18.84
25.55
36.51
54.33
79.56
112.41
152.31
195.29
234.31
263.09
278.26
280.44
273.32
260.87
233.06
186.94
128.10
67.70
16.25
-20.80
-42.87
-53.67
-57.64
-57.79
-54.62
-49.23
-44.02
-41.50
-41.12
-41.80
-42.85
-45.47
-52.90
-66.81
-86.58
-108.34
-126.17
-135.35
-135.54
-131.21
-128.93
-133.20
-142.67
-151.53
-152.90
-142.79
-122.33
-97.30
-75.07
-61.03
-56.37
-57.71
-59.67
-57.79
-50.39
-38.82
-26.23
-15.43
-7.38
-1.22
4.72
11.11
16.88
19.80
18.12
11.92
3.46
-3.46
-5.06
0.93
14.43
32.97
52.38
68.08
76.49
76.18
68.15
55.22
40.98
28.64
20.42
17.43
19.73
26.53
36.14
46.01
53.31
55.76
52.48
44.45
34.00
23.76
15.62
10.21
7.08
5.22
3.78
2.37
1.04
0.07
-0.32
-0.21
0.00
-0.44
-2.33
-6.10
-11.64
-18.13
-24.49
-29.92
-34.29
-38.01
-41.53
-44.77
-47.05
-47.47
-45.62
-42.11
-38.36
-36.10
-36.49
-39.57
-44.09
-47.68
-47.24
-39.65
-22.81
2.98
33.99
63.39
83.15
87.08
73.62
46.81
14.84
-13.13
-30.10
-33.06
-23.04
-4.17
17.62
35.76
44.18
39.06
20.43
-6.74
-33.50
-49.91
-49.13
-30.62
-0.70
30.08
51.32
57.06
47.72
29.03
8.70
-7.27
-16.86
-21.79
-25.30
-29.38
-33.36
-34.36
-29.41
-17.69
-1.46
14.65
25.52
27.49
19.80
4.62
-13.82
-30.64
-41.94
-45.96
-43.50
-37.36
-30.85
-26.18
-23.49
-21.15
-17.18
-10.81
-3.27
2.94
5.68
4.50
1.00
-2.12
-2.53
0.49
5.91
11.66
15.79
17.49
17.27
16.58
16.90
19.01
22.58
26.42
29.15
29.84
28.47
25.73
22.63
19.94
17.87
16.23
14.73
13.26
11.91
10.79
9.75
8.40
6.22
2.98
-1.07
-5.24
-8.71
-11.04
-12.48
-14.00
-16.78
-21.63
-28.47
-36.20
-43.22
-48.09
-50.18
-49.79
-47.86
-45.26
-42.33
-38.85
-34.56
-29.67
-24.92
-21.06
-18.17
-15.19
-10.35
-2.21
9.31
22.47
34.34
42.10
44.28
41.30
34.95
27.52
20.88
16.10
13.64
13.64
16.08
20.63
26.57
32.72
37.85
40.93
41.46
39.47
35.38
29.83
23.55
17.25
11.65
7.33
4.57
3.32
3.17
3.54
3.90
3.98
3.84
3.69
3.68
3.76
3.73
3.44
3.02
2.92
3.73
5.94
9.68
14.65
20.34
26.23
32.02
37.66
43.17
48.49
53.22
56.61
57.78
56.25
52.45
47.80
44.32
43.61
45.92
49.74
52.46
51.57
45.98
36.42
24.91
13.60
3.70
-4.80
-12.60
-20.29
-27.84
-34.70
-40.29
-44.31
-46.77
-47.67
-46.86
-44.30
-40.58
-37.16
-36.00
-38.85
-46.22
-57.16
-69.67
-81.39
-90.32
-95.00
-94.42
-88.10
-76.46
-61.19
-45.34
-32.42
-25.02
-23.47
-25.53
-27.43
-25.82
-19.50
-9.89
-0.03
7.20
10.64
11.23
11.08
12.06
14.62
17.74
19.80
19.69
17.56
14.74
12.92
13.14
15.19
17.74
19.05
17.88
14.09
8.60
2.79
-2.29
-6.42
-10.04
-13.62
-17.00
-19.19
-18.92
-15.55
-9.84
-3.79
0.05
-0.09
-4.50
-12.07
-21.04
-30.07
-38.76
-47.55
-57.07
-67.20
-76.50
-82.47
-82.34
-74.38
-58.97
-38.98
-19.08
-4.01
3.21
2.56
-3.20
-9.71
-12.92
-10.46
-2.19
10.20
24.11
36.84
46.07
50.05
47.69
38.89
24.81
8.08
-7.59
-18.47
-22.24
-18.91
-10.87
-1.72
5.46
9.63
12.06
15.21
21.01
29.60
39.43
48.41
55.21
59.68
62.16
62.17
58.00
47.65
30.51
9.04
-11.56
-25.58
-29.76
-25.13
-16.42
-9.34
-7.48
-10.79
-16.22
-19.88
-19.30
-14.17
-5.45
5.64
18.11
30.72
41.33
47.05
45.40
35.80
20.18
2.40
-13.22
-23.14
-24.83
-16.43
3.19
33.37
70.36
106.54
131.62
136.19
116.20
75.74
26.34
-17.63
-45.12
-52.90
-45.96
-33.86
-25.22
-23.29
-25.67
-27.27
-24.40
-17.40
-10.09
-6.90
-9.75
-17.01
-24.83
-29.72
-30.73
-29.57
-29.26
-32.27
-39.10
-47.88
-55.31
-58.11
-54.26
-43.91
-29.37
-14.13
-1.51
6.67
10.72
12.71
15.38
20.76
29.19
39.28
48.65
55.12
57.69
57.00
54.71
52.83
52.71
54.58
57.74
61.06
63.35
63.53
60.50
53.15
40.88
24.22
5.33
-12.35
-25.24
-31.22
-30.52
-25.66
-20.19
-17.09
-17.64
-21.30
-26.60
-32.10
-37.13
-41.80
-46.59
-51.79
-57.18
-62.01
-64.94
-64.39
-59.27
-49.50
-36.46
-22.71
-11.02
-3.39
-0.43
-1.38
-4.52
-7.58
-8.04
-3.35
8.46
27.83
52.73
78.72
100.30
112.71
113.40
102.44
82.10
56.06
28.64
4.37
-12.81
-20.47
-18.60
-9.89
1.45
11.56
18.51
22.35
23.99
23.98
21.84
16.62
7.79
-4.09
-17.70
-31.53
-44.26
-54.37
-59.92
-58.82
-49.76
-33.08
-11.27
11.70
31.63
45.51
52.14
51.97
45.99
34.61
17.53
-5.09
-31.56
-57.95
-78.81
-89.19
-86.99
-73.74
-53.70
-31.42
-9.37
12.44
34.59
55.61
70.97
74.83
63.67
39.43
9.45
-16.76
-32.07
-34.59
-27.31
-14.98
-1.08
13.46
28.70
43.26
53.02
52.72
39.02
13.19
-18.64
-47.91
-66.82
-70.81
-59.23
-34.55
-1.51
33.52
62.87
78.84
76.28
55.08
21.23
-14.99
-43.25
-57.30
-56.94
-46.87
-33.48
-21.72
-13.53
-8.64
-6.20
-5.99
-8.48
-13.95
-21.59
-29.43
-35.00
-36.33
-32.42
-23.33
-9.92
6.40
24.01
41.01
55.03
63.49
64.40
57.49
44.75
29.95
17.30
9.50
6.46
5.74
4.05
-0.28
-5.79
-8.40
-3.99
8.42
24.87
37.73
39.58
27.34
4.08
-22.70
-44.97
-58.02
-62.12
-61.42
-60.71
-62.44
-65.77
-67.79
-65.97
-59.96
-51.79
-44.50
-40.46
-40.18
-42.26
-44.28
-43.92
-39.88
-32.46
-23.46
-15.25
-9.52
-6.57
-5.41
-4.50
-2.76
-0.05
2.87
5.00
5.73
5.22
4.19
3.43
3.26
3.38
3.16
1.97
-0.30
-3.10
-5.62
-7.13
-7.20
-5.67
-2.45
2.47
8.77
15.75
22.62
29.27
36.70
46.76
60.95
79.02
98.25
114.02
121.67
118.39
103.89
79.98
49.46
15.29
-19.56
-51.41
-75.82
-88.03
-84.50
-64.75
-32.44
4.60
36.22
53.15
50.43
29.70
-1.00
-30.35
-48.27
-49.82
-36.56
-14.71
8.56
28.36
42.79
51.42
53.48
47.44
32.54
10.60
-13.29
-32.33
-41.02
-37.75
-25.11
-8.09
8.69
22.99
34.77
44.30
50.39
49.85
39.37
18.18
-10.10
-37.99
-57.14
-61.88
-51.55
-30.46
-5.62
15.96
29.36
32.40
25.30
9.95
-10.47
-32.01
-50.63
-62.96
-67.38
-64.21
-55.42
-43.45
-30.31
-16.96
-3.26
11.56
27.72
43.73
56.00
60.14
53.33
36.52
14.89
-4.20
-14.86
-15.22
-7.92
2.26
11.83
20.45
30.03
41.79
53.70
60.58
57.12
41.38
16.59
-10.15
-31.29
-42.05
-41.78
-32.99
-19.55
-4.72
9.27
20.45
26.02
22.62
8.23
-15.64
-43.36
-67.01
-80.04
-80.37
-71.18
-58.78
-49.14
-44.91
-44.70
-44.96
-42.72
-37.39
-30.70
-25.50
-24.70
-30.81
-45.55
-68.92
-97.60
-124.35
-139.56
-135.21
-109.30
-68.12
-24.40
8.43
22.63
19.55
8.14
-0.68
0.36
11.70
28.00
42.75
52.63
58.84
65.13
73.41
80.71
81.10
70.10
48.24
22.14
1.62
-5.75
1.60
17.92
32.33
36.76
30.64
20.05
14.17
20.30
40.57
73.16
112.98
151.99
184.06
205.79
214.19
206.51
181.45
141.18
93.97
50.98
19.69
4.50
5.51
17.76
34.54
50.87
55.25
42.24
27.39
15.34
-0.68
-24.26
-56.39
-95.03
-136.39
-176.49
-210.59
-234.90
-248.97
-251.30
-239.44
-213.17
-175.27
-131.14
-87.16
-47.66
-15.23
7.01
18.10
19.41
13.20
3.03
-6.28
-9.37
-1.33
19.61
49.64
82.09
109.75
126.48
129.05
117.72
95.62
67.79
39.55
14.92
-2.97
-12.19
-12.84
-6.99
1.73
9.27
12.47
9.92
2.21
-7.84
-15.96
-17.75
-10.18
7.15
31.51
57.58
79.08
90.78
90.21
78.46
59.55
38.98
21.92
11.76
9.60
14.34
23.33
33.11
40.13
41.65
36.75
27.06
16.79
11.48
15.81
31.40
55.74
83.12
106.91
122.15
126.95
122.30
110.61
94.36
75.52
55.93
37.71
23.06
13.59
9.55
9.85
12.45
15.12
15.61
11.63
0.66
-19.67
-50.77
-92.27
-141.49
-193.34
-240.89
-276.95
-296.46
-298.64
-287.82
-271.73
-257.65
-248.38
-240.28
-225.01
-194.42
-145.74
-84.04
-20.40
33.33
69.67
88.14
94.21
95.55
98.17
104.38
112.88
120.06
122.02
116.25
103.00
85.42
68.59
57.60
55.34
61.17
71.22
80.29
84.13
81.08
72.24
60.19
47.36
34.90
22.49
9.23
-5.21
-19.97
-33.07
-42.34
-46.50
-45.66
-41.41
-36.25
-32.43
-31.13
-31.98
-33.38
-33.36
-30.56
-24.87
-17.49
-10.23
-4.74
-1.70
-0.69
-0.56
0.02
1.75
4.52
7.44
9.43
9.77
8.53
6.49
4.74
4.11
4.76
6.17
7.45
7.88
7.25
5.91
4.51
3.62
3.40
3.52
3.40
2.53
0.77
-1.57
-3.94
-5.92
-7.49
-9.05
-11.20
-14.38
-18.57
-23.32
-27.88
-31.66
-34.41
-36.23
-37.36
-37.86
-37.50
-35.77
-32.27
-26.91
-20.14
-12.81
-5.84
0.13
4.98
9.02
12.73
16.40
19.93
22.88
24.76
25.33
24.78
23.63
22.46
21.64
21.13
20.61
19.66
18.08
15.97
13.67
11.59
9.94
8.59
7.20
5.35
2.85
-0.20
-3.45
-6.46
-8.99
-11.14
-13.25
-15.69
-18.59
-21.82
-25.02
-27.81
-29.95
-31.56
-33.09
-35.14
-38.11
-42.01
-46.38
-50.50
-53.66
-55.28
-55.19
-53.50
-50.40
-45.87
-39.83
-32.34
-23.88
-15.32
-7.28
-0.35
5.36
10.31
15.55
22.11
30.48
40.14
49.77
58.55
65.66
70.82
74.64
78.68
84.66
93.81
106.09
120.25
135.30
149.13
159.02
162.86
160.45
153.66
145.81
139.91
137.37
138.86
141.98
142.64
137.15
123.92
103.35
77.33
48.14
9.78
-35.48
-79.53
-114.57
-139.36
-157.64
-175.82
-195.61
-214.32
-227.21
-227.01
-211.12
-182.54
-147.30
-110.48
-74.15
-37.69
-0.53
35.88
69.08
94.99
110.10
113.24
105.87
90.42
68.88
41.97
10.46
-22.58
-52.55
-73.84
-81.54
-73.52
-52.17
-24.08
1.94
18.41
22.51
16.30
5.31
-4.57
-9.98
-11.25
-11.24
-13.07
-18.00
-24.77
-31.07
-35.13
-36.72
-37.00
-37.50
-39.13
-41.89
-45.10
-48.04
-50.41
-52.51
-54.85
-57.64
-60.23
-61.01
-58.03
-50.01
-37.34
-22.31
-8.32
1.49
5.73
5.34
3.14
2.42
5.48
12.78
23.04
34.06
43.71
50.67
54.56
55.84
55.41
54.35
53.53
53.36
53.68
53.91
53.50
52.38
51.20
51.02
52.65
55.96
59.64
61.75
60.73
56.45
50.43
45.26
43.14
44.57
48.04
50.78
50.59
47.34
43.28
41.98
46.31
57.12
72.80
90.03
104.98
114.04
113.92
101.55
74.57
32.66
-20.77
-77.94
-127.91
-159.77
-166.54
-147.92
-110.62
-65.93
-26.06
-0.50
5.72
-8.03
-39.28
-83.80
-136.34
-190.67
-239.72
-276.52
-295.74
-295.41
-277.72
-248.54
-215.97
-187.91
-169.93
-163.73
-166.86
-173.47
-176.16
-168.57
-147.55
-114.19
-72.95
-29.32
12.95
53.15
93.12
134.87
177.99
218.52
250.15
267.31
268.23
256.30
238.52
222.04
210.50
202.37
192.25
174.29
145.76
108.73
68.95
33.00
5.31
-13.17
-24.16
-30.14
-32.82
-32.86
-30.63
-27.19
-24.53
-24.77
-28.88
-35.61
-41.53
-42.34
-34.58
-17.21
7.85
36.07
61.20
76.73
77.71
62.70
35.16
3.22
-22.68
-33.94
-27.55
-7.64
16.47
34.88
41.81
37.66
27.56
17.50
10.94
8.20
8.66
13.34
25.40
47.37
77.49
108.14
128.26
128.80
107.73
71.41
31.16
-2.61
-25.41
-39.47
-50.77
-64.32
-80.95
-97.38
-108.81
-112.06
-107.13
-96.69
-84.03
-71.36
-59.18
-46.83
-33.57
-19.54
-6.03
5.03
11.94
14.08
12.11
7.70
2.82
-1.04
-3.31
-4.25
-4.54
-4.77
-5.08
-5.10
-4.18
-1.70
2.52
8.03
13.71
18.08
19.81
18.26
13.79
7.60
1.28
-3.87
-7.30
-9.27
-10.51
-11.70
-13.10
-14.53
-15.55
-15.76
-15.09
-13.71
-11.95
-10.16
-8.54
-7.24
-6.40
-6.25
-7.08
-9.13
-12.41
-16.49
-20.44
-23.03
-23.06
-19.83
-13.47
-4.97
4.06
11.92
17.33
19.78
19.55
17.49
14.58
11.62
9.05
6.95
5.27
4.02
3.40
3.75
5.25
7.78
10.77
13.38
14.88
14.90
13.61
11.60
9.50
7.70
6.16
4.48
2.31
-0.50
-3.68
-6.64
-8.82
-9.97
-10.32
-10.45
-11.00
-12.29
-14.24
-16.44
-18.51
-20.33
-22.10
-24.05
-26.17
-28.08
-29.08
-28.58
-26.44
-23.15
-19.59
-16.61
-14.62
-13.41
-12.32
-10.62
-7.94
-4.42
-0.67
2.59
4.88
6.18
6.92
7.75
9.09
10.97
12.96
14.45
15.01
14.61
13.67
12.76
12.30
12.29
12.34
11.89
10.63
8.68
6.55
4.88
4.01
3.79
3.65
2.93
1.29
-1.00
-3.26
-4.77
-5.24
-5.05
-5.06
-6.19
-8.90
-12.96
-17.58
-21.76
-24.74
-26.23
-26.38
-25.62
-24.33
-22.69
-20.68
-18.15
-15.00
-11.27
-7.20
-3.15
0.57
3.77
6.40
8.53
10.23
11.43
12.05
12.04
11.59
11.10
11.06
11.80
13.30
15.17
16.84
17.81
17.88
17.25
16.30
15.39
14.68
14.08
13.32
12.18
10.60
8.70
6.72
4.92
3.38
1.98
0.42
-1.62
-4.28
-7.46
-10.77
-13.76
-16.16
-18.05
-19.80
-21.91
-24.61
-27.72
-30.64
-32.60
-33.00
-31.73
-29.15
-25.92
-22.62
-19.41
-16.09
-12.17
-7.36
-1.77
3.98
9.06
12.79
14.97
15.93
16.30
16.63
17.05
17.26
16.77
15.28
12.95
10.43
8.53
7.83
8.37
9.64
10.85
11.42
11.26
10.82
10.72
11.39
12.76
14.28
15.19
14.95
13.44
11.01
8.22
5.56
3.19
0.96
-1.48
-4.45
-8.05
-12.11
-16.29
-20.20
-23.47
-25.84
-27.14
-27.18
-25.85
-23.09
-18.98
-13.85
-8.29
-2.93
1.73
5.49
8.51
11.17
13.86
16.60
18.99
20.14
19.07
15.32
9.45
3.20
-0.97
-0.98
3.84
12.27
21.67
29.11
32.71
32.20
28.78
24.14
19.45
14.99
10.46
5.66
0.94
-2.83
-4.87
-5.07
-4.24
-3.83
-5.15
-8.74
-13.84
-18.63
-20.89
-18.96
-12.51
-2.79
7.86
17.02
23.31
26.97
29.69
33.78
41.08
52.13
66.01
80.85
94.47
105.01
111.29
112.83
109.50
101.14
87.20
66.91
39.71
6.11
-31.65
-69.62
-103.05
-127.95
-142.47
-147.68
-147.00
-144.59
-143.99
-146.99
-153.41
-161.55
-168.72
-171.51
-165.90
-148.12
-116.28
-72.55
-23.91
19.20
46.64
53.19
41.49
21.38
5.80
5.27
23.34
55.84
93.53
126.75
149.15
159.09
158.75
151.98
142.84
134.04
127.10
122.99
122.59
126.83
136.03
149.24
164.22
178.70
189.97
196.07
196.88
194.52
192.49
193.83
199.49
208.29
218.73
228.34
234.80
236.95
235.33
231.56
227.08
221.92
215.15
206.46
194.17
175.94
150.03
116.76
78.78
40.16
4.52
-35.76
-80.83
-124.99
-160.76
-184.77
-198.40
-204.50
-204.69
-201.23
-193.61
-179.94
-161.45
-142.50
-128.92
-125.53
-135.01
-154.39
-180.02
-206.64
-227.29
-236.62
-232.60
-217.74
-198.59
-184.16
-182.94
-200.09
-234.16
-276.70
-316.14
-341.41
-345.26
-325.49
-284.48
-227.69
-162.23
-94.62
-30.09
27.25
74.32
109.01
130.18
138.40
136.45
129.14
122.68
122.47
130.66
144.65
157.83
162.41
153.91
134.70
114.38
106.62
122.30
164.08
224.20
286.88
334.52
354.93
345.99
315.60
277.14
241.31
213.03
190.79
169.28
142.70
108.05
66.46
22.23
-19.60
-58.71
-96.19
-131.74
-162.08
-182.62
-189.55
-181.87
-162.27
-136.55
-116.83
-112.60
-126.14
-152.06
-182.45
-210.63
-233.12
-248.98
-258.85
-271.00
-292.41
-325.13
-365.42
-408.84
-452.57
-496.06
-539.59
-541.35
-477.79
-355.65
-208.27
-68.64
46.16
134.46
201.28
253.59
297.43
330.36
349.94
352.51
346.29
339.12
335.85
337.38
343.25
352.49
358.77
356.86
345.22
326.66
303.03
280.92
261.79
245.73
232.41
218.23
200.52
179.18
157.24
137.48
121.67
109.40
99.99
92.75
85.60
77.02
66.69
55.90
45.66
36.56
27.95
19.43
10.87
1.91
-7.57
-17.41
-27.09
-36.59
-46.18
-56.70
-68.52
-81.39
-94.53
-106.91
-117.76
-126.80
-134.59
-142.23
-151.16
-162.36
-176.08
-191.63
-207.61
-222.47
-235.04
-245.30
-255.00
-267.79
-287.97
-318.55
-358.70
-402.38
-439.14
-457.22
-447.46
-406.54
-337.83
-250.23
-155.47
-65.40
10.00
63.61
91.94
95.28
77.43
44.64
3.65
-40.68
-86.69
-135.63
-189.42
-247.73
-306.55
-358.26
-394.42
-409.25
-401.99
-376.96
-341.57
-303.09
-266.27
-232.92
-202.62
-174.72
-149.53
-128.29
-112.10
-100.85
-92.70
-85.17
-76.56
-66.18
-54.97
-45.25
-39.58
-39.55
-45.46
-55.62
-67.54
-79.15
-87.77
-91.92
-91.89
-89.57
-87.27
-87.14
-88.46
-89.31
-87.75
-79.15
-59.88
-29.39
9.06
50.16
87.34
118.93
145.55
168.77
195.52
232.28
281.24
338.64
397.53
448.63
490.26
524.11
553.22
587.30
635.25
700.65
780.28
868.01
954.00
1035.93
1111.78
1136.71
1074.48
916.82
693.89
454.92
262.69
116.23
4.26
-84.52
-159.64
-224.08
-276.40
-317.99
-355.57
-393.18
-435.45
-478.08
-516.74
-548.95
-566.49
-558.68
-518.44
-456.92
-383.55
-315.66
-265.85
-240.95
-239.88
-251.10
-259.82
-253.43
-226.67
-184.50
-142.29
-112.22
-98.97
-99.00
-102.91
-101.99
-92.80
-76.79
-56.46
-34.27
-8.52
24.96
68.29
118.50
169.15
212.10
240.61
251.96
247.30
231.13
208.94
184.97
161.51
139.42
118.56
98.50
78.71
59.34
40.82
23.93
8.88
-4.81
-17.86
-30.96
-41.88
-52.53
-63.85
-76.27
-89.45
-103.25
-117.64
-132.49
-147.49
-162.18
-176.57
-190.11
-202.54
-213.09
-221.42
-227.46
-231.10
-232.18
-230.34
-225.19
-215.10
-202.98
-189.63
-175.57
-161.19
-146.84
-132.86
-119.55
-107.27
-95.89
-85.17
-74.12
-62.02
-48.60
-34.01
-18.80
-3.64
10.85
24.58
37.83
51.65
66.91
83.93
102.44
121.72
140.86
159.16
176.49
193.15
210.15
228.59
249.54
273.80
301.40
331.08
359.97
383.87
398.38
400.51
389.68
367.98
339.33
308.06
277.46
249.19
223.54
200.16
178.84
159.61
142.59
127.59
114.01
101.01
87.81
73.98
59.49
44.75
30.43
17.26
5.77
-3.89
-12.06
-19.44
-26.71
-34.14
-41.38
-47.57
-51.77
-53.47
-53.02
-51.51
-50.34
-50.51
-52.16
-54.50
-56.27
-56.40
-54.60
-51.41
-47.94
-45.19
-43.58
-42.87
-42.35
-41.44
-39.98
-38.35
-37.03
-36.27
-35.77
-34.87
-32.88
-29.57
-25.36
-21.13
-17.83
-15.99
-15.48
-15.64
-15.68
-15.05
-13.72
-12.09
-10.70
-9.88
-9.54
-9.25
-8.48
-6.96
-4.87
-2.79
-1.41
-1.13
-1.88
-3.13
-4.16
-4.49
-4.15
-3.65
-3.71
-4.83
-6.98
-9.66
-12.08
-13.63
-14.18
-14.04
-13.82
-14.06
-14.98
-16.47
-18.17
-19.75
-21.05
-22.12
-23.13
-24.11
-24.87
-25.04
-24.17
-22.03
-18.74
-14.84
-11.01
-7.86
-5.57
-3.94
-2.52
-0.93
0.85
2.38
3.05
2.43
0.57
-1.95
-4.25
-5.54
-5.52
-4.43
-2.90
-1.61
-0.91
-0.76
-0.76
-0.49
0.32
1.62
3.13
4.53
5.72
6.74
7.56
8.01
7.71
6.24
3.30
-1.05
-6.34
-11.75
-16.53
-20.38
-23.50
-26.40
-29.47
-32.72
-35.70
-37.79
-38.26
-36.99
-34.69
-32.53
-31.52
-31.87
-32.92
-33.52
-32.64
-29.27
-23.70
-17.74
-13.95
-14.08
-18.01
-23.74
-28.29
-28.95
-22.72
-8.88
10.39
30.74
47.72
58.64
63.15
62.85
60.74
62.76
73.54
93.88
120.27
146.90
168.38
181.39
185.22
181.96
178.84
182.70
196.43
217.96
242.30
264.15
279.19
284.47
258.89
193.58
98.48
-1.35
-82.79
-136.35
-165.35
-179.30
-188.29
-199.01
-209.92
-216.19
-213.68
-201.82
-182.88
-160.78
-137.95
-116.02
-96.12
-76.87
-58.27
-43.14
-36.23
-40.61
-55.10
-74.66
-93.23
-106.28
-110.93
-108.02
-100.16
-91.74
-85.84
-82.93
-81.18
-78.33
-72.69
-63.04
-49.60
-34.13
-19.22
-6.82
2.54
9.71
16.06
22.90
31.11
40.55
48.94
53.46
52.97
48.93
43.98
39.50
35.37
30.49
23.96
15.68
6.57
-2.11
-9.41
-14.92
-18.92
-21.62
-22.94
-22.57
-20.30
-16.10
-10.29
-3.54
3.89
10.69
15.67
18.09
17.99
16.12
13.92
12.98
14.46
18.56
24.18
29.82
34.21
36.72
37.45
36.87
35.36
33.04
29.88
25.39
19.43
12.29
4.59
-2.84
-9.27
-14.25
-17.59
-19.40
-20.89
-23.45
-28.22
-35.52
-44.67
-54.42
-63.57
-71.26
-76.98
-81.15
-83.85
-84.84
-83.81
-81.24
-79.34
-81.63
-91.71
-105.83
-118.66
-124.16
-119.54
-106.08
-86.91
-65.24
-43.21
-22.15
-3.15
11.83
20.94
22.68
16.63
4.30
-10.76
-23.16
-25.88
-14.21
10.69
41.24
65.19
70.75
51.99
11.44
-40.06
-88.30
-122.03
-137.42
-137.69
-129.88
-119.87
-106.29
-86.66
-57.55
-16.92
34.13
91.00
146.87
193.73
224.28
234.09
222.41
193.42
155.07
116.82
86.83
70.29
67.51
75.09
88.24
102.50
115.13
124.41
128.87
127.39
120.21
107.98
91.79
72.98
52.75
32.41
13.71
-0.86
-12.55
-18.54
-16.57
-8.80
-1.02
1.67
-1.68
-8.23
-14.01
-16.24
-14.12
-9.83
-6.74
-7.43
-12.95
-23.00
-35.68
-50.09
-64.93
-78.16
-88.38
-95.04
-97.96
-97.09
-92.41
-84.14
-73.11
-60.56
-47.92
-37.04
-29.37
-25.16
-23.44
-22.56
-21.05
-18.40
-15.04
-11.88
-9.88
-9.42
-9.94
-10.24
-9.16
-6.20
-1.80
3.08
7.53
10.97
13.34
14.99
16.34
17.62
18.81
19.67
20.14
20.36
20.66
21.31
22.35
23.38
23.82
23.09
21.00
17.88
14.45
11.52
9.55
8.45
7.60
6.24
3.93
0.78
-2.52
-5.07
-6.30
-6.27
-5.68
-5.45
-6.24
-8.13
-10.64
-13.10
-15.11
-16.79
-18.67
-21.33
-24.90
-28.85
-32.22
-34.00
-33.62
-31.26
-27.67
-23.72
-19.90
-16.11
-11.85
-6.65
-0.52
5.96
11.84
16.27
18.99
20.56
21.99
24.26
27.78
32.16
36.48
39.67
41.02
40.56
39.25
38.41
38.98
40.96
43.48
45.25
45.12
42.43
37.53
31.87
27.21
24.56
23.77
23.85
23.71
22.56
19.95
16.26
12.68
10.59
10.76
12.89
16.24
19.72
21.58
19.06
9.40
-8.55
-33.34
-60.64
-84.00
-95.57
-88.73
-58.72
-8.76
48.74
98.24
130.02
143.07
141.13
129.16
110.89
87.70
60.73
32.78
8.31
-8.67
-17.79
-22.00
-24.21
-25.64
-26.79
-26.58
-23.52
-17.23
-9.83
-3.19
-3.90
-16.98
-40.29
-69.95
-101.10
-129.72
-153.93
-174.65
-188.53
-196.65
-200.67
-193.65
-174.32
-145.62
-113.10
-81.87
-54.52
-31.29
-12.32
3.39
17.27
28.73
37.18
42.30
44.22
43.65
41.78
39.21
37.10
36.63
37.19
37.89
37.97
37.06
35.25
33.03
30.58
28.43
27.16
26.34
25.50
24.33
22.76
20.96
19.19
17.48
15.95
14.78
13.74
12.64
11.46
10.24
9.15
8.25
7.45
6.63
5.73
4.68
3.54
2.46
1.64
1.15
0.94
0.91
0.91
0.83
0.58
-0.13
-1.90
-5.31
-10.21
-15.75
-20.54
-23.31
-23.47
-21.21
-17.10
-11.26
-3.77
5.66
16.74
28.12
37.73
43.65
45.03
42.61
38.25
33.99
31.35
31.05
33.12
37.14
41.84
45.05
44.08
36.90
23.24
5.16
-13.60
-29.10
-38.72
-41.81
-39.40
-33.34
-25.62
-18.31
-13.50
-13.06
-17.97
-27.38
-38.44
-47.23
-50.60
-47.87
-41.31
-34.89
-32.18
-34.42
-39.92
-45.11
-46.57
-43.02
-35.35
-26.11
-17.93
-11.97
-7.59
-3.26
2.38
9.72
18.30
27.31
35.92
43.52
49.58
53.50
54.85
53.37
49.39
43.86
38.31
34.39
33.21
34.97
38.42
41.18
40.51
34.78
24.55
12.72
3.12
-1.63
-2.03
-1.65
-4.98
-14.75
-29.97
-46.25
-57.78
-60.03
-51.87
-35.73
-16.09
2.82
18.74
31.82
43.35
54.13
63.29
68.07
65.59
55.05
38.95
22.68
12.60
13.63
27.41
51.67
80.38
105.70
120.27
119.31
101.88
71.05
32.57
-7.44
-41.56
-65.10
-77.22
-80.80
-80.51
-80.45
-82.31
-84.83
-84.42
-76.62
-58.56
-30.13
5.54
42.83
75.21
97.02
105.05
99.42
83.65
63.45
45.29
34.68
34.39
43.58
58.15
72.57
82.42
86.27
85.73
84.06
84.03
86.43
90.08
92.64
92.00
87.22
78.97
69.69
63.47
65.32
79.51
107.54
146.64
189.98
228.86
256.03
268.35
267.40
257.89
244.80
231.20
217.69
203.62
188.63
173.52
159.64
147.69
136.63
123.70
105.58
79.98
46.83
8.35
-31.91
-70.58
-106.09
-139.00
-171.56
-206.33
-244.82
-286.86
-331.07
-375.90
-420.33
-463.69
-504.71
-540.82
-568.20
-582.91
-582.05
-564.57
-531.08
-483.02
-422.23
-351.33
-274.51
-197.64
-127.20
-68.16
-22.13
13.17
42.56
70.96
101.04
132.17
160.85
182.23
191.77
186.76
167.34
136.53
99.34
60.99
25.18
-6.92
-36.41
-65.19
-94.08
-121.97
-146.25
-164.38
-175.32
-180.19
-181.76
-183.07
-186.16
-191.50
-198.14
-204.41
-208.74
-210.00
-207.61
-201.48
-191.76
-178.66
-162.48
-143.58
-122.67
-100.97
-80.15
-62.24
-49.08
-41.56
-38.97
-39.19
-39.41
-37.10
-30.99
-21.26
-9.21
3.50
15.55
26.38
36.23
45.96
56.92
70.62
88.34
110.44
135.89
162.19
185.85
203.64
213.87
217.18
216.37
215.27
217.02
222.76
231.10
238.63
241.63
237.59
226.11
208.59
187.33
164.41
141.10
118.11
95.97
75.52
57.63
42.70
30.19
18.59
6.02
-8.86
-26.12
-44.30
-60.93
-73.46
-80.21
-81.12
-77.77
-72.64
-68.07
-65.37
-64.50
-64.39
-63.73
-61.68
-58.07
-53.25
-47.59
-41.22
-33.78
-24.46
-12.25
3.62
23.35
46.34
71.10
95.65
117.90
136.25
149.87
158.58
162.58
162.04
157.30
149.11
138.87
128.46
119.72
113.74
110.38
108.39
106.10
102.14
95.96
87.84
78.58
69.00
59.51
50.15
40.84
31.53
22.34
13.55
5.47
-1.74
-8.10
-13.81
-19.11
-24.11
-28.72
-32.63
-35.44
-36.90
-37.08
-36.39
-35.47
-34.99
-35.46
-37.19
-40.29
-44.66
-50.02
-55.90
-61.67
-66.46
-69.33
-69.31
-65.66
-58.19
-47.33
-34.12
-19.72
-4.90
10.42
26.96
45.52
65.97
86.70
104.67
116.49
119.77
114.22
101.75
85.50
68.44
52.09
36.32
19.95
2.03
-17.18
-36.03
-52.11
-63.51
-69.76
-72.13
-72.84
-73.94
-76.20
-78.87
-80.35
-79.24
-75.34
-70.01
-65.50
-63.97
-66.52
-72.81
-81.23
-89.46
-95.10
-96.29
-92.30
-83.70
-72.37
-60.98
-52.10
-47.46
-47.58
-51.88
-59.19
-68.12
-77.19
-84.75
-89.06
-88.69
-83.03
-72.83
-60.05
-47.19
-36.46
-29.03
-24.90
-23.14
-22.50
-21.85
-20.48
-18.15
-14.95
-11.09
-6.61
-1.37
4.89
12.37
21.22
31.69
44.27
59.63
78.31
100.11
123.89
147.87
170.36
190.45
208.09
223.35
235.51
242.53
241.58
230.29
208.17
177.23
141.38
104.96
71.48
42.86
19.68
1.94
-10.31
-17.27
-20.22
-22.13
-27.15
-39.02
-59.07
-85.07
-111.84
-133.30
-145.16
-146.52
-139.69
-128.60
-116.79
-106.24
-97.42
-90.10
-84.10
-79.33
-75.43
-71.36
-65.70
-57.42
-46.65
-34.71
-23.55
-14.89
-9.49
-7.05
-6.60
-7.04
-7.53
-7.38
-5.99
-2.72
2.91
10.86
20.53
30.90
40.94
50.00
57.92
64.69
70.17
73.82
74.89
72.88
67.89
60.86
53.31
46.74
41.96
38.71
35.68
31.11
23.52
12.56
-0.76
-14.28
-25.53
-32.74
-35.46
-34.63
-31.96
-29.16
-27.21
-26.22
-25.57
-24.43
-22.16
-18.37
-12.80
-5.26
4.20
15.14
26.53
36.90
44.81
49.25
50.00
47.60
42.97
37.11
30.82
24.62
18.81
13.55
8.88
4.67
0.77
-2.92
-6.17
-8.45
-9.22
-8.08
-5.02
-0.54
4.53
9.18
12.48
13.77
12.88
10.16
6.42
2.68
-0.34
-2.38
-3.78
-5.14
-6.87
-8.88
-10.45
-10.47
-7.98
-2.77
4.49
12.28
18.68
22.06
21.64
17.67
11.25
4.01
-2.36
-6.50
-7.78
-6.36
-3.09
0.78
3.97
5.83
6.40
6.28
6.22
6.59
7.19
7.56
7.46
7.03
6.72
6.93
7.70
8.70
9.56
10.16
10.68
11.34
12.00
12.20
11.49
9.87
7.91
6.36
5.69
5.83
6.35
6.82
7.20
7.69
8.28
8.40
7.23
4.18
-0.51
-5.62
-8.92
-8.40
-2.95
6.95
19.63
33.14
45.49
54.66
58.45
55.54
46.03
31.62
15.23
0.23
-10.75
-17.30
-21.73
-28.47
-41.69
-64.32
-96.99
-137.43
-180.13
-216.12
-236.38
-235.50
-215.45
-183.49
-150.59
-127.28
-119.81
-127.92
-144.01
-159.55
-169.34
-174.84
-177.33
-177.08
-172.51
-162.21
-146.41
-124.64
-99.20
-74.93
-59.59
-53.09
-50.29
-44.06
-29.72
-6.03
29.52
76.47
130.45
180.58
222.44
255.37
281.21
301.35
289.82
232.97
139.29
59.56
3.31
-30.71
-54.31
-71.43
-83.78
-91.76
-90.76
-77.36
-52.45
-25.26
-0.61
19.89
35.48
46.76
55.37
66.95
86.04
113.46
143.34
173.09
203.58
232.96
260.33
283.77
302.72
316.17
322.20
316.44
297.59
268.33
225.73
171.07
108.41
46.85
-1.58
-25.46
-18.97
18.07
82.45
157.48
229.11
285.36
319.39
329.85
319.86
294.72
237.24
186.06
139.30
97.73
60.46
26.22
-5.64
-34.96
-61.55
-86.06
-107.02
-132.52
-165.74
-207.46
-254.17
-297.81
-327.67
-334.07
-312.57
-263.65
-201.74
-141.97
-98.98
-82.05
-92.51
-124.06
-165.60
-205.01
-230.70
-239.06
-228.61
-202.02
-165.35
-126.71
-93.89
-71.95
-62.01
-60.36
-63.06
-64.99
-62.44
-53.69
-39.15
-21.40
-5.00
4.62
3.87
-7.86
-26.04
-43.21
-52.64
-51.80
-43.10
-31.34
-19.79
-7.49
9.79
36.07
71.82
112.70
151.57
181.63
198.85
202.25
192.72
171.98
142.21
106.07
66.32
25.45
-14.41
-50.47
-78.40
-92.55
-88.21
-64.94
-28.63
9.64
37.92
48.60
41.74
24.32
6.21
-4.81
-6.16
-0.41
7.04
11.09
9.04
1.31
-9.08
-17.98
-21.71
-18.78
-10.64
-1.43
3.58
0.09
-13.58
-36.31
-65.08
-96.55
-128.26
-158.79
-187.36
-213.12
-234.99
-251.98
-263.89
-271.49
-276.27
-279.46
-280.97
-278.78
-269.13
-247.93
-212.30
-161.84
-98.97
-28.61
42.83
108.81
164.04
205.70
233.98
251.65
262.75
270.73
277.17
281.69
283.08
280.86
275.87
269.79
263.91
258.39
252.62
246.24
239.87
234.97
232.76
232.92
233.06
229.00
216.79
194.40
161.97
120.79
72.01
16.56
-44.40
-108.23
-171.27
-228.46
-274.38
-305.02
-319.08
-318.20
-305.21
-283.63
-256.60
-228.20
-201.82
-179.17
-160.36
-144.45
-130.20
-115.47
-98.74
-79.38
-59.62
-42.25
-29.36
-22.52
-22.91
-31.65
-47.85
-70.03
-80.93
-67.10
-26.75
28.26
82.35
126.28
152.61
167.90
176.85
179.51
171.43
147.83
110.62
63.46
11.09
-42.71
-94.83
-131.64
-144.50
-135.14
-113.40
-89.45
-68.86
-52.13
-37.69
-23.23
-8.11
5.67
14.96
18.06
15.95
11.09
6.29
3.45
3.77
6.91
10.66
12.47
11.04
7.12
2.19
-2.12
-4.78
-5.22
-3.67
-1.60
-0.54
-1.30
-3.41
-6.34
-9.42
-12.30
-14.74
-16.74
-18.69
-20.88
-24.38
-27.57
-29.40
-29.16
-26.43
-21.11
-13.36
-3.73
7.00
18.19
29.54
40.53
50.81
60.17
68.54
76.01
83.29
90.08
96.42
102.54
108.37
113.71
118.32
121.91
124.13
124.74
123.41
120.15
115.16
108.58
100.78
92.24
83.49
75.10
67.63
61.10
55.63
51.25
47.55
44.12
40.85
37.94
35.73
34.62
34.36
34.91
36.36
38.67
41.99
46.79
53.74
63.45
76.35
91.68
108.46
125.65
141.32
153.80
162.05
165.42
162.94
158.20
151.93
144.09
134.48
121.17
103.28
82.15
60.94
43.22
31.46
25.95
25.27
27.41
26.34
17.88
1.98
-17.67
-36.58
-52.33
-65.35
-79.15
-97.59
-130.06
-181.78
-250.59
-327.86
-403.49
-470.77
-527.13
-574.84
-616.70
-662.62
-717.59
-778.28
-834.88
-877.01
-898.10
-894.18
-865.03
-757.59
-550.64
-267.92
30.27
284.87
466.90
570.96
624.95
650.17
658.17
644.87
605.24
542.71
467.87
393.73
329.54
279.72
241.57
209.45
172.71
125.64
70.18
13.94
-34.77
-70.98
-93.24
-104.64
-111.42
-122.56
-143.27
-173.27
-208.22
-242.34
-271.34
-293.09
-308.31
-321.50
-337.05
-354.71
-369.20
-372.92
-358.76
-323.13
-266.84
-174.50
-49.61
86.85
208.15
297.80
354.08
384.74
402.73
414.14
419.85
415.55
398.96
372.11
340.31
304.67
267.92
231.92
197.50
165.87
135.64
106.17
77.80
51.15
25.83
1.29
-23.33
-48.46
-72.61
-95.19
-115.13
-131.16
-142.50
-149.76
-154.67
-160.15
-169.35
-182.83
-201.10
-224.08
-251.11
-280.53
-309.53
-334.27
-351.09
-357.14
-348.15
-322.99
-284.27
-237.44
-188.09
-140.07
-95.01
-53.09
-13.62
28.78
77.55
132.36
189.67
245.96
299.73
351.30
401.52
450.96
504.80
564.86
627.72
685.73
731.38
760.20
770.99
764.55
706.87
584.94
413.49
227.70
59.25
-76.99
-180.26
-256.21
-311.74
-351.93
-375.26
-381.54
-373.85
-358.59
-341.85
-326.79
-313.80
-302.96
-290.95
-271.01
-239.69
-197.44
-148.70
-98.65
-50.88
-7.04
28.13
54.24
74.96
92.86
109.08
122.23
130.12
131.30
125.07
111.90
94.45
80.42
70.06
62.85
56.69
48.75
36.62
18.36
-5.87
-32.70
-57.75
-77.60
-89.54
-93.28
-90.50
-83.75
-76.04
-67.84
-56.05
-36.19
-5.99
36.28
90.42
154.95
228.16
307.01
378.45
427.42
440.55
412.86
350.77
268.00
180.15
106.39
46.58
-2.30
-42.69
-76.72
-106.26
-133.31
-159.18
-185.67
-214.77
-248.98
-287.38
-326.18
-360.43
-386.04
-401.05
-406.65
-406.24
-404.98
-409.50
-424.10
-449.69
-483.09
-517.08
-542.06
-549.01
-531.03
-487.52
-425.25
-354.10
-283.10
-217.37
-157.63
-102.07
-48.91
5.37
61.05
114.64
161.59
198.85
226.19
245.27
258.06
266.04
275.80
291.82
314.53
341.50
370.43
401.07
434.56
471.78
512.33
561.76
621.86
688.08
751.47
803.44
839.29
858.18
861.39
804.09
667.78
469.14
250.72
51.87
-108.73
-229.24
-315.15
-373.29
-409.79
-422.48
-411.66
-383.28
-346.97
-311.13
-279.62
-252.06
-225.98
-198.69
-162.54
-112.85
-55.46
1.59
49.39
80.29
89.04
73.90
37.96
-7.43
-49.48
-79.23
-93.69
-95.59
-90.30
-82.85
-75.91
-69.58
-61.34
-49.76
-36.41
-24.44
-17.09
-15.34
-17.91
-22.19
-25.74
-27.42
-28.19
-30.79
-37.86
-50.99
-69.41
-90.76
-111.88
-128.55
-140.22
-147.85
-153.44
-158.84
-165.57
-174.13
-184.50
-195.25
-203.38
-204.89
-195.50
-172.81
-137.51
-95.69
-52.89
-15.49
12.49
30.64
41.07
46.93
50.26
52.00
51.47
48.22
42.43
35.50
29.25
24.85
22.56
21.97
23.40
26.83
32.72
41.46
53.25
67.74
83.70
99.23
112.12
121.74
127.26
128.55
125.81
119.50
110.21
98.57
85.16
62.43
31.29
-4.72
-41.07
-74.15
-101.94
-123.80
-139.72
-150.17
-155.85
-156.22
-151.63
-142.34
-128.69
-111.42
-91.41
-68.89
-43.91
-16.47
14.38
43.12
66.08
81.29
87.73
85.40
76.02
62.12
46.02
30.04
21.17
18.38
19.01
19.59
17.56
12.94
7.69
3.92
3.35
8.94
21.28
39.32
61.21
80.12
94.59
106.64
118.84
133.62
156.27
189.92
234.27
284.76
333.95
373.55
396.69
398.14
356.74
270.11
155.79
41.73
-51.99
-116.56
-162.63
-198.42
-227.55
-250.92
-263.76
-264.45
-256.11
-244.51
-233.40
-221.95
-204.13
-173.48
-126.73
-62.76
12.32
86.34
144.90
177.09
178.63
153.00
107.25
48.96
-13.46
-74.73
-132.12
-183.22
-223.45
-246.76
-247.94
-226.34
-186.63
-135.00
-78.61
-23.88
24.40
63.31
91.21
107.79
114.10
107.57
91.04
71.57
55.72
45.25
37.73
29.98
20.61
10.41
0.75
-6.66
-11.62
-15.22
-18.73
-22.47
-25.85
-28.29
-29.55
-30.19
-30.45
-30.69
-31.38
-32.76
-34.54
-36.18
-37.34
-37.99
-38.65
-39.38
-40.00
-40.21
-39.55
-37.47
-33.58
-28.00
-20.84
-12.83
-4.18
5.42
16.56
29.77
45.14
62.01
77.71
90.88
100.36
105.88
108.10
108.29
107.81
107.88
109.44
113.05
118.52
123.89
125.49
118.88
100.67
70.67
32.69
-6.37
-39.26
-61.02
-71.00
-72.09
-68.62
-64.04
-59.71
-55.32
-50.22
-44.49
-39.07
-35.20
-33.40
-33.03
-32.73
-31.06
-27.29
-21.80
-15.69
-10.28
-6.41
-4.18
-2.96
-1.75
0.33
3.62
7.79
12.18
16.14
19.24
21.42
22.92
23.92
24.42
24.14
22.52
19.38
14.88
9.49
3.82
-1.77
-7.34
-13.43
-20.14
-27.99
-36.45
-44.22
-49.75
-52.00
-51.02
-48.20
-45.98
-46.19
-49.74
-55.73
-61.87
-65.56
-65.35
-61.54
-56.36
-52.83
-53.17
-57.88
-65.72
-74.59
-82.63
-88.37
-90.06
-85.37
-71.56
-47.05
-13.84
21.60
50.82
66.07
64.90
51.73
35.90
26.83
28.75
38.62
48.74
51.67
45.14
33.28
23.98
23.72
33.23
46.89
55.69
53.13
38.99
19.61
4.42
0.83
9.65
24.66
36.23
36.71
25.20
7.72
-6.17
-8.74
1.19
17.50
30.59
32.70
22.77
6.69
-6.40
-9.42
-1.80
10.28
17.95
14.90
1.48
-15.67
-27.34
-27.01
-14.92
2.24
15.02
16.59
6.65
-8.61
-20.06
-20.30
-8.07
10.79
26.84
31.93
23.77
6.62
-11.07
-21.12
-20.08
-9.44
4.21
12.67
11.22
1.46
-9.36
-12.18
-1.71
20.09
44.59
60.71
61.43
47.66
28.03
14.27
14.53
28.73
48.69
62.69
62.42
47.60
25.85
8.38
2.88
8.86
18.04
19.25
5.30
-22.72
-55.55
-80.38
-87.73
-76.44
-53.82
-31.60
-19.12
-18.80
-25.39
-29.35
-22.89
-4.73
18.89
37.56
43.02
33.84
16.59
2.16
-0.65
9.69
26.80
40.36
43.14
35.54
25.77
25.07
40.51
70.02
102.75
124.63
126.34
108.44
81.43
60.42
56.97
73.08
100.23
123.79
130.83
116.11
83.89
44.81
9.46
-17.13
-37.04
-56.55
-80.60
-109.00
-135.76
-152.76
-155.01
-144.28
-128.46
-117.27
-116.35
-124.34
-133.99
-136.99
-129.64
-115.62
-104.33
-105.89
-124.81
-157.11
-191.77
-215.99
-221.63
-208.70
-184.54
-159.22
-139.61
-126.14
-113.40
-94.57
-66.75
-33.67
-4.14
12.76
13.15
0.39
-16.46
-27.40
-27.26
-18.30
-8.30
-5.86
-14.91
-32.60
-51.19
-62.14
-59.84
-44.17
-19.49
8.01
33.74
56.28
76.89
97.37
118.09
138.31
156.03
169.28
177.31
181.25
183.91
188.50
196.96
202.80
199.01
181.22
150.72
112.95
74.22
39.14
9.97
-13.35
-32.11
-47.10
-58.77
-67.40
-73.65
-78.27
-82.05
-85.27
-87.97
-90.06
-90.64
-88.90
-84.32
-77.54
-69.77
-62.29
-55.57
-49.62
-44.09
-38.10
-31.06
-23.18
-15.59
-9.90
-7.44
-8.27
-11.49
-15.44
-18.01
-17.50
-13.05
-4.83
6.57
18.13
28.89
39.43
51.80
69.35
95.40
131.67
176.78
225.14
268.04
296.02
301.78
282.85
242.62
189.36
133.48
84.48
48.49
27.71
21.18
25.39
35.32
45.04
48.77
42.26
24.51
-1.69
-30.40
-54.86
-70.48
-76.36
-74.97
-69.90
-63.51
-56.04
-46.87
-36.38
-27.44
-24.89
-32.57
-50.82
-75.31
-99.09
-115.97
-123.36
-122.84
-118.18
-112.55
-106.54
-98.46
-86.28
-69.64
-50.50
-32.07
-16.67
-4.42
6.71
19.68
36.50
57.42
80.81
103.20
120.94
131.28
133.15
127.54
117.13
105.60
96.23
90.55
86.91
82.18
73.88
61.89
48.81
38.83
35.86
41.42
53.94
68.02
77.63
78.72
70.36
53.99
32.02
6.32
-22.47
-55.15
-94.71
-143.23
-199.62
-258.64
-312.04
-351.14
-369.58
-365.49
-333.64
-277.48
-208.85
-142.78
-89.56
-51.29
-24.48
-5.00
9.14
17.92
19.66
14.38
4.76
-4.89
-11.05
-12.55
-10.50
-7.04
-3.99
-3.09
-4.53
-6.47
-6.17
-1.50
8.22
22.41
39.86
59.31
79.07
97.92
113.04
124.00
131.16
135.10
136.53
136.31
135.20
133.30
130.23
125.41
118.80
110.60
101.39
92.17
84.10
78.18
74.99
74.82
77.34
81.31
83.60
79.89
66.33
41.83
9.47
-24.00
-50.64
-64.65
-64.63
-53.94
-38.64
-24.61
-15.42
-11.96
-13.40
-18.41
-25.82
-34.39
-42.64
-48.89
-51.79
-50.98
-47.03
-41.11
-34.47
-27.94
-21.93
-16.77
-12.90
-10.85
-10.68
-11.73
-12.87
-12.99
-11.77
-9.99
-9.08
-10.22
-13.53
-17.66
-20.43
-19.98
-15.81
-9.07
-2.00
3.24
5.54
5.16
3.43
2.00
2.05
3.95
7.45
11.99
16.92
21.66
25.44
27.67
28.05
26.71
24.29
21.79
20.23
20.40
22.65
26.46
30.84
34.56
36.39
35.55
32.03
26.72
21.21
17.16
15.10
14.54
14.09
12.22
7.95
1.32
-7.00
-16.41
-24.19
-29.47
-32.39
-33.58
-33.61
-32.51
-29.91
-25.34
-18.76
-10.85
-3.24
2.51
5.53
5.96
4.76
3.11
1.73
0.54
-1.05
-3.93
-8.29
-13.46
-18.15
-21.24
-22.25
-21.61
-20.26
-19.20
-19.20
-20.21
-21.30
-20.90
-17.31
-9.49
2.28
16.24
29.70
40.09
46.09
48.11
47.77
46.88
46.38
46.01
44.77
41.87
37.22
31.56
25.85
20.60
15.66
10.42
4.36
-2.61
-9.89
-16.54
-21.67
-24.85
-26.24
-26.46
-26.37
-26.66
-27.66
-29.35
-31.43
-33.66
-36.03
-38.74
-42.14
-46.43
-51.53
-57.03
-62.36
-66.94
-70.39
-72.58
-73.60
-73.67
-73.13
-72.29
-71.36
-70.39
-69.24
-67.65
-65.40
-62.35
-58.52
-54.01
-48.92
-43.31
-37.23
-30.78
-24.17
-17.66
-11.48
-5.79
-0.63
3.98
7.92
10.89
12.55
12.75
11.60
9.59
7.36
5.45
4.09
3.17
2.46
1.89
1.58
1.81
2.80
4.43
6.30
7.90
8.87
9.19
9.13
9.09
9.32
9.72
9.95
9.53
8.13
5.76
2.78
-0.25
-2.74
-4.39
-5.18
-5.34
-5.09
-4.50
-3.45
-1.73
0.74
3.72
6.69
8.98
10.11
9.96
8.84
7.30
5.90
4.85
4.02
3.00
1.45
-0.60
-2.70
-4.11
-4.16
-2.58
0.39
4.11
7.84
11.07
13.66
15.83
17.90
20.04
22.08
23.59
24.08
23.27
21.26
18.50
15.60
12.99
10.80
8.83
6.82
4.66
2.50
0.74
-0.32
-0.66
-0.62
-0.76
-1.56
-3.15
-5.25
-7.28
-8.65
-9.07
-8.58
-7.54
-6.33
-5.15
-3.92
-2.38
-0.31
2.29
5.10
7.61
9.38
10.24
10.37
10.24
10.29
10.78
11.62
12.52
13.14
13.36
13.32
13.35
13.75
14.64
15.84
17.00
17.84
18.25
18.36
18.45
18.71
19.13
19.50
19.45
18.79
17.52
15.96
14.50
13.44
12.74
12.05
10.87
8.79
5.80
2.24
-1.29
-4.26
-6.47
-8.13
-9.73
-11.68
-14.09
-16.64
-18.77
-19.97
-20.02
-19.12
-17.75
-16.41
-15.39
-14.70
-14.12
-13.37
-12.31
-10.97
-9.56
-8.25
-7.19
-6.43
-6.01
-6.03
-6.68
-8.15
-10.50
-13.53
-16.72
-19.30
-20.42
-19.49
-16.32
-11.33
-5.37
0.53
5.47
9.02
11.23
12.54
13.47
14.32
15.06
15.42
15.10
13.97
12.17
10.02
7.81
5.62
3.33
0.75
-2.25
-5.57
-8.95
-12.10
-14.88
-17.33
-19.70
-22.20
-24.95
-27.82
-30.50
-32.65
-34.01
-34.41
-33.73
-31.73
-28.06
-22.33
-14.46
-4.85
5.47
15.09
22.61
27.15
28.62
27.53
24.69
20.79
16.25
11.41
6.75
3.08
1.25
1.80
4.58
8.71
12.98
16.36
18.44
19.44
19.90
20.24
20.53
20.54
19.91
18.49
16.35
13.75
10.98
8.27
5.72
3.36
1.11
-1.17
-3.63
-6.43
-9.56
-12.82
-15.78
-17.93
-18.84
-18.32
-16.41
-13.30
-9.17
-4.16
1.62
7.92
14.24
19.95
24.42
27.31
28.72
29.13
29.16
29.27
29.59
29.92
29.91
29.32
28.09
26.40
24.51
22.70
21.09
19.69
18.44
17.27
16.15
15.15
14.35
13.75
13.24
12.54
11.40
9.68
7.55
5.37
3.59
2.47
1.95
1.69
1.21
0.18
-1.43
-3.35
-5.14
-6.43
-7.09
-7.22
-7.16
-7.22
-7.61
-8.34
-9.22
-10.00
-10.50
-10.67
-10.50
-10.04
-9.25
-8.04
-6.31
-4.08
-1.51
1.05
3.24
4.80
5.68
6.06
6.25
6.54
7.05
7.67
8.15
8.23
7.79
6.94
5.96
5.15
4.64
4.36
4.10
3.66
3.00
2.26
1.65
1.34
1.35
1.48
1.48
1.12
0.33
-0.82
-2.15
-3.50
-4.83
-6.16
-7.58
-9.11
-10.69
-12.17
-13.42
-14.44
-15.41
-16.63
-18.40
-20.82
-23.71
-26.64
-29.05
-30.54
-30.98
-30.60
-29.81
-28.90
-27.91
-26.53
-24.35
-21.07
-16.71
-11.67
-6.55
-1.82
2.33
6.04
9.59
13.16
16.65
19.71
21.91
23.00
23.04
22.38
21.49
20.75
20.28
19.98
19.63
19.06
18.22
17.19
16.07
14.89
13.55
11.98
10.12
8.08
6.10
4.47
3.40
2.88
2.69
2.48
1.93
0.94
-0.36
-1.72
-2.93
-3.96
-4.99
-6.26
-7.87
-9.68
-11.24
-11.99
-11.56
-9.86
-7.22
-4.17
-1.30
1.05
2.77
4.03
5.03
5.89
6.51
6.69
6.28
5.35
4.27
3.54
3.55
4.41
5.88
7.47
8.72
9.39
9.50
9.26
8.86
8.38
7.71
6.72
5.42
4.00
2.82
2.16
2.19
2.70
3.31
3.51
3.00
1.76
0.09
-1.55
-2.74
-3.33
-3.50
-3.59
-4.02
-4.96
-6.33
-7.87
-9.25
-10.29
-11.00
-11.50
-11.87
-12.09
-11.99
-11.38
-10.17
-8.43
-6.38
-4.30
-2.37
-0.69
0.76
2.01
3.11
4.01
4.65
4.97
5.01
4.86
4.72
4.77
5.16
5.81
6.51
6.93
6.81
6.14
5.11
4.15
3.64
3.77
4.42
5.22
5.77
5.82
5.39
4.65
3.88
3.22
2.66
2.09
1.38
0.52
-0.41
-1.24
-1.88
-2.33
-2.69
-3.18
-3.94
-5.02
-6.31
-7.62
-8.73
-9.53
-10.04
-10.39
-10.67
-10.87
-10.86
-10.43
-9.47
-8.05
-6.42
-4.92
-3.77
-3.03
-2.52
-2.03
-1.35
-0.48
0.45
1.25
1.79
2.10
2.30
2.58
3.04
3.68
4.38
5.00
5.40
5.56
5.52
5.34
5.10
4.79
4.42
3.97
3.42
2.82
2.22
1.66
1.13
0.55
-0.17
-1.10
-2.22
-3.38
-4.35
-4.93
-5.08
-4.95
-4.90
-5.35
-6.55
-8.46
-10.65
-12.48
-13.31
-12.78
-10.99
-8.42
-5.73
-3.42
-1.63
-0.19
1.28
2.96
4.80
6.46
7.62
8.19
8.45
8.92
10.11
12.18
14.86
17.48
19.31
19.84
19.02
17.21
15.15
13.44
12.33
11.57
10.51
8.30
4.30
-1.58
-8.69
-15.71
-21.21
-24.42
-25.70
-26.65
-29.50
-36.17
-47.26
-61.49
-75.99
-87.45
-93.49
-93.48
-88.47
-80.86
-73.88
-71.41
-77.39
-94.37
-122.55
-158.29
-193.32
-215.98
-214.75
-182.82
-121.63
-41.28
43.49
117.25
168.84
194.40
197.02
183.76
162.34
139.65
122.45
119.59
138.79
183.57
250.58
329.09
403.02
456.09
477.54
465.83
429.84
381.43
329.97
279.83
231.36
183.26
134.69
86.25
28.34
-37.14
-100.02
-149.33
-180.99
-197.78
-204.69
-205.59
-202.62
-196.49
-185.87
-171.23
-155.09
-140.63
-129.71
-122.18
-116.49
-110.88
-103.71
-92.93
-78.58
-62.77
-48.26
-36.87
-28.93
-23.77
-21.13
-19.82
-18.49
-17.03
-16.43
-17.93
-22.13
-28.72
-35.18
-41.09
-45.82
-48.59
-49.22
-48.13
-46.04
-43.51
-40.80
-38.02
-35.45
-32.98
-30.43
-27.77
-25.08
-22.51
-20.19
-18.14
-16.34
-14.96
-13.83
-12.87
-11.97
-11.04
-10.03
-8.96
-7.92
-7.01
-6.45
-6.16
-6.06
-5.94
-5.66
-5.12
-4.40
-3.78
-3.52
-3.95
-4.99
-6.42
-7.78
-8.66
-8.84
-8.52
-8.25
-8.71
-10.78
-14.21
-18.41
-22.51
-25.66
-27.45
-28.20
-28.88
-30.66
-34.39
-40.10
-47.02
-53.78
-59.22
-62.71
-64.59
-65.92
-67.96
-71.75
-78.02
-87.21
-99.17
-112.53
-124.14
-129.61
-124.62
-107.03
-78.50
-44.32
-11.47
14.28
30.66
39.23
43.95
48.63
55.14
63.13
71.22
78.27
84.20
89.65
95.11
100.11
103.32
103.24
98.76
89.97
78.09
65.08
52.85
42.71
34.92
28.93
23.79
18.66
13.16
7.49
2.16
-2.29
-5.71
-8.47
-11.22
-14.69
-19.49
-25.84
-33.50
-41.72
-49.55
-56.15
-61.08
-64.17
-65.50
-65.61
-65.27
-65.03
-64.96
-64.56
-63.10
-60.09
-55.24
-48.43
-40.46
-32.75
-26.48
-21.95
-18.34
-14.26
-8.46
-0.03
11.81
26.51
42.53
58.46
74.01
90.45
110.56
134.16
162.65
198.76
243.14
292.98
341.70
380.34
400.27
396.36
368.82
314.74
240.98
159.94
84.57
22.97
-23.13
-56.01
-78.51
-92.61
-99.29
-98.74
-93.05
-85.39
-78.70
-74.44
-72.31
-70.63
-67.79
-63.04
-55.87
-47.71
-40.59
-36.43
-36.24
-40.08
-46.94
-55.50
-64.79
-73.80
-82.59
-91.09
-98.94
-105.33
-109.18
-109.03
-103.49
-92.18
-72.68
-47.26
-19.05
9.03
34.79
56.59
73.94
87.56
97.96
105.42
109.90
111.77
111.43
109.15
104.53
97.54
88.85
78.64
66.42
51.69
34.70
16.12
0.45
-10.96
-21.39
-29.59
-34.12
-34.52
-30.54
-21.90
-8.61
8.76
28.64
49.28
69.17
90.73
113.00
134.30
153.03
167.80
177.64
181.69
180.05
174.14
165.61
155.71
146.27
139.29
136.54
139.27
147.72
161.42
179.53
200.37
221.39
240.36
255.48
265.39
269.28
266.78
257.67
242.54
222.45
198.48
171.90
143.76
114.70
84.91
54.21
21.88
-12.41
-48.32
-84.75
-119.77
-150.91
-175.48
-191.18
-196.45
-191.87
-178.76
-158.78
-133.61
-104.93
-74.57
-44.47
-16.82
6.29
20.17
21.54
9.79
-13.17
-44.28
-80.72
-120.67
-163.58
-209.89
-266.07
-336.68
-421.34
-514.90
-609.97
-699.85
-779.36
-845.16
-895.22
-937.14
-976.78
-1014.96
-1048.62
-1074.76
-1092.85
-1103.43
-1105.61
-1095.44
-1078.08
-1056.36
-1029.03
-992.80
-946.87
-894.33
-840.11
-788.28
-671.72
-464.87
-190.50
94.12
336.30
512.18
624.92
689.96
724.38
738.90
735.64
714.38
679.01
638.78
603.22
579.70
571.46
578.88
600.81
626.18
644.62
651.18
646.69
633.39
613.79
588.55
544.79
476.22
380.85
265.97
144.81
36.40
-54.97
-128.27
-184.06
-223.64
-246.59
-254.50
-249.89
-235.15
-211.89
-182.02
-146.02
-104.66
-59.56
-11.24
39.76
91.37
140.40
182.88
214.52
233.43
239.23
232.26
215.13
193.81
172.87
154.44
137.93
121.29
104.05
87.19
71.94
61.34
62.60
80.55
115.66
163.81
218.42
274.12
327.68
376.87
422.84
472.77
531.90
600.65
673.76
742.93
800.91
843.18
866.79
832.00
717.47
528.76
297.60
63.32
-145.93
-318.01
-443.48
-534.81
-600.54
-639.90
-649.26
-627.70
-579.69
-513.85
-438.22
-361.32
-292.14
-226.89
-155.90
-74.60
17.85
116.33
211.93
295.95
362.58
408.73
436.07
430.36
386.26
308.50
209.68
104.75
5.28
-82.48
-156.91
-217.54
-264.53
-295.91
-310.51
-310.11
-298.90
-282.08
-263.72
-246.36
-230.46
-216.04
-200.95
-183.15
-162.68
-141.47
-122.32
-107.40
-97.62
-92.05
-88.80
-85.05
-76.69
-60.70
-35.97
-3.38
34.81
75.70
116.31
153.72
181.36
194.06
188.90
166.45
130.50
86.51
39.79
-5.54
-46.98
-83.24
-113.13
-136.34
-153.29
-164.96
-172.53
-177.34
-179.89
-179.90
-176.55
-168.13
-153.08
-130.46
-100.22
-63.23
-22.45
18.56
56.29
87.96
112.25
128.99
138.86
142.99
142.52
138.43
131.65
122.91
112.75
101.84
90.91
80.78
72.20
65.51
60.58
56.92
53.70
50.02
45.32
39.69
33.89
29.06
26.19
25.59
26.76
28.50
29.52
28.84
26.35
22.73
19.11
16.58
16.03
18.18
23.15
30.04
36.34
37.90
30.30
10.76
-20.42
-59.22
-98.64
-130.71
-148.97
-150.51
-136.68
-112.40
-84.23
-57.93
-36.62
-20.23
-6.33
8.18
25.34
45.10
65.56
84.19
99.32
109.08
111.61
104.82
86.82
57.43
20.02
-17.99
-47.26
-59.85
-53.19
-32.09
-7.19
9.76
10.95
-4.37
-30.33
-58.23
-80.68
-94.89
-102.27
-106.07
-108.43
-109.33
-107.05
-99.56
-88.38
-76.14
-65.39
-56.95
-49.93
-42.46
-33.07
-21.46
-8.49
4.35
15.91
25.16
31.24
33.63
32.70
29.95
28.07
29.85
36.47
46.70
57.15
63.92
64.77
60.72
55.34
52.87
55.86
63.53
72.42
78.08
77.32
69.17
55.38
38.04
18.50
-2.78
-25.32
-47.18
-64.72
-73.85
-72.42
-60.38
-41.42
-21.18
-5.05
3.64
3.99
-2.90
-15.08
-30.12
-45.54
-59.18
-69.19
-74.21
-73.79
-68.48
-58.76
-46.92
-34.53
-22.48
-11.48
-1.97
5.97
12.45
17.68
21.88
25.09
27.49
29.28
30.52
31.41
32.27
33.48
35.47
38.48
42.46
47.22
52.49
57.67
62.16
65.32
66.60
65.53
61.72
54.92
45.15
32.95
19.05
4.41
-9.85
-22.46
-32.30
-38.57
-40.87
-39.38
-34.56
-27.30
-18.81
-10.34
-2.99
2.36
5.18
5.98
4.44
1.00
-3.58
-8.54
-13.21
-17.07
-19.80
-21.36
-21.80
-21.47
-20.59
-19.45
-18.27
-17.15
-16.17
-15.30
-14.55
-13.84
-13.25
-12.75
-12.41
-12.30
-12.75
-13.44
-14.17
-14.86
-15.44
-15.98
-16.47
-17.10
-18.05
-19.43
-21.18
-23.06
-24.97
-26.89
-28.96
-31.26
-34.05
-37.36
-41.01
-44.64
-46.81
-46.36
-42.69
-35.85
-26.51
-15.96
-5.64
3.34
10.53
16.35
21.47
26.32
30.80
34.19
35.42
33.64
28.73
21.45
13.61
6.90
2.14
-1.15
-4.64
-10.59
-21.03
-36.32
-57.20
-82.42
-108.80
-131.46
-144.75
-144.07
-128.12
-99.94
-66.11
-34.56
-11.23
3.67
13.27
22.67
36.60
57.39
84.22
113.58
139.78
157.41
162.87
155.17
136.90
113.36
90.70
73.35
62.98
58.39
57.38
58.32
60.54
64.38
69.87
76.09
81.06
83.03
81.28
76.57
70.72
64.69
58.78
52.10
43.08
30.27
13.23
-6.95
-28.12
-47.48
-62.66
-71.83
-74.38
-70.85
-62.68
-51.75
-39.83
-28.83
-20.21
-15.22
-14.23
-17.03
-22.97
-31.19
-41.02
-51.88
-63.98
-76.26
-89.29
-102.75
-115.56
-126.39
-134.11
-139.63
-142.22
-142.43
-141.04
-139.01
-136.90
-135.04
-133.09
-129.61
-121.67
-105.14
-76.87
-36.24
13.25
64.93
110.86
144.91
164.50
171.05
168.61
161.29
151.75
140.85
128.92
116.66
105.58
97.06
91.78
89.14
87.39
84.32
78.01
67.81
52.84
34.96
16.35
-1.29
-16.93
-30.12
-40.63
-48.58
-53.57
-54.76
-51.67
-44.92
-36.11
-27.47
-21.26
-19.70
-23.89
-33.62
-47.50
-63.84
-81.26
-98.69
-115.35
-130.40
-142.75
-151.01
-154.98
-152.91
-143.47
-126.23
-101.40
-69.84
-32.74
8.51
52.40
95.82
136.61
174.00
208.25
239.08
263.77
277.11
273.01
247.57
202.27
144.85
86.22
36.27
0.80
-18.89
-23.92
-15.88
3.37
30.40
59.13
81.21
89.08
80.05
57.92
31.38
9.56
-2.38
-4.78
-1.81
1.62
2.49
0.86
-2.36
-6.31
-10.97
-16.96
-24.98
-35.34
-47.63
-60.56
-72.63
-82.59
-89.50
-93.19
-93.97
-92.73
-90.50
-88.16
-86.32
-85.48
-86.10
-88.14
-90.28
-89.81
-83.28
-67.61
-41.77
-7.94
28.79
61.63
83.80
91.29
84.86
68.58
47.60
25.83
5.34
-13.13
-29.41
-43.05
-53.37
-59.99
-63.55
-65.47
-67.40
-70.69
-75.66
-81.96
-88.81
-95.19
-100.32
-104.00
-106.28
-107.20
-107.11
-104.84
-99.22
-89.36
-74.71
-55.24
-31.52
-4.47
24.67
53.58
80.57
103.99
122.47
135.24
142.33
144.62
143.69
141.33
138.94
137.29
136.01
133.99
130.30
124.54
117.26
109.71
103.15
98.55
96.59
97.44
100.67
104.74
106.67
102.36
88.11
62.62
28.34
-8.85
-41.97
-65.68
-78.34
-81.97
-80.42
-76.94
-72.87
-67.86
-61.27
-53.75
-47.20
-43.76
-44.36
-47.91
-51.73
-53.08
-50.08
-42.93
-33.52
-24.50
-18.16
-15.92
-18.18
-24.21
-32.00
-38.52
-40.20
-34.27
-20.31
-1.15
17.87
30.59
33.13
25.38
10.63
-6.37
-21.81
-34.29
-44.53
-53.92
-63.08
-71.26
-76.94
-78.92
-77.04
-72.07
-65.10
-57.07
-47.97
-37.19
-23.90
-7.86
10.17
28.54
45.02
57.54
64.79
66.59
63.79
57.89
50.43
42.55
34.88
27.49
20.20
12.82
5.37
-1.95
-8.78
-14.81
-19.98
-24.32
-27.97
-30.93
-33.18
-34.62
-35.20
-34.89
-33.90
-32.66
-31.76
-31.86
-33.30
-36.34
-41.08
-47.39
-54.96
-63.37
-72.17
-80.96
-89.52
-97.28
-104.11
-110.06
-115.42
-120.59
-126.04
-132.23
-139.61
-148.24
-157.47
-166.89
-176.17
-184.88
-192.34
-197.63
-199.51
-196.28
-189.66
-179.77
-166.87
-151.52
-134.52
-116.78
-99.22
-82.77
-68.31
-55.85
-44.79
-34.99
-26.62
-19.90
-14.85
-11.25
-8.85
-7.37
-4.47
2.19
13.44
28.66
46.72
66.68
87.86
109.48
130.56
154.23
182.94
216.23
250.87
283.03
310.08
330.81
344.81
352.28
360.85
377.42
404.39
439.46
478.60
518.60
557.36
593.00
623.82
657.37
699.99
752.12
808.25
861.25
906.47
942.82
971.67
937.81
813.25
606.80
358.53
112.38
-103.26
-275.25
-398.83
-474.57
-505.96
-500.64
-468.59
-423.63
-380.56
-349.15
-331.40
-323.74
-321.21
-321.08
-314.04
-293.63
-259.65
-218.03
-177.09
-144.42
-125.29
-122.19
-134.47
-154.40
-174.58
-190.83
-203.06
-213.55
-224.69
-237.73
-252.63
-268.41
-281.90
-292.27
-300.41
-307.83
-315.27
-322.51
-329.20
-335.70
-343.24
-352.15
-362.81
-373.17
-378.47
-373.53
-356.16
-329.17
-299.40
-274.56
-242.89
-197.42
-138.56
-73.05
-8.73
49.23
98.47
139.19
173.34
203.89
233.37
261.75
288.02
311.22
331.10
347.62
361.77
376.06
378.58
364.06
333.21
292.27
249.15
209.75
175.18
143.62
112.57
80.00
46.73
14.83
-12.51
-33.64
-46.02
-49.29
-44.45
-33.79
-21.68
-12.29
-10.16
-18.10
-35.82
-59.42
-85.43
-111.74
-133.87
-151.79
-167.73
-185.77
-209.28
-239.02
-262.27
-268.25
-251.95
-217.36
-174.63
-132.24
-94.19
-60.43
-29.24
0.74
27.66
48.57
61.46
65.84
63.92
59.29
55.61
55.49
60.25
68.52
77.93
86.60
93.47
98.87
103.86
109.54
116.35
123.74
129.50
130.90
125.72
112.83
92.75
67.19
39.57
13.08
-9.75
-27.94
-41.78
-52.41
-61.22
-69.20
-76.48
-82.56
-86.62
-88.13
-87.14
-84.51
-81.57
-79.54
-79.25
-81.06
-85.18
-91.48
-98.72
-103.98
-103.09
-92.05
-69.21
-36.74
-0.42
32.43
55.90
67.82
69.99
66.55
61.51
56.96
52.93
48.57
43.48
38.38
34.60
33.10
33.70
35.19
35.97
34.75
31.38
26.72
22.19
19.09
17.99
18.59
19.88
20.67
20.09
18.01
14.95
11.89
9.72
8.92
9.38
10.52
11.56
11.87
11.21
9.80
8.21
7.04
6.72
7.35
8.64
10.08
11.16
11.56
11.26
10.58
10.00
9.95
10.54
11.51
12.24
12.10
10.58
7.52
3.25
-1.62
-6.35
-10.23
-12.65
-13.12
-11.33
-7.54
-2.73
1.42
2.84
0.05
-7.15
-17.32
-27.82
-35.92
-39.83
-39.27
-35.11
-28.70
-20.99
-12.44
-3.43
5.27
12.30
16.19
16.13
12.64
7.40
2.79
0.78
2.07
6.00
10.90
14.97
16.90
16.35
13.76
10.10
6.38
3.26
1.02
-0.39
-1.16
-1.40
-1.02
0.05
1.85
4.18
6.53
8.21
8.59
7.38
4.74
1.21
-2.67
-6.70
-11.08
-16.34
-22.92
-30.66
-38.59
-45.04
-48.20
-46.82
-40.70
-30.69
-18.33
-5.20
7.59
19.06
28.67
36.10
41.11
43.57
43.56
41.49
38.13
34.42
31.18
28.98
27.94
27.78
27.90
27.70
26.78
25.15
23.34
22.21
22.60
24.93
28.75
32.79
35.31
34.80
30.62
23.22
13.89
4.16
-4.80
-12.37
-18.19
-21.89
-22.90
-20.95
-16.84
-12.81
-12.22
-18.28
-32.61
-54.17
-79.52
-104.06
-123.77
-136.41
-141.70
-140.61
-134.20
-123.08
-107.35
-87.08
-63.15
-37.20
-11.23
13.23
35.82
57.23
78.61
100.45
121.96
140.98
154.79
161.36
160.33
153.23
142.78
131.79
121.96
113.54
105.56
96.88
87.09
76.90
68.06
62.54
61.90
66.80
77.01
91.46
108.25
124.41
135.68
137.27
125.04
97.14
55.15
3.98
-49.43
-98.29
-137.97
-166.99
-186.26
-197.67
-202.58
-201.14
-192.69
-176.74
-153.93
-126.22
-96.51
-67.64
-41.65
-19.28
-0.25
16.17
30.47
42.52
51.41
55.78
54.34
46.46
32.66
14.95
-3.76
-20.82
-35.04
-47.54
-61.58
-81.01
-108.48
-144.02
-184.93
-226.95
-265.77
-297.71
-319.46
-327.68
-319.49
-294.17
-254.87
-208.92
-165.29
-130.31
-104.15
-80.53
-50.46
-7.53
48.03
108.85
163.62
202.10
219.27
217.11
203.28
187.67
178.71
180.29
190.84
204.69
214.91
216.61
208.75
193.66
174.62
153.44
129.50
101.02
67.70
32.48
1.01
-20.99
-30.60
-29.47
-23.11
-18.35
-20.39
-30.51
-45.75
-60.44
-68.65
-66.69
-54.59
-35.98
-16.46
-1.39
6.15
6.24
1.69
-3.44
-5.66
-3.20
3.70
13.43
24.02
33.93
42.32
48.77
52.99
54.69
53.85
51.01
47.37
44.43
43.47
44.83
47.73
50.54
51.50
49.46
44.27
36.78
28.34
20.14
12.82
6.32
0.22
-5.91
-12.28
-18.78
-25.31
-31.84
-38.61
-45.88
-53.69
-61.61
-68.84
-74.48
-77.94
-79.26
-78.97
-77.87
-76.52
-74.95
-72.66
-68.94
-63.37
-56.10
-47.93
-39.97
-33.09
-27.56
-22.91
-18.23
-12.75
-6.32
0.49
6.64
11.18
13.79
14.87
15.36
16.13
17.53
19.21
20.39
20.34
18.82
16.20
13.22
10.58
8.46
6.52
4.10
0.72
-3.65
-8.45
-12.81
-16.12
-18.30
-19.95
-21.98
-25.03
-29.15
-33.74
-37.89
-40.91
-42.81
-44.19
-45.95
-48.66
-52.17
-55.68
-58.06
-58.52
-56.96
-54.02
-50.60
-47.30
-43.96
-39.82
-33.88
-25.73
-15.97
-6.07
2.13
7.42
9.81
10.48
11.27
13.61
17.87
23.15
27.87
30.71
31.33
30.52
29.74
30.36
32.91
36.99
41.56
45.71
49.14
52.20
55.53
59.47
63.80
67.75
70.49
71.71
71.82
71.71
72.23
73.65
75.34
76.17
75.05
71.59
66.33
60.53
55.45
51.82
49.48
47.57
45.10
41.53
37.13
32.71
29.29
27.41
26.94
27.16
27.23
26.61
25.37
24.02
23.14
22.92
22.98
22.52
20.80
17.54
13.09
8.29
3.98
0.58
-2.13
-4.84
-8.31
-12.90
-18.32
-23.77
-28.32
-31.41
-33.10
-34.03
-35.00
-36.53
-38.58
-40.56
-41.73
-41.65
-40.44
-38.76
-37.37
-36.72
-36.68
-36.68
-36.05
-34.45
-32.08
-29.56
-27.55
-26.39
-25.96
-25.74
-25.18
-24.11
-22.78
-21.79
-21.68
-22.65
-24.31
-25.93
-26.71
-26.23
-24.60
-22.48
-20.59
-19.41
-18.95
-18.70
-18.08
-16.78
-15.06
-13.61
-13.25
-14.28
-16.45
-19.01
-21.08
-22.09
-21.99
-21.13
-19.80
-17.88
-14.56
-8.94
-0.52
10.38
22.62
34.65
45.19
53.70
60.38
66.33
72.46
79.07
85.86
92.12
97.21
100.89
103.18
104.06
103.53
100.90
95.04
85.02
70.75
53.45
35.53
19.94
6.60
-4.21
-12.73
-19.47
-24.70
-28.25
-29.65
-28.55
-25.36
-21.31
-17.67
-15.69
-15.90
-17.90
-20.65
-23.05
-24.47
-25.08
-25.60
-26.51
-28.00
-29.76
-31.13
-31.40
-30.35
-28.38
-26.32
-25.00
-24.53
-24.50
-24.17
-23.02
-20.99
-18.68
-17.01
-16.60
-17.39
-18.46
-18.53
-16.53
-12.22
-6.10
0.77
7.35
13.07
17.94
22.31
26.51
30.92
34.58
36.49
35.80
32.29
26.44
19.25
11.81
4.82
-1.58
-7.79
-14.10
-20.47
-26.41
-31.18
-34.21
-35.39
-35.17
-34.24
-33.15
-31.97
-30.42
-28.12
-24.98
-21.35
-17.99
-15.75
-15.15
-16.11
-17.86
-19.47
-20.16
-19.84
-19.08
-18.71
-19.33
-20.85
-22.58
-23.64
-23.48
-22.16
-20.33
-18.76
-17.78
-17.02
-15.60
-12.65
-7.69
-1.59
4.36
8.68
10.35
9.42
6.97
4.78
4.48
6.87
11.61
17.54
23.33
28.30
32.68
37.37
43.24
50.44
58.16
64.96
69.52
71.31
70.85
69.34
67.92
67.09
66.51
65.34
62.92
59.39
55.65
53.10
52.85
55.13
59.03
62.78
64.54
63.25
59.17
53.73
48.84
45.90
45.03
44.95
43.65
39.40
31.57
20.92
9.21
-1.58
-10.04
-15.89
-19.84
-22.98
-26.28
-30.02
-33.88
-37.01
-38.56
-37.63
-33.30
-24.49
-10.18
9.70
33.50
57.09
74.60
80.46
72.15
52.08
27.45
7.84
1.14
10.20
31.43
55.86
72.76
73.76
55.45
19.46
-29.32
-85.35
-143.56
-199.16
-247.14
-281.57
-296.79
-289.37
-260.50
-216.10
-165.72
-118.87
-81.61
-55.68
-38.50
-25.39
-11.90
3.92
21.58
38.30
51.19
58.50
58.22
48.96
30.60
4.87
-24.47
-51.36
-70.71
-78.78
-74.52
-62.45
-49.31
-40.50
-38.03
-40.86
-45.69
-51.66
-59.06
-68.45
-82.77
-103.68
-129.93
-158.52
-187.14
-214.22
-242.66
-275.54
-296.30
-290.77
-254.17
-193.93
-122.60
-59.71
-1.90
54.50
110.39
164.85
214.26
252.83
277.32
287.84
286.64
278.29
264.77
247.71
228.48
205.50
176.96
143.51
109.05
79.92
63.88
64.20
78.90
99.92
112.07
101.35
65.77
17.22
-27.26
-55.02
-64.58
-62.53
-57.59
-55.68
-57.16
-58.13
-54.92
-47.33
-38.32
-32.67
-33.49
-40.62
-51.06
-60.16
-63.84
-60.83
-53.18
-44.71
-39.15
-38.66
-43.15
-50.34
-56.35
-56.26
-45.86
-23.30
9.86
49.10
87.63
118.46
137.04
142.10
135.83
122.15
104.86
86.76
69.83
55.72
45.67
40.62
39.75
41.38
43.98
46.99
50.79
55.42
59.16
56.54
45.37
26.19
3.61
-15.90
-27.98
-33.20
-36.45
-43.69
-57.07
-72.68
-83.98
-85.92
-78.68
-68.04
-61.82
-64.33
-74.33
-85.06
-86.94
-75.33
-52.22
-24.61
-0.30
16.87
29.39
41.56
57.84
80.25
106.97
133.98
156.81
172.18
173.27
161.01
137.85
106.60
69.85
30.43
-7.88
-40.90
-65.30
-79.57
-83.67
-81.66
-75.95
-68.53
-60.57
-52.31
-43.70
-35.13
-27.53
-21.27
-16.84
-14.13
-12.76
-12.28
-12.41
-13.35
-15.60
-19.28
-23.58
-25.94
-24.42
-18.34
-8.93
0.70
6.61
5.71
-2.62
-15.97
-30.35
-42.09
-49.38
-52.55
-53.24
-52.99
-52.23
-50.07
-45.17
-36.80
-25.56
-12.99
-0.77
9.96
18.94
26.41
32.69
37.70
40.98
41.94
40.33
36.51
31.47
26.42
22.48
20.34
20.09
21.16
22.57
23.31
22.83
21.33
19.57
18.25
17.57
16.86
14.93
10.62
3.39
-6.63
-18.89
-32.78
-47.75
-62.86
-76.49
-86.59
-91.35
-90.18
-84.21
-75.83
-67.45
-60.25
-53.64
-46.09
-36.38
-24.77
-13.21
-4.62
-1.73
-5.82
-16.50
-31.92
-49.58
-67.31
-83.75
-98.71
-112.90
-127.33
-142.43
-157.47
-169.99
-176.03
-171.19
-151.80
-116.41
-66.37
-5.07
63.37
135.49
208.68
280.02
344.21
392.69
414.91
402.10
351.38
267.95
163.94
54.52
-46.26
-128.29
-184.99
-212.37
-208.69
-175.56
-120.22
-55.49
2.99
42.51
57.96
53.54
38.87
23.44
12.40
6.08
3.85
7.65
21.90
49.58
87.61
125.17
147.83
145.51
118.65
79.20
45.08
31.31
43.23
75.10
114.03
146.19
162.05
158.16
137.10
105.62
71.87
43.57
26.12
21.29
27.10
39.72
54.93
70.76
87.31
104.48
121.17
135.13
143.91
146.17
142.25
132.69
118.67
101.00
78.71
50.82
17.77
-18.45
-54.88
-88.43
-116.83
-136.81
-143.96
-135.54
-111.19
-73.60
-28.35
17.56
62.15
99.34
119.08
119.01
98.58
56.91
-4.85
-82.07
-166.85
-250.01
-324.55
-385.89
-431.66
-461.77
-475.83
-472.04
-448.15
-403.61
-341.59
-269.79
-197.42
-132.11
-78.38
-36.23
-1.98
28.75
58.01
84.33
103.63
112.82
112.22
105.02
95.98
89.30
86.81
87.85
90.71
94.39
99.73
108.82
123.00
141.60
161.88
180.14
193.29
200.12
201.49
199.76
197.60
196.85
197.93
199.85
200.53
197.62
189.38
175.30
156.01
132.66
106.12
76.43
43.19
6.34
-33.23
-73.68
-112.76
-148.27
-178.04
-199.54
-209.95
-206.95
-190.57
-164.67
-137.03
-117.07
-112.32
-124.96
-150.77
-180.76
-204.89
-215.92
-211.74
-195.28
-172.57
-150.36
-134.13
-127.25
-130.73
-143.22
-161.20
-179.21
-190.69
-189.40
-171.26
-135.51
-84.80
-24.04
41.36
106.68
167.96
221.06
261.06
282.70
282.33
259.95
220.31
171.90
124.42
85.91
60.98
50.72
53.61
66.72
86.12
107.04
123.94
131.44
125.75
106.01
74.79
37.27
-0.24
-32.06
-54.51
-66.51
-69.32
-65.77
-59.11
-51.98
-45.86
-41.17
-37.85
-35.99
-36.13
-38.98
-44.80
-52.94
-61.76
-69.26
-73.96
-75.55
-74.96
-73.70
-72.75
-71.83
-69.42
-63.49
-52.93
-38.39
-22.50
-8.83
-0.30
2.04
-0.56
-5.38
-9.71
-12.26
-13.64
-15.90
-21.11
-29.95
-41.21
-52.23
-60.24
-63.83
-63.59
-61.67
-60.41
-61.22
-64.19
-68.64
-74.06
-80.44
-87.63
-94.28
-97.41
-93.79
-82.23
-65.15
-47.80
-35.38
-29.46
-26.34
-18.56
1.13
35.43
80.60
127.98
167.95
194.01
204.84
203.30
193.87
180.49
165.80
151.31
137.55
123.86
108.36
89.51
67.22
43.72
23.40
11.00
8.84
14.55
21.43
21.55
10.79
-9.44
-33.87
-56.23
-72.18
-80.01
-79.75
-71.39
-53.95
-24.95
16.91
68.99
125.08
177.66
221.20
253.65
275.79
282.27
269.13
237.35
193.95
149.18
111.32
85.12
71.63
69.07
73.97
82.22
93.79
108.91
127.00
145.06
159.78
168.65
170.46
164.92
152.91
137.83
121.42
104.07
82.68
54.73
19.86
-20.08
-62.48
-104.38
-143.08
-177.32
-206.74
-235.51
-266.68
-299.96
-332.07
-359.19
-378.30
-387.68
-387.28
-378.04
-366.76
-359.14
-357.12
-359.26
-363.65
-369.79
-378.56
-391.65
-377.34
-320.87
-230.14
-129.06
-38.94
31.53
83.30
121.26
150.22
174.01
189.85
194.95
190.12
179.57
168.32
159.66
155.04
154.61
154.95
152.94
145.63
133.06
118.49
106.06
98.63
96.86
99.80
105.83
110.39
108.93
99.42
83.23
63.82
44.21
25.25
5.32
-13.21
-31.85
-53.51
-80.29
-111.86
-145.74
-179.55
-212.81
-246.93
-284.33
-314.44
-330.05
-331.66
-326.43
-321.31
-318.08
-312.69
-298.07
-268.30
-230.77
-188.37
-147.37
-114.00
-90.10
-73.27
-58.81
-41.88
-18.96
11.06
47.11
83.41
113.33
133.02
141.86
141.46
134.04
121.06
102.65
78.72
56.05
34.34
14.50
-1.78
-13.59
-21.16
-25.40
-26.82
-23.93
-23.76
-28.20
-35.80
-44.12
-51.46
-57.29
-61.95
-66.30
-70.40
-74.79
-79.39
-83.54
-86.59
-88.31
-88.93
-89.07
-89.29
-89.41
-89.49
-89.36
-88.79
-87.74
-86.32
-84.77
-83.53
-83.00
-82.16
-80.43
-77.69
-74.35
-70.85
-67.01
-62.13
-55.49
-46.33
-30.63
-6.25
25.81
61.71
96.94
128.44
154.91
175.75
191.90
211.85
241.26
280.11
323.14
364.29
400.39
431.35
457.45
481.22
515.99
569.60
639.92
716.22
786.71
844.70
889.34
921.40
946.34
984.22
1047.87
1136.49
1236.64
1331.96
1411.25
1470.24
1507.06
1429.66
1196.79
834.65
424.24
44.47
-265.64
-503.82
-669.04
-793.44
-894.92
-965.00
-994.50
-984.28
-947.43
-899.30
-850.98
-808.06
-774.82
-749.39
-718.59
-674.65
-619.32
-561.97
-511.91
-473.01
-443.85
-422.90
-406.10
-384.30
-352.78
-312.91
-270.98
-233.63
-204.70
-184.78
-173.60
-168.04
-162.07
-152.42
-139.92
-128.37
-121.25
-119.72
-122.32
-126.90
-130.30
-129.60
-124.15
-115.48
-106.14
-97.92
-90.98
-83.74
-73.81
-58.16
-34.79
-3.18
34.95
75.31
111.03
133.66
135.85
114.72
74.53
26.00
-16.77
-41.67
-42.99
-23.36
7.68
37.50
54.97
54.57
36.66
6.41
-27.91
-56.59
-70.23
-62.09
-29.67
24.55
95.33
173.38
245.35
295.58
310.40
283.20
217.25
126.06
29.74
-48.44
-92.65
-100.04
-79.64
-45.25
-7.73
28.27
63.75
102.13
150.12
210.96
282.17
356.21
424.19
478.39
512.76
523.00
482.70
382.11
236.77
81.94
-49.86
-144.28
-203.40
-236.44
-252.59
-258.18
-253.06
-237.26
-214.32
-191.00
-173.39
-163.72
-160.44
-160.17
-159.77
-154.47
-142.19
-124.78
-106.96
-93.20
-85.19
-81.90
-80.99
-80.26
-76.50
-68.25
-56.57
-44.43
-34.59
-28.01
-23.87
-20.41
-16.06
-8.92
1.68
14.76
28.19
39.73
48.20
53.28
55.19
54.16
50.51
44.16
34.76
22.20
6.98
-9.55
-25.47
-38.95
-48.82
-55.05
-58.58
-60.90
-63.28
-66.40
-69.95
-72.94
-74.38
-73.71
-71.29
-68.17
-65.70
-64.94
-66.68
-71.22
-78.14
-85.77
-90.97
-89.64
-78.26
-55.78
-24.83
8.76
38.18
58.53
68.76
71.42
70.66
69.71
69.41
68.43
64.99
58.68
51.22
45.59
44.38
48.19
55.32
62.50
66.43
65.26
59.46
51.45
44.43
41.05
42.80
49.70
60.29
71.73
79.72
79.04
65.10
36.38
-3.54
-45.64
-78.04
-90.68
-79.45
-47.93
-5.78
35.20
65.06
78.19
73.40
52.66
19.55
-21.35
-64.57
-104.38
-135.34
-153.85
-158.91
-152.13
-137.02
-117.59
-97.29
-78.59
-62.69
-49.63
-37.97
-27.02
-15.84
-3.94
8.19
19.44
28.51
34.61
37.98
39.72
41.35
44.24
49.17
55.91
63.36
70.12
75.11
78.07
79.52
80.33
81.26
82.27
82.39
79.81
72.60
59.56
40.80
17.83
-6.63
-30.01
-50.32
-66.80
-79.76
-90.09
-98.90
-107.26
-116.43
-126.52
-136.60
-144.08
-145.03
-135.68
-114.41
-83.37
-48.38
-16.90
5.00
14.92
14.49
7.99
-0.14
-6.99
-11.58
-14.03
-14.24
-11.37
-4.40
6.93
21.47
36.89
50.42
59.65
63.45
62.12
56.96
49.61
41.34
32.81
24.17
15.37
6.58
-1.66
-8.50
-13.17
-15.28
-15.13
-13.46
-11.25
-9.34
-8.04
-7.17
-6.23
-4.88
-2.91
-0.71
1.21
2.55
3.49
4.72
7.11
11.26
17.09
24.23
31.61
38.14
43.17
46.86
49.91
53.11
56.76
60.25
62.79
63.36
61.54
58.08
54.90
54.43
58.93
70.01
85.73
105.60
128.03
149.43
164.06
165.36
148.50
113.11
64.36
11.48
-35.06
-68.26
-86.34
-92.26
-91.03
-86.92
-81.94
-76.18
-69.38
-61.64
-54.28
-48.83
-46.05
-45.39
-45.43
-44.53
-41.70
-36.92
-30.90
-24.80
-19.60
-15.69
-12.72
-9.79
-6.01
-0.65
6.61
15.49
25.21
34.58
42.07
46.10
45.34
39.04
27.34
11.35
-7.37
-27.03
-46.03
-63.63
-79.74
-94.53
-108.30
-121.43
-134.32
-147.44
-160.19
-170.33
-174.37
-168.77
-151.88
-125.45
-95.10
-65.93
-42.37
-25.59
-13.58
-2.73
9.92
25.19
41.77
57.54
71.57
84.15
96.55
109.47
122.11
132.34
137.96
137.43
131.27
121.79
111.80
104.02
100.21
100.89
105.23
110.93
114.03
109.93
95.24
68.50
32.40
-6.86
-41.80
-66.61
-79.41
-82.56
-80.80
-78.56
-78.13
-79.06
-79.60
-78.26
-75.21
-71.77
-69.60
-69.61
-71.51
-74.37
-77.02
-78.81
-79.61
-78.99
-75.63
-67.32
-51.95
-28.99
-0.51
29.01
54.43
71.40
78.30
76.56
69.54
60.99
53.59
48.62
46.41
46.94
49.89
54.83
60.87
66.70
70.81
72.31
70.81
66.80
61.48
55.87
50.92
47.30
45.27
44.62
44.65
44.33
41.86
37.32
31.16
24.52
19.06
16.00
15.63
17.17
19.20
20.52
20.76
20.22
19.13
17.10
13.02
5.70
-4.78
-16.75
-27.55
-35.32
-40.50
-45.77
-54.49
-68.40
-86.19
-103.41
-114.78
-116.74
-109.31
-95.89
-81.57
-70.43
-63.88
-61.03
-59.47
-57.40
-54.31
-51.20
-49.71
-50.93
-54.85
-60.46
-67.05
-73.64
-79.36
-82.70
-81.20
-72.14
-53.80
-26.97
4.56
34.41
57.15
69.39
70.99
65.05
56.21
48.60
42.31
37.31
28.95
13.96
-8.42
-35.85
-64.16
-89.79
-111.42
-130.06
-146.40
-159.25
-163.63
-154.20
-128.82
-90.98
-49.01
-12.13
14.04
30.59
39.41
46.47
56.66
71.08
86.93
99.81
106.48
106.18
100.17
89.88
77.18
63.37
50.19
40.42
37.19
42.59
56.45
76.27
97.95
117.83
132.84
140.52
139.26
128.79
110.73
88.88
68.35
53.07
43.78
36.92
26.48
7.86
-18.80
-47.79
-69.86
-76.11
-61.67
-27.06
21.97
76.04
124.83
159.39
174.56
170.19
151.11
125.32
101.13
83.95
74.48
69.23
62.73
50.56
31.23
5.97
-22.64
-52.13
-80.85
-107.77
-131.67
-150.85
-163.36
-167.50
-162.36
-148.11
-126.03
-98.77
-70.17
-44.87
-27.29
-20.21
-23.43
-33.51
-44.56
-50.16
-45.78
-30.51
-7.47
17.56
38.45
51.22
55.17
52.20
45.11
35.75
24.36
10.37
-6.14
-23.43
-38.40
-48.21
-51.98
-51.31
-49.46
-49.31
-52.01
-56.56
-60.78
-62.64
-61.17
-56.67
-50.15
-42.82
-35.70
-29.50
-24.63
-21.03
-18.15
-15.28
-12.02
-8.41
-4.96
-2.20
-0.14
1.65
3.74
6.40
9.41
12.41
15.38
18.54
22.19
26.20
29.92
32.44
33.09
31.82
29.22
26.24
23.76
22.27
21.86
22.31
22.98
23.02
21.55
18.24
13.59
8.89
5.75
5.19
7.03
9.84
11.70
11.09
7.73
2.74
-1.85
-4.01
-2.74
1.38
6.54
10.44
11.41
8.98
4.04
-1.72
-6.58
-9.32
-9.47
-7.19
-3.07
1.90
6.44
9.07
8.53
4.61
-1.29
-6.16
-6.38
0.85
16.13
37.47
61.15
83.16
100.60
112.27
118.24
119.09
115.37
107.57
96.41
83.10
68.86
54.15
38.37
20.20
-1.04
-24.34
-46.86
-65.15
-76.77
-81.47
-81.03
-77.99
-74.12
-69.71
-63.93
-55.75
-44.83
-31.81
-18.03
-4.95
6.29
15.03
21.28
25.59
29.02
32.68
37.24
42.63
48.26
53.41
57.57
60.45
61.52
59.94
54.79
45.78
33.85
21.03
9.46
0.15
-7.67
-16.24
-28.14
-45.14
-67.36
-93.34
-120.41
-145.37
-165.27
-178.19
-184.14
-185.21
-184.88
-186.41
-191.11
-197.27
-200.63
-196.09
-180.00
-151.69
-113.51
-69.75
-24.70
18.86
60.34
100.91
142.23
184.75
226.63
263.64
290.46
302.77
299.14
281.70
255.20
225.17
196.00
170.00
147.58
128.04
110.43
93.88
77.39
59.64
39.24
15.22
-12.27
-41.68
-70.35
-95.33
-114.23
-125.77
-129.71
-126.53
-116.83
-101.13
-80.13
-55.18
-28.75
-4.42
14.01
23.69
23.85
16.27
4.80
-6.14
-13.28
-15.70
-14.92
-13.68
-14.30
-17.32
-21.31
-23.93
-23.42
-19.71
-14.27
-9.21
-5.90
-4.40
-3.58
-2.02
1.06
5.23
9.10
10.79
8.68
1.87
-9.67
-25.31
-44.18
-65.78
-90.05
-116.96
-145.65
-173.46
-195.61
-206.07
-199.64
-174.41
-133.38
-84.17
-36.68
0.30
21.96
28.55
24.28
15.14
6.69
2.70
4.75
12.29
22.99
33.25
39.42
39.08
32.31
21.88
12.06
6.64
7.13
12.21
18.57
22.75
22.62
18.14
11.05
4.04
-0.23
0.02
5.21
14.14
24.37
33.07
38.08
38.58
35.08
28.68
20.23
10.10
-1.60
-14.30
-26.56
-36.28
-41.54
-41.67
-37.86
-32.83
-29.64
-30.16
-34.06
-39.03
-42.03
-40.93
-35.75
-28.67
-22.82
-20.59
-22.35
-26.37
-30.00
-31.29
-30.02
-27.46
-25.17
-23.69
-22.02
-18.23
-10.49
2.08
19.35
40.77
65.80
93.86
123.68
152.87
178.21
196.90
207.87
212.20
212.25
209.70
203.98
192.16
170.27
135.43
87.59
29.89
-32.07
-91.49
-141.45
-175.79
-189.99
-182.53
-155.74
-115.59
-70.12
-26.78
9.70
38.01
59.08
74.15
83.25
85.25
79.06
64.71
43.92
19.39
-5.94
-29.41
-48.54
-60.92
-64.70
-59.73
-48.46
-35.72
-27.09
-26.62
-35.06
-49.63
-65.44
-77.80
-84.06
-84.23
-80.19
-74.41
-68.72
-63.82
-59.59
-55.76
-52.23
-49.16
-46.53
-43.68
-39.34
-31.90
-20.01
-3.21
17.80
41.29
64.96
86.48
104.05
116.85
125.10
129.82
132.40
134.02
135.20
135.67
134.56
130.92
124.16
114.43
102.59
90.02
78.04
67.61
59.03
52.03
46.10
40.88
36.32
32.52
29.31
25.76
20.32
11.27
-2.28
-19.71
-38.80
-56.39
-69.54
-76.72
-78.37
-76.53
-73.85
-72.41
-73.00
-75.18
-77.91
-80.22
-81.61
-81.94
-80.96
-78.08
-72.31
-62.68
-48.94
-31.99
-13.97
2.06
12.97
16.43
11.87
0.91
-12.86
-25.01
-31.73
-30.96
-22.71
-8.60
9.06
27.99
46.16
61.71
72.79
78.01
76.90
70.43
60.73
50.28
40.75
32.41
24.22
14.84
3.58
-9.22
-22.40
-34.73
-45.41
-53.97
-59.81
-61.74
-58.19
-47.91
-31.16
-10.21
11.04
28.57
39.90
45.18
46.97
48.84
53.58
61.88
72.29
81.86
87.48
86.82
78.61
62.61
39.64
11.68
-17.92
-44.81
-64.98
-76.34
-79.77
-78.77
-77.46
-78.33
-80.98
-82.60
-80.06
-71.85
-59.05
-44.61
-31.62
-21.90
-15.71
-12.31
-10.78
-10.49
-10.91
-11.31
-10.77
-8.52
-4.48
0.67
5.82
10.07
13.03
14.76
15.53
15.47
14.55
12.84
10.74
8.83
7.53
6.62
5.11
1.73
-4.36
-12.84
-22.05
-29.60
-33.49
-33.07
-29.24
-23.94
-19.09
-15.67
-13.55
-11.80
-9.48
-6.24
-2.46
0.98
3.05
3.03
0.71
-3.41
-8.24
-12.42
-14.80
-14.89
-13.24
-11.22
-10.35
-11.66
-15.04
-19.40
-23.08
-24.66
-23.51
-20.00
-15.17
-10.02
-5.03
0.16
6.41
14.50
24.40
35.00
44.32
50.33
51.71
48.38
41.45
32.67
23.74
15.79
9.34
4.51
1.25
-0.54
-1.05
-0.51
0.95
3.62
8.60
17.91
33.81
57.50
87.89
121.08
151.20
172.56
181.97
180.07
170.96
160.33
152.80
150.07
150.57
150.62
146.34
135.46
117.86
95.08
69.22
42.07
15.33
-8.70
-26.45
-33.50
-26.35
-4.76
26.79
59.54
83.12
89.14
73.95
39.52
-7.93
-60.43
-110.58
-153.35
-186.82
-212.42
-234.07
-256.27
-281.54
-308.31
-330.52
-339.99
-329.88
-297.61
-245.50
-179.27
-105.83
-31.98
35.70
90.36
125.22
135.31
119.81
83.11
33.70
-18.91
-67.47
-109.00
-144.64
-177.82
-211.81
-247.31
-281.48
-308.30
-320.55
-312.81
-284.08
-238.88
-185.90
-134.54
-91.42
-58.52
-33.77
-13.39
5.22
22.18
35.34
41.78
39.40
28.03
9.88
-10.54
-27.19
-33.99
-26.31
-2.43
35.88
83.71
134.18
179.86
214.75
235.99
244.98
247.16
249.55
257.29
270.79
285.45
294.38
292.72
280.60
263.02
246.79
237.00
235.31
240.55
250.65
263.55
276.93
287.14
289.40
279.67
257.13
225.32
190.38
157.64
128.78
101.40
71.07
34.61
-7.83
-52.82
-95.25
-130.49
-155.67
-170.28
-176.15
-177.06
-177.66
-181.92
-191.59
-205.34
-219.41
-229.49
-232.89
-229.65
-221.99
-212.68
-203.44
-194.54
-185.50
-176.39
-168.66
-164.83
-166.88
-174.76
-185.74
-195.40
-199.52
-196.00
-185.95
-173.16
-162.14
-155.64
-152.92
-149.65
-139.41
-116.35
-77.59
-24.99
35.15
93.65
141.06
170.18
177.93
165.87
139.27
105.09
69.66
37.08
8.89
-14.89
-34.29
-48.24
-55.04
-53.70
-45.24
-33.05
-21.49
-14.17
-12.35
-14.86
-19.09
-22.85
-25.94
-30.34
-39.29
-55.34
-78.36
-104.58
-127.16
-138.22
-131.71
-105.70
-62.88
-9.20
48.62
105.10
156.62
200.83
235.78
259.64
271.29
271.01
260.65
242.84
219.87
193.17
163.43
131.38
98.41
66.48
37.63
13.43
-5.37
-18.83
-27.53
-32.37
-34.40
-34.52
-33.16
-30.02
-24.61
-16.83
-7.61
1.28
7.98
11.49
12.22
11.72
11.80
13.54
17.09
21.82
26.92
31.82
36.10
39.19
40.40
39.23
36.10
32.97
33.23
40.79
58.90
88.96
129.91
178.33
229.04
276.49
316.26
346.33
367.48
382.55
394.52
404.50
410.50
407.88
391.50
358.33
309.39
249.81
187.18
128.88
80.10
42.87
16.43
-1.59
-14.20
-24.65
-36.32
-52.27
-74.40
-101.91
-130.68
-154.25
-166.57
-165.39
-154.44
-142.48
-139.62
-152.90
-183.08
-224.94
-270.40
-312.42
-347.83
-377.70
-405.70
-435.50
-468.68
-503.86
-537.01
-563.01
-577.58
-579.13
-569.18
-551.46
-529.81
-506.26
-480.32
-449.82
-412.88
-369.40
-321.28
-271.17
-220.99
-171.25
-121.69
-72.63
-25.88
15.46
48.34
71.04
84.05
89.81
91.48
91.87
92.85
95.52
100.61
109.04
121.91
140.10
163.86
192.19
222.81
252.41
277.28
294.06
300.63
296.61
283.38
263.68
240.66
217.10
194.75
174.23
155.31
137.58
121.15
106.80
95.91
89.80
88.91
92.27
97.60
102.10
103.65
101.46
96.08
88.76
80.53
71.85
62.72
53.32
44.41
37.25
32.91
31.67
32.83
34.95
36.58
36.70
34.86
31.03
25.34
18.14
10.20
2.85
-2.35
-4.24
-2.78
0.73
4.03
4.83
1.62
-6.00
-17.53
-31.83
-46.87
-59.61
-66.17
-63.22
-49.88
-29.05
-7.08
8.66
13.22
6.54
-6.61
-19.16
-25.47
-23.94
-17.09
-9.57
-5.17
-5.04
-7.81
-11.39
-14.61
-17.77
-21.79
-26.66
-30.68
-30.87
-24.69
-11.88
4.90
21.17
32.72
37.71
37.45
35.31
34.75
37.56
43.19
49.39
53.43
53.14
47.67
37.52
24.43
10.99
0.16
-5.46
-4.31
3.47
15.69
28.43
37.19
38.60
32.11
20.69
9.84
5.05
8.82
19.29
31.06
38.09
36.93
28.36
16.24
4.49
-5.62
-16.35
-31.57
-53.58
-81.03
-108.96
-130.98
-142.10
-140.43
-126.97
-104.44
-75.93
-44.44
-13.15
14.46
35.00
46.22
47.86
41.76
30.99
18.43
5.93
-5.78
-16.26
-24.77
-30.24
-31.81
-29.63
-25.01
-19.92
-15.85
-13.12
-10.88
-7.84
-3.22
2.80
9.38
15.62
21.33
27.13
34.00
42.53
52.27
61.62
68.55
71.48
69.98
64.94
58.11
51.18
45.22
40.48
36.75
33.97
32.55
33.36
37.30
44.63
54.58
65.57
75.68
83.42
88.38
91.19
93.07
95.00
97.02
98.20
97.02
92.33
83.86
72.44
59.45
46.10
33.05
20.46
8.39
-2.80
-12.62
-20.66
-26.77
-30.80
-32.25
-29.97
-22.76
-10.14
6.74
24.89
40.09
48.05
45.58
31.52
6.99
-24.85
-59.37
-91.39
-116.19
-130.85
-134.92
-130.27
-120.05
-107.22
-93.60
-79.69
-65.22
-49.89
-33.65
-16.47
2.03
22.49
45.16
69.18
92.29
111.30
123.49
127.97
126.42
122.69
121.27
125.32
135.15
147.84
158.28
160.92
151.67
129.14
94.77
52.18
6.02
-39.28
-80.28
-115.01
-142.96
-164.80
-181.98
-196.10
-208.29
-218.80
-227.09
-232.14
-232.91
-228.52
-218.45
-202.66
-182.07
-158.79
-135.50
-114.32
-95.53
-77.40
-57.43
-34.17
-8.76
15.33
34.25
45.94
51.33
53.28
54.19
54.21
50.99
41.47
24.03
-0.53
-29.61
-60.39
-90.93
-119.94
-145.98
-167.06
-181.06
-186.53
-183.40
-172.91
-156.89
-136.92
-114.01
-88.80
-61.61
-32.54
-1.70
30.30
61.58
88.56
106.40
110.75
100.24
77.83
50.39
26.22
11.80
9.50
17.26
30.04
41.94
48.88
50.07
48.01
46.83
50.04
58.64
70.47
81.05
85.04
79.47
65.25
46.73
29.38
17.42
12.95
16.66
28.76
47.64
70.79
95.13
117.47
134.34
142.34
138.84
122.37
92.20
45.78
-17.97
-95.58
-177.36
-249.41
-298.33
-315.56
-299.75
-257.54
-204.54
-158.18
-131.58
-129.67
-150.19
-187.40
-235.27
-288.89
-325.31
-327.03
-290.59
-229.23
-160.53
-94.98
-35.38
17.83
64.04
101.03
124.15
131.20
124.27
109.73
95.58
88.86
94.58
116.23
152.85
198.29
243.78
280.87
304.63
314.19
311.40
293.09
265.36
233.06
197.58
159.54
120.51
84.20
55.00
35.53
25.49
23.32
25.72
28.72
30.88
32.83
36.80
44.97
57.84
73.81
90.51
104.33
110.34
108.36
100.60
90.95
83.67
81.72
85.33
93.11
98.93
96.51
81.77
53.92
16.46
-23.70
-58.53
-81.19
-87.63
-77.87
-54.89
-24.23
7.89
36.59
59.39
75.78
86.45
92.15
93.86
92.01
85.12
72.13
54.43
36.65
24.87
23.49
33.09
49.64
65.75
70.79
56.88
22.49
-27.12
-82.98
-136.52
-181.74
-215.54
-237.38
-252.93
-269.44
-293.13
-327.06
-371.15
-423.33
-480.07
-536.99
-565.19
-544.28
-471.53
-364.60
-248.15
-139.88
-47.26
28.43
88.17
133.57
163.08
176.36
176.35
169.47
162.71
160.66
164.58
173.31
184.79
194.30
198.32
196.09
189.31
180.36
170.18
157.93
141.99
121.34
94.60
62.78
28.46
-4.73
-33.53
-56.29
-73.18
-85.54
-95.18
-104.82
-116.63
-130.77
-144.75
-153.77
-152.87
-139.48
-115.16
-85.49
-57.98
-39.25
-30.55
-29.57
-31.72
-32.69
-30.25
-24.82
-18.44
-12.99
-9.34
-7.22
-6.29
-6.64
-8.93
-13.57
-20.84
-30.17
-40.29
-49.74
-57.41
-63.29
-68.27
-73.92
-81.27
-91.05
-103.07
-116.38
-129.25
-139.70
-145.78
-145.49
-141.19
-133.69
-123.92
-112.78
-101.09
-89.32
-77.56
-65.50
-52.59
-38.32
-21.93
-3.46
16.40
36.66
56.58
76.04
95.64
116.31
138.78
163.39
189.31
215.12
239.48
261.72
281.61
298.80
311.98
318.79
317.05
305.26
283.28
252.11
213.00
166.89
115.06
60.53
9.04
-31.33
-53.09
-52.95
-34.04
-5.22
22.42
40.28
45.32
40.07
30.16
20.71
14.27
11.08
10.61
12.99
19.26
30.41
46.26
65.33
85.44
105.11
123.96
142.28
160.42
178.22
195.32
211.98
229.53
249.37
271.21
291.50
303.47
299.44
274.23
228.03
166.83
100.23
37.64
-15.25
-58.12
-94.95
-131.05
-169.94
-211.20
-250.19
-279.78
-293.32
-287.45
-263.92
-229.25
-192.22
-160.43
-137.26
-121.21
-107.57
-91.46
-70.70
-46.81
-23.55
-3.94
11.53
24.93
38.92
54.83
71.76
87.10
97.86
102.62
102.76
101.98
104.65
113.96
130.84
154.34
182.01
209.58
232.58
248.09
255.42
255.59
249.95
239.21
223.22
201.10
170.61
129.43
76.80
14.00
-56.51
-131.90
-209.25
-285.12
-348.03
-385.63
-393.30
-376.40
-344.87
-307.36
-269.09
-232.37
-197.99
-166.43
-139.17
-118.06
-103.64
-94.49
-88.02
-81.78
-74.04
-63.83
-50.97
-36.54
-22.19
-8.77
4.06
17.16
31.09
45.65
60.14
73.23
82.93
87.26
85.17
76.86
63.40
46.15
27.10
7.88
-10.12
-25.97
-39.08
-49.04
-55.63
-59.10
-60.12
-59.79
-59.20
-58.97
-59.17
-59.39
-59.05
-57.77
-55.80
-53.85
-52.93
-53.90
-56.82
-60.89
-64.75
-67.27
-67.86
-66.88
-65.32
-64.37
-64.98
-67.86
-73.36
-81.35
-90.50
-97.76
-98.94
-90.02
-69.38
-39.23
-5.49
24.30
44.00
51.07
47.10
36.04
21.97
7.38
-7.01
-21.15
-34.28
-44.53
-49.56
-47.77
-39.10
-25.02
-7.85
10.00
26.82
41.78
54.92
66.45
76.31
84.05
88.94
90.44
88.40
83.86
77.74
71.36
65.75
61.33
58.06
55.46
53.03
50.33
47.33
44.29
41.62
39.58
38.14
37.31
37.03
37.31
38.25
39.91
42.17
44.82
47.79
50.41
52.43
53.74
54.45
54.76
54.69
54.13
52.97
50.97
47.76
42.98
36.26
27.50
17.19
6.12
-4.86
-15.25
-25.21
-35.27
-45.52
-55.25
-62.90
-66.71
-65.91
-61.15
-54.37
-47.94
-43.50
-41.20
-39.94
-37.97
-33.79
-26.98
-18.52
-10.48
-5.28
-4.75
-8.90
-15.61
-21.34
-22.82
-18.68
-10.40
-1.75
2.97
0.23
-11.73
-32.82
-61.17
-93.10
-122.91
-143.32
-147.45
-132.16
-100.93
-63.81
-33.50
-19.47
-23.32
-38.15
-52.36
-55.69
-43.85
-18.89
11.98
40.34
61.05
73.98
82.20
88.47
92.81
92.34
83.55
65.47
41.59
19.10
6.05
7.42
22.63
45.78
68.48
83.66
88.54
85.37
79.59
76.60
78.52
83.16
85.68
81.47
68.60
48.32
23.59
-3.06
-30.97
-61.10
-94.65
-131.82
-171.40
-211.43
-249.83
-284.28
-311.31
-326.62
-327.01
-312.87
-289.66
-266.14
-250.25
-244.51
-244.33
-240.65
-225.10
-195.12
-154.82
-111.69
-71.61
-35.50
0.36
40.54
86.46
134.65
178.22
210.60
228.89
234.76
232.94
228.53
224.61
221.58
218.17
213.10
206.21
198.57
191.45
185.54
180.46
175.04
168.09
159.03
148.05
135.80
123.20
110.86
99.36
89.14
80.31
72.70
65.99
59.81
54.13
49.24
45.47
43.07
41.91
41.35
40.44
38.07
33.35
25.85
15.73
3.69
-9.24
-21.89
-33.18
-42.16
-48.13
-50.67
-49.55
-44.93
-37.48
-28.39
-19.20
-11.61
-6.80
-5.30
-6.93
-10.86
-16.14
-21.77
-26.86
-30.77
-33.01
-33.18
-31.09
-26.79
-20.55
-12.92
-4.55
3.94
11.97
19.11
24.98
29.23
31.50
31.53
29.18
24.69
18.75
12.13
5.62
-0.30
-5.50
-9.97
-13.62
-16.32
-17.77
-17.72
-16.18
-13.46
-10.07
-6.47
-2.93
0.51
4.02
7.67
11.38
14.87
17.74
19.58
20.11
19.21
16.90
13.37
8.72
2.91
-4.15
-12.41
-21.44
-30.38
-38.05
-43.37
-45.68
-44.89
-41.47
-36.04
-29.11
-20.94
-11.75
-1.97
7.54
15.64
21.30
24.05
24.23
22.80
20.99
19.77
19.44
19.70
19.95
19.70
18.93
18.02
17.36
17.12
17.09
16.74
15.54
13.30
10.26
7.02
4.20
2.17
0.99
0.36
-0.09
-0.58
-1.16
-1.74
-2.25
-2.84
-3.94
-6.06
-9.60
-14.65
-21.01
-28.14
-35.37
-41.89
-46.91
-49.74
-49.96
-47.49
-42.72
-36.38
-29.27
-22.13
-15.50
-9.84
-5.58
-3.13
-2.63
-3.78
-5.75
-7.42
-7.85
-6.73
-4.47
-1.99
-0.22
0.29
-0.50
-2.20
-4.42
-6.92
-9.69
-12.81
-16.20
-19.51
-22.31
-24.30
-25.52
-26.35
-27.27
-28.56
-30.12
-31.54
-32.33
-32.19
-31.16
-29.50
-27.52
-25.30
-22.70
-19.35
-15.02
-9.77
-3.99
1.70
6.89
11.72
16.86
23.29
31.65
41.60
51.74
60.02
64.62
64.77
60.99
54.79
47.90
41.69
36.91
33.88
32.80
33.76
36.50
40.21
43.47
44.74
42.86
37.59
29.64
20.28
10.77
1.98
-5.80
-12.70
-18.94
-24.62
-29.59
-33.48
-35.92
-36.76
-36.22
-34.88
-33.45
-32.52
-32.19
-32.13
-31.71
-30.44
-28.23
-25.47
-22.82
-20.82
-19.61
-18.85
-18.03
-16.72
-14.89
-12.92
-11.35
-10.61
-10.70
-11.18
-11.32
-10.55
-8.61
-5.77
-2.64
0.02
1.71
2.41
2.58
3.07
4.70
7.86
12.36
17.39
21.88
24.99
26.38
26.40
25.92
25.90
26.98
29.25
32.22
35.09
37.03
37.50
36.24
33.05
27.74
20.11
10.24
-1.22
-12.97
-23.45
-31.53
-37.02
-40.78
-44.13
-47.91
-51.81
-54.40
-54.05
-50.02
-43.19
-35.76
-30.14
-27.39
-26.56
-25.18
-20.52
-11.16
2.19
16.92
29.75
38.17
41.23
39.62
34.85
28.54
22.02
16.10
11.06
6.65
1.85
-4.84
-14.78
-28.48
-45.15
-62.75
-78.69
-90.40
-95.71
-93.19
-82.36
-64.21
-41.68
-19.27
-1.66
8.35
11.39
11.82
15.71
28.42
52.22
85.63
124.48
164.05
200.67
232.10
257.10
274.15
281.41
276.93
259.50
229.33
188.39
140.13
89.17
40.73
-0.26
-29.95
-46.57
-51.00
-46.72
-38.83
-32.42
-31.00
-35.62
-45.36
-58.20
-72.22
-86.25
-99.66
-111.86
-122.09
-129.44
-133.15
-133.20
-130.27
-125.35
-119.39
-112.66
-104.87
-95.51
-84.32
-71.45
-57.53
-43.42
-29.99
-17.89
-7.41
1.46
9.05
15.92
22.80
30.30
38.79
48.15
57.82
66.98
74.85
80.97
85.28
88.04
89.45
89.53
87.97
84.24
77.85
68.57
56.58
42.41
26.83
10.56
-5.74
-21.58
-36.53
-50.10
-61.68
-70.62
-76.31
-78.41
