1.592926011000000000e+09
-2.999999999999999889e-02
5.059999999999999609e+00
1.791000000000000014e+01
7.934000000000000341e+01
2.282500000000000000e+02
-4.865699999999999932e+02
-6.629999999999999893e+00
1.516399999999999864e+02
2.923000000000000043e+01
2.067999999999999972e+01
1.465000000000000036e+01
7.929999999999999716e+00
-6.030000000000000249e+00
-4.199999999999999845e-01
1.190000000000000036e+01
-1.328999999999999915e+01
-6.870000000000000107e+00
-3.140000000000000124e+00
1.819999999999999929e+01
-3.620000000000000107e+00
-2.367000000000000171e+01
6.089999999999999858e+00
-1.070000000000000062e+00
1.358000000000000007e+01
-2.439999999999999858e+01
2.675000000000000000e+01
2.600000000000000089e+00
-2.412999999999999901e+01
1.373000000000000043e+01
1.198000000000000043e+01
-2.492999999999999972e+01
-2.587000000000000099e+01
4.946000000000000085e+01
1.197000000000000064e+01
-3.882000000000000028e+01
2.064000000000000057e+01
1.011999999999999922e+01
-2.364999999999999858e+01
1.969999999999999973e+00
-2.729999999999999982e+00
2.467000000000000171e+01
6.080000000000000071e+00
1.992000000000000171e+01
-3.593999999999999773e+01
7.560999999999999943e+01
4.228999999999999915e+01
7.600000000000000089e-01
-1.091000000000000014e+01
4.830000000000000071e+00
2.879999999999999893e+00
1.479999999999999982e+00
-3.850000000000000089e+00
2.353999999999999915e+01
3.592999999999999972e+01
-4.863000000000000256e+01
1.209999999999999964e+01
-1.413000000000000078e+01
-2.270399999999999920e+02
-1.147000000000000064e+01
2.472100000000000080e+02
6.328000000000000114e+01
-4.390999999999999659e+01
1.041999999999999993e+01
-3.404999999999999716e+01
-1.815999999999999943e+02
2.449900000000000091e+02
2.039600000000000080e+02
-7.634000000000000341e+01
-1.939099999999999966e+02
5.871000000000000085e+01
-4.200000000000000000e+01
-7.530000000000000249e+00
3.532000000000000028e+01
1.430000000000000071e+01
-6.267000000000000171e+01
3.504999999999999716e+01
8.470000000000000284e+01
-6.007999999999999829e+01
-1.515000000000000036e+01
1.400000000000000133e-01
-4.099999999999999645e+00
3.254999999999999716e+01
1.025999999999999979e+01
9.800000000000000711e+00
-1.225799999999999983e+02
6.299000000000000199e+01
1.860999999999999943e+01
-8.330000000000000071e+00
-5.519999999999999574e+00
4.600000000000000200e-01
-2.703999999999999915e+01
-9.000000000000000000e+00
5.761999999999999744e+01
4.925999999999999801e+01
-1.803000000000000114e+01
-2.446999999999999886e+01
-2.067000000000000171e+01
-3.051000000000000156e+01
2.448999999999999844e+01
2.839999999999999858e+00
-2.425000000000000000e+01
4.440000000000000391e+00
-6.860000000000000320e+00
7.567000000000000171e+01
-2.219999999999999929e+01
5.300000000000000266e-01
6.979000000000000625e+01
-3.507999999999999829e+01
1.935999999999999943e+01
6.879999999999999893e+00
-2.240000000000000213e+00
9.949999999999999289e+00
-1.268999999999999950e+01
-1.680999999999999872e+01
2.966000000000000014e+01
-7.860000000000000320e+00
-4.184000000000000341e+01
2.219999999999999929e+01
1.773000000000000043e+01
-2.200000000000000000e+01
2.330000000000000071e+00
2.100000000000000089e+00
-3.499999999999999778e-01
2.700000000000000178e+00
2.650000000000000000e+01
7.269999999999999574e+00
-2.271999999999999886e+01
1.453999999999999915e+01
-1.010999999999999943e+01
-1.871999999999999886e+01
1.180000000000000071e+01
1.944999999999999929e+01
1.483999999999999986e+01
2.109999999999999876e+00
-2.114999999999999858e+01
1.653000000000000114e+01
-6.520000000000000284e+01
-6.899999999999999467e-01
1.330399999999999920e+02
-1.216000000000000014e+01
-3.869100000000000250e+02
1.399799999999999898e+02
-2.796000000000000085e+01
-5.895000000000000284e+01
-3.225000000000000000e+01
-9.300000000000000488e-01
1.399999999999999911e+00
1.966200000000000045e+02
3.799999999999999822e+00
-2.139000000000000057e+01
8.810000000000000497e+00
-3.403999999999999915e+01
-2.010999999999999943e+01
4.629999999999999893e+00
-8.400000000000000355e+00
8.162999999999999545e+01
7.334999999999999432e+01
-1.430000000000000071e+01
-1.200699999999999932e+02
-2.004399999999999977e+02
-4.842000000000000171e+01
2.108000000000000114e+02
3.811000000000000227e+02
1.300000000000000044e-01
-6.321999999999999886e+01
-2.316000000000000014e+01
-6.679000000000000625e+01
-1.527999999999999936e+01
-2.580000000000000071e+00
-3.692999999999999972e+01
-7.206999999999999318e+01
-1.281000000000000050e+01
6.887000000000000455e+01
3.885000000000000142e+01
7.830000000000000071e+00
5.580000000000000071e+00
-3.350999999999999801e+01
-2.494999999999999929e+01
5.250000000000000000e+00
-3.628000000000000114e+01
-3.026999999999999957e+01
1.141299999999999955e+02
1.626999999999999957e+01
6.712000000000000455e+01
-1.044999999999999929e+01
-4.953000000000000114e+01
-6.968000000000000682e+01
1.971999999999999886e+01
2.498999999999999844e+01
-4.131000000000000227e+01
-4.960000000000000142e+01
1.280900000000000034e+02
3.025000000000000000e+01
-1.209999999999999964e+01
-3.029999999999999805e+00
-1.723999999999999844e+01
-1.951000000000000156e+01
1.607000000000000028e+01
1.419999999999999929e+00
4.349999999999999645e+00
2.103000000000000114e+01
9.580000000000000071e+00
-2.646999999999999886e+01
-2.162000000000000099e+01
1.473000000000000043e+01
8.189999999999999503e+00
-7.240000000000000213e+00
1.093999999999999950e+01
6.469999999999999751e+00
-1.950000000000000000e+01
-2.657999999999999829e+01
5.209999999999999964e+00
6.370000000000000107e+00
-8.330000000000000071e+00
6.330000000000000071e+00
7.240000000000000213e+00
5.349999999999999645e+00
-7.629999999999999893e+00
4.339999999999999858e+00
-6.815999999999999659e+01
4.678999999999999915e+01
-8.090999999999999659e+01
-1.233999999999999986e+01
-1.089000000000000057e+01
5.625000000000000000e+01
2.753999999999999915e+01
-1.320000000000000062e+00
-3.492000000000000171e+01
-1.542999999999999972e+01
-3.753999999999999915e+01
-1.296000000000000085e+01
4.077000000000000313e+01
4.129999999999999716e+01
-1.400000000000000133e-01
2.151999999999999957e+01
1.290000000000000036e+00
-5.675000000000000000e+01
-3.010999999999999943e+01
-2.350000000000000089e+00
1.336999999999999922e+01
4.347999999999999687e+01
4.785999999999999943e+01
-4.000000000000000222e-01
-4.179999999999999716e+01
-2.253999999999999915e+01
-2.005999999999999872e+01
-3.310000000000000142e+01
2.996000000000000085e+01
3.845000000000000284e+01
1.848999999999999844e+01
4.120000000000000107e+00
2.930000000000000071e+01
-3.187999999999999901e+01
-5.417999999999999972e+01
8.300000000000000711e+00
3.146999999999999886e+01
3.144999999999999929e+01
1.619999999999999929e+01
1.135999999999999943e+01
-1.696000000000000085e+01
-6.400000000000000000e+01
1.339000000000000057e+01
1.225000000000000000e+01
1.794999999999999929e+01
4.018999999999999773e+01
2.567999999999999972e+01
-1.476999999999999957e+01
-4.002000000000000313e+01
-1.005000000000000071e+01
-1.900000000000000022e-01
1.799999999999999933e-01
4.161999999999999744e+01
3.192999999999999972e+01
-5.429999999999999716e+00
-2.839000000000000057e+01
-8.640000000000000568e+00
-2.458999999999999986e+01
-1.823000000000000043e+01
3.585000000000000142e+01
3.528999999999999915e+01
3.029999999999999805e+00
-7.070000000000000284e+00
1.036999999999999922e+01
-1.559999999999999964e+01
-4.225999999999999801e+01
6.719999999999999751e+00
2.892000000000000171e+01
2.607000000000000028e+01
2.000000000000000000e+00
9.789999999999999147e+00
-1.350999999999999979e+01
-3.485999999999999943e+01
-9.839999999999999858e+00
1.632000000000000028e+01
1.031000000000000050e+01
-2.549999999999999822e+00
-1.669999999999999929e+00
9.710999999999999943e+01
1.566100000000000136e+02
-1.270799999999999983e+02
4.600000000000000200e-01
5.945000000000000284e+01
-1.995099999999999909e+02
-1.827400000000000091e+02
-3.507500000000000000e+02
2.918899999999999864e+02
3.680500000000000114e+02
-8.839999999999999858e+00
-2.374600000000000080e+02
1.839000000000000057e+02
1.456000000000000050e+01
1.305900000000000034e+02
-1.197000000000000064e+01
-4.882000000000000028e+01
-3.364000000000000057e+01
6.150000000000000000e+01
-1.626999999999999957e+01
3.365999999999999659e+01
-1.744000000000000128e+01
1.799999999999999933e-01
5.111999999999999744e+01
-5.571999999999999886e+01
-2.890000000000000124e+00
4.756000000000000227e+01
-7.950000000000000000e+01
5.729999999999999716e+01
1.996000000000000085e+01
3.757000000000000028e+01
1.026599999999999966e+02
-2.905000000000000071e+01
-3.114999999999999858e+01
-5.157999999999999829e+01
9.143000000000000682e+01
3.012000000000000099e+01
-2.955999999999999872e+01
2.669999999999999929e+00
-2.821999999999999886e+01
-4.861999999999999744e+01
1.517999999999999972e+01
9.480000000000000426e+00
-2.719999999999999929e+01
4.040000000000000036e+00
1.755000000000000071e+01
-1.646000000000000085e+01
-6.122999999999999687e+01
6.878000000000000114e+01
1.112699999999999960e+02
7.725000000000000000e+01
-8.179999999999999716e+00
5.750000000000000000e+00
-1.125000000000000000e+01
2.148000000000000043e+01
2.487000000000000099e+01
-9.965999999999999659e+01
3.922999999999999687e+01
1.334999999999999964e+01
7.593000000000000682e+01
2.041000000000000014e+01
-3.957900000000000205e+02
-1.338000000000000078e+01
4.663799999999999955e+02
8.701000000000000512e+01
-4.552500000000000000e+02
-1.227199999999999989e+02
1.297100000000000080e+02
-2.319000000000000128e+01
3.432000000000000028e+01
5.786999999999999744e+01
1.490000000000000036e+01
-5.690000000000000391e+00
-1.828000000000000114e+01
1.515000000000000036e+01
-1.953000000000000114e+01
-5.146999999999999886e+01
4.428999999999999915e+01
2.416000000000000014e+01
3.477000000000000313e+01
-1.880000000000000071e+01
-1.757000000000000028e+01
1.033999999999999986e+01
-2.251999999999999957e+01
-1.194699999999999989e+02
1.972700000000000102e+02
1.038000000000000078e+01
-3.116800000000000068e+02
2.733199999999999932e+02
1.260100000000000051e+02
-6.837000000000000455e+01
-1.296999999999999886e+02
1.628300000000000125e+02
-6.378999999999999915e+01
5.314999999999999858e+01
-5.688000000000000256e+01
1.227999999999999936e+01
1.955099999999999909e+02
3.264999999999999858e+01
-1.827400000000000091e+02
7.929999999999999716e+00
1.190999999999999943e+02
-3.340999999999999659e+01
2.566000000000000014e+01
5.075000000000000000e+01
-1.263000000000000078e+01
7.471999999999999886e+01
8.476000000000000512e+01
-1.354499999999999886e+02
-1.335999999999999943e+01
6.103999999999999915e+01
2.096000000000000085e+01
-8.037000000000000455e+01
-5.100000000000000089e-01
-8.279999999999999361e+00
-5.339999999999999858e+01
2.667999999999999972e+01
2.401999999999999957e+01
-2.771000000000000085e+01
2.605000000000000071e+01
3.725000000000000000e+01
7.150000000000000355e+00
-8.857999999999999829e+01
3.346000000000000085e+01
-2.509999999999999787e+00
-5.635999999999999943e+01
4.725999999999999801e+01
1.935999999999999943e+01
-4.061999999999999744e+01
2.291000000000000014e+01
-4.699999999999999734e-01
-5.763000000000000256e+01
-8.119999999999999218e+00
8.919999999999999929e+00
6.135000000000000142e+01
2.630899999999999750e+02
-4.922999999999999687e+01
-1.331999999999999886e+02
-1.542999999999999972e+01
6.807999999999999829e+01
4.445000000000000284e+01
-6.099999999999999645e+00
-3.957000000000000028e+01
-3.306000000000000227e+01
5.706000000000000227e+01
2.748999999999999844e+01
2.939999999999999947e+00
2.642000000000000171e+01
2.979999999999999982e+00
-4.525999999999999801e+01
4.129999999999999716e+01
2.982999999999999829e+01
3.439999999999999947e+00
5.625000000000000000e+01
-2.028999999999999915e+01
-8.139000000000000057e+01
-2.999999999999999889e-02
1.905000000000000071e+01
-8.999999999999999667e-02
-4.009999999999999787e+00
8.080000000000000071e+00
5.967999999999999972e+01
-1.987999999999999901e+01
-1.642999999999999972e+01
-2.328999999999999915e+01
-4.788000000000000256e+01
5.511999999999999744e+01
-1.234999999999999964e+01
-6.200999999999999801e+01
2.782999999999999829e+01
1.156000000000000050e+01
-3.307999999999999829e+01
-7.373999999999999488e+01
-1.498000000000000043e+01
3.352000000000000313e+01
-5.990000000000000213e+00
5.749000000000000199e+01
2.733999999999999986e+01
-4.017999999999999972e+01
5.730000000000000426e+00
8.769999999999999574e+00
-1.955999999999999872e+01
-3.656000000000000227e+01
8.689999999999999503e+00
2.935999999999999943e+01
2.771999999999999886e+01
5.370000000000000284e+01
8.230000000000000426e+00
-2.469999999999999929e+01
3.599999999999999867e-01
1.792000000000000171e+01
1.411800000000000068e+02
-9.503000000000000114e+01
1.941000000000000014e+01
1.491999999999999993e+01
5.757999999999999829e+01
2.705999999999999872e+01
2.305999999999999872e+01
-2.964599999999999795e+02
9.554999999999999716e+01
8.107999999999999829e+01
-3.112999999999999901e+01
9.429999999999999716e+00
3.399999999999999911e+00
-3.735999999999999943e+01
2.476000000000000156e+01
5.349999999999999645e+00
-3.514000000000000057e+01
-3.499999999999999778e-01
1.202500000000000000e+02
7.732999999999999829e+01
-1.104800000000000040e+02
-7.384000000000000341e+01
-2.476999999999999957e+01
-5.803000000000000114e+01
5.456000000000000227e+01
6.072999999999999687e+01
1.049800000000000040e+02
5.719999999999999751e+00
-1.668600000000000136e+02
2.682300000000000182e+02
-3.282000000000000028e+01
7.770999999999999375e+01
8.660000000000000142e+00
-8.095000000000000284e+01
1.210999999999999943e+01
1.980999999999999872e+01
-1.194999999999999929e+01
4.059999999999999609e+00
1.076999999999999957e+01
-1.032000000000000028e+01
-1.958999999999999986e+01
1.296000000000000085e+01
3.649999999999999911e+00
-2.637999999999999901e+01
1.205000000000000071e+01
1.332000000000000028e+01
-1.980000000000000071e+01
3.979999999999999982e+00
9.640000000000000568e+00
9.599999999999999645e-01
-2.930000000000000160e+00
1.226999999999999957e+01
-3.830000000000000071e+00
5.213000000000000256e+01
-1.279500000000000028e+02
1.919999999999999929e+01
1.340399999999999920e+02
2.082899999999999920e+02
4.015999999999999659e+01
-1.255300000000000011e+02
-3.414100000000000250e+02
1.224699999999999989e+02
3.156000000000000227e+02
-1.895500000000000114e+02
-3.654200000000000159e+02
3.499399999999999977e+02
2.324099999999999966e+02
2.794999999999999929e+01
-1.345900000000000034e+02
-4.391399999999999864e+02
-8.668999999999999773e+01
-1.495300000000000011e+02
-8.776999999999999602e+01
1.455500000000000114e+02
9.540000000000000000e+02
-3.555699999999999932e+02
-2.598199999999999932e+02
6.829000000000000625e+01
4.082000000000000028e+01
-1.765699999999999932e+02
-1.328600000000000136e+02
8.393000000000000682e+01
4.005099999999999909e+02
7.398000000000000398e+01
-5.150999999999999801e+01
-3.835000000000000142e+01
-1.208999999999999986e+01
-3.649999999999999911e+00
-2.212000000000000099e+01
2.379999999999999893e+00
1.620000000000000107e+00
-2.639999999999999858e+01
-1.773999999999999844e+01
6.275999999999999801e+01
2.844700000000000273e+02
-1.607800000000000011e+02
-9.173999999999999488e+01
4.054999999999999716e+01
-2.162000000000000099e+01
1.855999999999999872e+01
-1.425000000000000000e+01
-8.123999999999999488e+01
2.267999999999999972e+01
-1.374199999999999875e+02
1.550699999999999932e+02
5.275000000000000000e+01
-6.740000000000000213e+00
-4.792000000000000171e+01
-1.800000000000000044e+00
2.382000000000000028e+01
-5.679999999999999716e+00
-2.767000000000000171e+01
3.647999999999999687e+01
2.376999999999999957e+01
-3.334000000000000341e+01
3.278000000000000114e+01
-6.995000000000000284e+01
3.390000000000000124e+00
3.303000000000000114e+01
1.024000000000000021e+01
-1.300000000000000044e-01
4.364999999999999858e+01
-2.910000000000000142e+01
-3.489000000000000057e+01
2.730999999999999872e+01
3.478000000000000114e+01
2.819999999999999840e+00
1.057000000000000028e+02
-7.662000000000000455e+01
7.256999999999999318e+01
1.075400000000000063e+02
1.366299999999999955e+02
-4.203299999999999841e+02
-2.212999999999999901e+01
-3.640999999999999659e+01
-2.076100000000000136e+02
-3.098999999999999844e+01
2.138700000000000045e+02
9.596999999999999886e+01
-6.806999999999999318e+01
7.109999999999999432e+01
1.060999999999999943e+02
-1.910999999999999943e+01
-6.167000000000000171e+01
1.164899999999999949e+02
-7.284000000000000341e+01
-9.229999999999999716e+01
-6.004999999999999716e+01
2.121999999999999886e+01
2.081699999999999875e+02
-1.118400000000000034e+02
-4.664999999999999858e+01
4.093999999999999773e+01
2.351999999999999957e+01
-1.280000000000000071e+01
8.880000000000000782e+00
6.419999999999999929e+00
2.164000000000000057e+01
7.190000000000000391e+00
7.910000000000000142e+00
-2.950000000000000178e+00
-4.168999999999999773e+01
-1.693400000000000034e+02
2.951999999999999957e+01
-8.378000000000000114e+01
2.035800000000000125e+02
-1.896999999999999886e+01
-5.639999999999999680e+00
-9.898000000000000398e+01
-6.306000000000000227e+01
-1.978999999999999915e+01
-1.441000000000000014e+01
7.040000000000000036e+00
-1.282599999999999909e+02
-9.896999999999999886e+01
2.639100000000000250e+02
-4.439999999999999858e+01
-1.301999999999999886e+02
8.234999999999999432e+01
-1.134000000000000057e+02
1.066000000000000014e+01
-1.474000000000000021e+01
5.081000000000000227e+01
1.151599999999999966e+02
3.435999999999999943e+01
1.629399999999999977e+02
1.979999999999999982e+00
-6.626200000000000045e+02
6.501699999999999591e+02
-7.098000000000000398e+01
-3.729200000000000159e+02
3.721100000000000136e+02
-9.518999999999999773e+01
-3.571399999999999864e+02
3.513000000000000114e+02
-7.698999999999999488e+01
-1.974399999999999977e+02
8.042000000000000171e+01
-6.784000000000000341e+01
1.063900000000000006e+02
-4.066499999999999773e+02
-1.576299999999999955e+02
3.704300000000000068e+02
2.507199999999999989e+02
-1.625399999999999920e+02
-7.590999999999999659e+01
-6.940999999999999659e+01
-1.375099999999999909e+02
2.255999999999999872e+01
1.102099999999999937e+02
-1.286899999999999977e+02
2.117000000000000171e+01
1.188400000000000034e+02
-1.626299999999999955e+02
1.449000000000000057e+02
-7.860999999999999943e+01
7.500000000000000000e-01
-3.734000000000000341e+01
4.514000000000000057e+01
1.006700000000000017e+02
-3.339999999999999858e+01
1.614000000000000057e+01
-2.798999999999999844e+01
-5.282999999999999829e+01
5.172999999999999687e+01
1.960999999999999943e+01
6.690000000000000391e+00
-8.609999999999999432e+00
1.459999999999999964e+00
4.760000000000000142e+01
-1.880000000000000071e+01
3.553999999999999915e+01
1.161099999999999994e+02
-1.243400000000000034e+02
-1.261400000000000006e+02
-3.260000000000000142e+01
1.812500000000000000e+02
-6.740000000000000568e+01
-3.810000000000000142e+01
3.942999999999999972e+01
2.771000000000000085e+01
-5.603999999999999915e+01
-8.628000000000000114e+01
1.171299999999999955e+02
7.035999999999999943e+01
-2.088499999999999943e+02
-3.990000000000000213e+00
1.365300000000000011e+02
8.359999999999999432e+01
-2.582000000000000028e+01
-1.286999999999999922e+01
3.430000000000000160e+00
2.264999999999999858e+01
-7.000000000000000000e+00
4.759999999999999787e+00
-2.130000000000000071e+01
3.721999999999999886e+01
-2.766000000000000014e+01
-7.312999999999999545e+01
-1.148000000000000043e+01
1.580000000000000071e+00
2.779999999999999805e+00
8.839999999999999858e+00
1.366000000000000014e+01
2.500000000000000000e+00
-3.919999999999999929e+00
1.332000000000000028e+01
1.596000000000000085e+01
-1.664000000000000057e+01
-6.429999999999999716e+00
9.019999999999999574e+00
-5.570000000000000284e+00
-2.232999999999999829e+01
1.800000000000000044e+00
8.269999999999999574e+00
-4.160000000000000142e+00
2.639999999999999858e+01
5.370000000000000107e+00
-8.339999999999999858e+00
6.059999999999999609e+00
2.259999999999999787e+00
-1.216999999999999993e+01
-2.653000000000000114e+01
2.237999999999999901e+01
4.469999999999999751e+00
-1.199000000000000021e+01
3.540000000000000036e+00
2.160000000000000142e+00
-7.870000000000000107e+00
2.009999999999999787e+00
4.150000000000000355e+00
-1.239999999999999991e+00
-1.042999999999999972e+01
2.580000000000000071e+00
1.659999999999999920e+00
-1.248000000000000043e+01
8.919999999999999929e+00
-1.580000000000000071e+00
-8.085999999999999943e+01
1.944000000000000057e+02
3.814300000000000068e+02
-1.964900000000000091e+02
-2.376999999999999957e+01
-4.350999999999999801e+01
-1.103999999999999915e+01
-6.419999999999999929e+00
-3.439000000000000057e+01
-1.246200000000000045e+02
9.510999999999999943e+01
2.160000000000000142e+00
-6.526999999999999602e+01
1.181000000000000050e+01
3.688199999999999932e+02
-7.231000000000000227e+01
-9.893999999999999773e+01
1.099000000000000057e+02
-3.411999999999999744e+01
1.800500000000000114e+02
2.692799999999999727e+02
-1.509099999999999966e+02
-1.316999999999999993e+01
-9.767799999999999727e+02
-6.717200000000000273e+02
5.714600000000000364e+02
-5.496999999999999886e+01
1.404000000000000057e+02
6.260000000000000142e+01
8.667899999999999636e+02
-4.382200000000000273e+02
2.096800000000000068e+02
-2.009499999999999886e+02
1.163100000000000023e+02
-1.725300000000000011e+02
1.388600000000000136e+02
4.532000000000000028e+01
2.314999999999999858e+01
-3.661999999999999744e+01
-4.725999999999999801e+01
-1.070499999999999972e+02
3.270000000000000284e+01
7.731999999999999318e+01
3.990000000000000213e+00
5.969999999999999751e+00
5.767000000000000171e+01
-3.938000000000000256e+01
-2.135999999999999943e+01
-1.343999999999999950e+01
-3.735999999999999943e+01
3.418999999999999773e+01
-1.314600000000000080e+02
1.574099999999999966e+02
8.303000000000000114e+01
-7.084999999999999432e+01
-1.027500000000000000e+02
-3.624000000000000199e+01
8.914000000000000057e+01
-4.492000000000000171e+01
-1.529099999999999966e+02
2.475699999999999932e+02
3.137999999999999901e+01
-7.262999999999999545e+01
-4.177000000000000313e+01
-6.354999999999999716e+01
-7.470999999999999375e+01
1.360099999999999909e+02
2.833999999999999986e+01
-5.172999999999999687e+01
1.787000000000000099e+01
-6.509999999999999432e+01
3.488000000000000256e+01
-3.389999999999999858e+01
-1.154200000000000017e+02
-1.668700000000000045e+02
-4.469999999999999751e+00
3.448100000000000023e+02
9.064700000000000273e+02
-3.805600000000000023e+02
-1.745800000000000125e+02
-3.432400000000000091e+02
9.846999999999999886e+01
2.491500000000000057e+02
-1.016000000000000014e+01
-1.746299999999999955e+02
7.793000000000000682e+01
-9.750000000000000000e+00
-8.518000000000000682e+01
5.292999999999999972e+01
1.987999999999999901e+01
6.719999999999999751e+00
3.250000000000000000e+00
-3.982999999999999829e+01
6.000000000000000000e+00
4.179999999999999716e+00
-4.682000000000000028e+01
2.898000000000000043e+01
2.321999999999999886e+01
-1.040600000000000023e+02
1.004500000000000028e+02
6.253999999999999915e+01
-1.669900000000000091e+02
4.252000000000000313e+01
-2.269499999999999886e+02
1.088499999999999943e+02
1.534399999999999977e+02
-6.668999999999999773e+01
4.877000000000000313e+01
2.014000000000000057e+01
-7.926000000000000512e+01
-6.320000000000000284e+00
8.460000000000000853e+00
-4.281000000000000227e+01
-1.597000000000000064e+01
3.290999999999999659e+01
7.534000000000000341e+01
2.694000000000000128e+01
-2.129999999999999893e+00
-4.043999999999999773e+01
-2.278000000000000114e+01
-1.506000000000000050e+01
2.262000000000000099e+01
9.504000000000000625e+01
-1.767000000000000171e+01
-2.632000000000000028e+01
7.700000000000000178e-01
-7.790000000000000036e+00
-1.575000000000000000e+01
-1.876000000000000156e+01
1.753999999999999915e+01
6.534000000000000341e+01
4.495000000000000284e+01
-3.763000000000000256e+01
5.585999999999999943e+01
-1.188700000000000045e+02
-5.135999999999999943e+01
-1.585200000000000102e+02
2.528300000000000125e+02
9.992000000000000171e+01
-3.267000000000000171e+01
-2.330000000000000071e+01
4.138000000000000256e+01
-7.268000000000000682e+01
4.156000000000000227e+01
-7.956999999999999318e+01
-1.334999999999999964e+01
-5.254999999999999716e+01
4.193999999999999773e+01
1.685999999999999943e+01
-6.025000000000000000e+01
-1.273299999999999983e+02
4.149100000000000250e+02
5.796000000000000085e+01
4.507999999999999829e+01
5.492999999999999972e+01
-5.488000000000000256e+01
-4.849999999999999645e+00
-7.837999999999999545e+01
9.973000000000000398e+01
1.893799999999999955e+02
-1.905699999999999932e+02
-1.307299999999999898e+02
2.823299999999999841e+02
7.479000000000000625e+01
-4.479999999999999716e+01
-2.999999999999999889e-01
-6.040999999999999659e+01
-1.855999999999999872e+01
8.951000000000000512e+01
-7.139000000000000057e+01
8.512000000000000455e+01
1.040699999999999932e+02
-3.876800000000000068e+02
3.153000000000000114e+01
1.330600000000000023e+02
-3.185000000000000142e+01
-2.980699999999999932e+02
1.418600000000000136e+02
-2.819999999999999929e+01
-8.940999999999999659e+01
-5.549000000000000199e+01
4.003899999999999864e+02
1.236640000000000100e+03
-9.945000000000000000e+02
-4.061000000000000227e+02
-1.223199999999999932e+02
1.110300000000000011e+02
-2.791000000000000014e+01
-9.265000000000000568e+01
4.826999999999999886e+02
-1.604399999999999977e+02
-3.459000000000000341e+01
3.475999999999999801e+01
-7.129000000000000625e+01
6.876000000000000512e+01
5.946000000000000085e+01
-7.945000000000000284e+01
-1.370200000000000102e+02
4.135000000000000142e+01
4.079999999999999716e+01
-1.144099999999999966e+02
2.146999999999999886e+01
-1.527999999999999936e+01
1.125999999999999979e+01
5.442999999999999972e+01
-9.226000000000000512e+01
-2.480000000000000071e+01
1.134999999999999964e+01
-1.254500000000000028e+02
1.323400000000000034e+02
-6.860000000000000320e+00
-7.437000000000000455e+01
6.099000000000000199e+01
4.729999999999999716e+01
2.021999999999999886e+01
-1.167399999999999949e+02
-7.364000000000000057e+01
3.731000000000000227e+01
-1.213000000000000078e+01
4.042000000000000171e+01
3.692000000000000171e+01
1.253199999999999932e+02
-1.675000000000000000e+02
1.755999999999999872e+01
-4.931000000000000227e+01
-8.410000000000000142e+00
3.182000000000000028e+01
9.839999999999999858e+00
-9.320000000000000284e+00
8.315999999999999659e+01
-6.515000000000000568e+01
2.558999999999999986e+01
1.499999999999999944e-01
-1.972700000000000102e+02
3.027699999999999818e+02
-4.167999999999999972e+01
1.626999999999999957e+01
-4.400000000000000355e+00
-1.734600000000000080e+02
1.228999999999999915e+01
4.040000000000000036e+00
-3.628000000000000114e+01
-2.637000000000000099e+01
1.528700000000000045e+02
-1.757899999999999920e+02
1.939000000000000057e+01
-8.423000000000000398e+01
4.128999999999999915e+01
9.001999999999999602e+01
-5.639000000000000057e+01
-6.267999999999999972e+01
2.798999999999999844e+01
-3.472999999999999687e+01
6.188000000000000256e+01
-7.832999999999999829e+01
-8.519999999999999574e+00
1.729999999999999982e+00
9.799999999999999822e-01
-2.466000000000000014e+01
3.267000000000000171e+01
1.210799999999999983e+02
4.207000000000000028e+01
-1.533499999999999943e+02
9.035999999999999943e+01
-3.128100000000000023e+02
-1.053999999999999915e+01
2.854499999999999886e+02
2.253199999999999932e+02
-1.819199999999999875e+02
-1.747599999999999909e+02
9.365000000000000568e+01
-3.304999999999999716e+01
-1.057000000000000028e+02
1.313799999999999955e+02
1.280000000000000027e+00
3.296999999999999886e+01
4.078799999999999955e+02
-1.019099999999999966e+02
-4.355000000000000000e+02
-2.711700000000000159e+02
1.090400000000000063e+02
1.742299999999999898e+02
7.184999999999999432e+01
2.850000000000000089e+00
-2.905000000000000071e+01
-1.776999999999999957e+01
4.939000000000000057e+01
2.069000000000000128e+01
-1.089599999999999937e+02
5.929999999999999716e+00
1.561999999999999922e+01
3.396999999999999886e+01
9.232999999999999829e+01
-1.014000000000000057e+01
-1.072199999999999989e+02
1.226899999999999977e+02
-1.648000000000000114e+02
-7.740000000000000568e+01
-6.039000000000000057e+01
3.030000000000000071e+01
4.800999999999999801e+01
7.079000000000000625e+01
-2.575400000000000205e+02
1.782999999999999829e+01
3.141899999999999977e+02
3.282999999999999829e+01
9.651000000000000512e+01
9.215000000000000568e+01
-8.298000000000000398e+01
-3.646000000000000227e+02
1.943000000000000114e+02
-8.554000000000000625e+01
-3.268999999999999773e+01
-6.328999999999999915e+01
-8.931999999999999318e+01
2.151200000000000045e+02
-3.132999999999999829e+01
3.041000000000000014e+01
2.994399999999999977e+02
-2.639200000000000159e+02
7.176000000000000512e+01
2.499499999999999886e+02
-3.448700000000000045e+02
-2.219000000000000128e+01
-1.011999999999999922e+01
-5.292999999999999972e+01
-9.893999999999999773e+01
-4.956000000000000227e+01
7.773999999999999488e+01
3.825000000000000000e+01
3.625999999999999801e+01
-4.350000000000000000e+01
-1.750000000000000000e+00
-3.814999999999999858e+01
1.910000000000000142e+01
4.832000000000000028e+01
-2.661399999999999864e+02
2.105999999999999943e+02
1.590300000000000011e+02
4.135000000000000142e+01
-2.839000000000000057e+01
-1.291999999999999993e+01
-9.970000000000000639e+00
1.957999999999999829e+01
-3.603999999999999915e+01
1.969999999999999929e+01
-5.799999999999999600e-01
-4.749000000000000199e+01
-1.989999999999999991e+00
-2.855999999999999872e+01
1.172000000000000064e+01
3.375999999999999801e+01
-3.347999999999999687e+01
-1.885000000000000142e+01
2.410000000000000142e+00
3.509000000000000341e+01
-5.181000000000000227e+01
4.122999999999999687e+01
-9.570999999999999375e+01
2.006699999999999875e+02
-4.671999999999999886e+01
-1.253499999999999943e+02
3.030000000000000071e+01
4.240999999999999659e+01
-4.124000000000000199e+01
6.020000000000000284e+01
-4.390999999999999659e+01
-3.864000000000000057e+01
2.926999999999999957e+01
-1.708999999999999986e+01
-1.446000000000000085e+01
8.080000000000000071e+00
-3.098000000000000043e+01
-5.790000000000000036e+00
7.051999999999999602e+01
-6.799999999999999822e+00
2.410000000000000142e+00
4.910000000000000142e+00
3.492000000000000171e+01
-4.080000000000000071e+00
-1.905000000000000071e+01
-3.828000000000000114e+01
8.399999999999999689e-01
-2.917999999999999972e+01
1.930000000000000071e+01
-6.799999999999999822e+00
9.730000000000000426e+00
1.982000000000000028e+01
-1.374000000000000021e+01
-9.039999999999999147e+00
1.032000000000000028e+01
-2.216000000000000014e+01
5.899999999999999689e-01
-1.222000000000000064e+01
3.310000000000000053e+00
1.185999999999999943e+01
8.359999999999999432e+00
1.108000000000000007e+01
2.701000000000000156e+01
-4.928999999999999915e+01
-2.912000000000000099e+01
2.573999999999999844e+01
1.723000000000000043e+01
-3.964000000000000057e+01
-1.491999999999999993e+01
7.860000000000000320e+00
1.215199999999999960e+02
-9.217000000000000171e+01
-7.040999999999999659e+01
-7.099999999999999645e-01
6.492000000000000171e+01
4.274000000000000199e+01
2.525000000000000000e+01
-1.873999999999999844e+01
1.350999999999999979e+01
-1.007000000000000028e+01
-6.419999999999999929e+00
6.700000000000000178e+00
-3.133999999999999986e+01
-5.400000000000000355e+00
-1.016999999999999993e+01
1.671899999999999977e+02
-1.001700000000000017e+02
-5.261999999999999744e+01
3.139000000000000057e+01
1.928000000000000114e+01
1.590000000000000080e+00
-3.549999999999999822e+00
2.371999999999999886e+01
1.378999999999999915e+01
-6.862000000000000455e+01
2.987000000000000099e+01
-3.981000000000000227e+01
-4.886999999999999744e+01
1.888100000000000023e+02
-8.718999999999999773e+01
-7.048999999999999488e+01
-5.938000000000000256e+01
3.390000000000000124e+00
3.339999999999999858e+01
9.957999999999999829e+01
-3.471999999999999886e+01
-9.990000000000000213e+00
6.300000000000000044e-01
9.800000000000000711e+00
-3.075000000000000000e+01
-3.785000000000000142e+01
1.421000000000000085e+01
-2.289000000000000057e+01
2.560000000000000053e+00
-2.421000000000000085e+01
1.238400000000000034e+02
-5.343999999999999773e+01
-5.832999999999999829e+01
-1.773000000000000043e+01
-2.358999999999999986e+01
4.139999999999999858e+01
1.113000000000000078e+01
1.260000000000000009e+00
7.707999999999999829e+01
-3.051000000000000156e+01
-1.069899999999999949e+02
-2.298999999999999844e+01
4.114999999999999858e+01
1.691999999999999886e+02
-1.231899999999999977e+02
1.510999999999999943e+01
-7.410000000000000142e+00
-2.942999999999999972e+01
-5.099999999999999645e+00
-8.345000000000000284e+01
-1.384999999999999964e+01
6.050999999999999801e+01
-1.973000000000000043e+01
2.796999999999999886e+01
1.486999999999999886e+02
5.336999999999999744e+01
-6.420000000000000284e+01
3.834000000000000341e+01
4.985000000000000000e+02
-3.914900000000000091e+02
-2.017299999999999898e+02
-9.718999999999999773e+01
3.098999999999999844e+01
-2.248999999999999844e+01
-4.200000000000000178e+00
2.919999999999999929e+01
2.185900000000000034e+02
-2.102100000000000080e+02
1.788400000000000034e+02
2.396999999999999886e+01
1.056899999999999977e+02
-4.500000000000000000e+01
-5.840999999999999659e+01
2.073999999999999844e+01
5.067999999999999972e+01
-4.121000000000000085e+01
-5.521000000000000085e+01
1.165000000000000000e+02
-6.428000000000000114e+01
-6.154999999999999716e+01
