1588977047.00
64.000000
-0.00
-0.00
-0.00
-0.00
-0.00
-0.00
-0.00
-0.00
-0.00
-0.00
0.00
0.01
0.01
-0.00
-0.03
-0.05
-0.05
0.00
0.13
0.36
0.66
1.01
1.37
1.72
2.06
2.40
2.79
3.24
3.80
4.42
5.06
5.66
6.20
6.68
7.15
7.68
8.31
9.14
10.09
11.04
11.88
12.56
13.14
13.76
14.65
15.96
17.91
20.32
22.90
25.38
27.58
29.57
31.68
34.32
37.81
42.54
48.15
54.10
59.83
64.97
69.58
74.14
79.34
85.71
93.76
103.00
112.62
121.73
129.77
136.75
143.30
150.75
157.77
166.64
177.95
191.79
206.97
220.57
228.25
225.36
208.53
176.87
132.76
80.05
23.07
-34.94
-92.44
-149.16
-205.23
-260.37
-313.74
-363.87
-409.83
-450.91
-486.50
-515.74
-537.23
-549.22
-549.96
-538.37
-514.21
-478.67
-433.88
-382.45
-327.02
-269.84
-212.63
-156.66
-102.95
-52.37
-5.90
35.58
71.43
101.35
125.50
144.38
158.69
169.15
176.37
180.75
182.57
182.07
179.51
175.23
169.65
163.18
156.15
148.81
141.30
133.69
126.02
118.33
110.69
103.16
95.80
88.68
81.83
75.25
68.95
62.95
57.25
51.86
46.78
42.02
37.58
33.46
29.63
26.10
22.83
19.81
17.04
14.52
12.27
10.27
8.54
7.06
5.80
4.71
3.76
2.92
2.20
1.59
1.10
0.73
0.46
0.26
0.07
-0.14
-0.38
-0.65
-0.89
-1.04
-1.09
-1.05
-0.99
-1.01
-1.18
-1.54
-2.01
-2.47
-2.77
-2.84
-2.71
-2.55
-2.56
-2.92
-3.66
-4.67
-5.66
-6.36
-6.61
-6.46
-6.17
-6.13
-6.61
-7.70
-9.20
-10.70
-11.80
-12.28
-12.19
-11.80
-11.51
-11.64
-12.44
-14.06
-16.51
-19.45
-22.04
-22.94
-20.78
-14.75
-5.18
6.33
17.49
26.13
31.12
32.63
31.83
30.15
28.62
27.61
27.04
26.73
26.78
27.40
28.76
30.67
32.52
33.58
33.33
31.74
29.29
26.75
24.67
23.13
21.64
19.42
15.66
10.07
3.03
-4.62
-11.78
-17.45
-20.91
-21.84
-20.34
-16.93
-12.41
-7.70
-3.65
-0.81
0.66
0.92
0.36
-0.61
-1.78
-3.11
-4.68
-6.55
-8.71
-11.03
-13.33
-15.47
-17.37
-18.99
-20.29
-21.16
-21.44
-21.07
-20.11
-18.76
-17.33
-16.05
-15.02
-14.27
-13.77
-13.50
-13.45
-13.54
-13.61
-13.44
-12.94
-12.21
-11.65
-11.70
-12.60
-14.21
-16.06
-17.54
-18.26
-18.21
-17.73
-17.44
-17.88
-19.34
-21.76
-24.73
-27.54
-29.30
-29.09
-25.82
-19.02
-8.89
3.70
17.40
30.86
43.02
53.35
61.77
68.49
73.73
77.57
80.03
81.02
80.48
78.44
75.05
70.55
65.31
59.66
53.95
48.46
43.37
38.76
34.59
30.71
26.92
22.98
18.67
13.91
8.78
3.55
-1.46
-6.02
-10.10
-13.86
-17.52
-21.23
-24.82
-27.86
-29.85
-30.42
-29.56
-27.69
-25.53
-23.85
-23.20
-23.74
-25.30
-27.43
-29.70
-31.85
-33.71
-35.11
-35.73
-35.07
-32.54
-27.59
-19.76
-8.42
7.37
28.74
56.14
88.14
120.51
146.59
159.15
152.99
127.31
86.32
37.80
-9.66
-49.50
-78.78
-97.98
-109.46
-115.84
-118.84
-119.22
-117.25
-113.26
-107.76
-101.35
-94.65
-88.24
-82.77
-78.87
-76.87
-76.39
-76.08
-73.93
-67.87
-56.58
-39.89
-18.74
5.31
30.51
55.15
77.55
96.36
111.10
122.48
132.08
141.20
149.27
152.99
147.22
127.43
92.73
47.25
-0.74
-42.02
-69.82
-81.88
-80.12
-68.62
-51.31
-30.75
-8.41
14.46
36.21
54.98
69.49
79.61
86.32
91.20
95.57
100.22
105.60
112.25
120.76
131.70
145.30
161.21
178.78
197.31
216.20
234.85
252.03
265.56
272.48
269.89
256.09
231.42
198.15
159.60
119.19
79.98
44.90
17.09
-0.34
-5.27
2.10
18.61
38.93
57.47
70.45
77.10
79.15
79.26
79.36
79.92
80.32
79.89
78.68
77.43
77.03
77.78
79.19
80.25
80.04
78.15
74.96
71.39
68.45
66.83
66.65
67.46
68.51
69.12
68.89
67.91
66.51
65.11
63.97
63.03
61.95
60.28
57.70
54.09
49.64
44.72
39.76
35.08
30.81
26.86
22.99
18.92
14.40
9.33
3.76
-2.11
-8.03
-13.75
-19.05
-23.93
-28.57
-33.29
-38.44
-44.22
-50.62
-57.36
-63.97
-70.10
-75.68
-81.10
-87.08
-94.39
-103.57
-114.57
-126.79
-139.31
-151.31
-162.54
-173.45
-185.06
-198.49
-214.40
-232.67
-252.51
-272.81
-292.70
-311.99
-331.21
-351.34
-373.67
-399.63
-430.67
-467.85
-510.90
-556.97
-600.32
-632.93
-646.45
-634.91
-597.01
-536.82
-462.90
-385.79
-315.33
-258.87
-220.91
-203.77
-208.16
-232.85
-273.73
-323.11
-370.54
-405.31
-419.86
-412.31
-386.89
-351.69
-315.07
-282.51
-255.46
-232.35
-210.91
-189.94
-169.81
-151.69
-136.31
-123.19
-110.85
-97.56
-82.17
-64.68
-46.20
-28.31
-12.43
0.91
12.24
22.88
34.35
47.64
62.73
78.66
94.02
107.52
118.67
127.89
136.28
145.27
156.25
170.50
189.03
212.30
239.39
267.60
292.47
308.96
313.20
304.13
283.94
257.26
229.30
203.92
182.90
166.17
152.81
142.18
134.29
129.49
127.88
128.70
130.24
130.33
126.96
118.92
106.19
89.80
71.34
52.59
35.27
21.07
11.66
8.58
12.67
23.57
39.42
57.28
74.13
88.02
98.78
107.81
117.09
128.01
140.64
153.62
164.85
172.50
175.59
174.37
169.91
163.59
156.53
149.27
141.89
134.16
125.86
116.87
107.18
96.76
85.51
73.20
59.63
44.88
29.41
14.21
0.56
-10.39
-18.07
-22.78
-25.71
-28.58
-33.06
-40.31
-50.52
-62.93
-76.23
-89.14
-101.03
-112.10
-123.14
-134.76
-146.60
-156.96
-163.18
-162.65
-153.87
-137.21
-114.70
-89.37
-64.05
-40.63
-19.77
-1.17
15.82
31.72
46.65
60.42
72.65
83.05
91.47
97.89
102.34
104.91
105.71
104.88
102.70
99.62
96.26
93.18
90.77
89.03
87.52
85.52
82.28
77.39
71.07
64.11
57.64
52.67
49.57
47.93
46.64
44.43
40.47
34.75
28.21
22.33
18.48
17.35
18.54
20.68
21.88
20.47
15.77
8.62
1.42
-2.32
1.00
13.91
36.96
68.33
104.35
140.53
172.97
199.45
220.08
236.97
253.19
271.31
291.94
313.10
330.59
339.47
335.82
318.18
287.94
248.55
204.15
158.23
113.02
69.56
28.29
-10.41
-46.02
-78.10
-106.67
-132.36
-156.39
-180.16
-204.72
-230.38
-256.37
-280.96
-301.83
-316.69
-324.04
-323.62
-316.39
-304.03
-288.05
-269.16
-247.07
-220.99
-190.50
-156.40
-120.96
-87.55
-59.85
-40.88
-32.12
-33.01
-40.89
-51.46
-60.01
-62.70
-58.01
-47.09
-33.07
-19.50
-8.66
-0.86
5.23
11.44
18.84
27.35
36.10
44.22
51.46
58.17
64.92
71.95
78.92
85.15
90.02
93.28
95.23
96.50
97.80
99.53
101.71
103.88
105.30
105.35
103.70
100.63
96.94
93.70
91.82
91.58
92.42
92.96
91.35
85.88
75.62
60.74
42.56
23.14
4.56
-11.75
-25.33
-36.73
-46.96
-56.96
-67.02
-76.50
-83.94
-87.58
-86.04
-79.00
-67.48
-53.62
-39.99
-28.61
-20.38
-14.88
-10.86
-7.01
-2.60
2.21
6.66
9.84
11.12
10.29
7.39
2.53
-4.18
-12.54
-22.05
-31.89
-40.97
-48.24
-52.98
-55.07
-54.97
-53.57
-51.93
-50.88
-50.87
-51.89
-53.51
-54.99
-55.54
-54.55
-51.73
-47.27
-41.68
-35.63
-29.66
-24.06
-18.82
-13.70
-8.48
-3.09
2.32
7.33
11.39
13.92
14.55
13.36
11.12
9.30
9.80
14.30
23.69
37.52
54.30
72.09
89.35
105.49
120.76
135.79
150.87
165.62
179.09
190.12
197.61
200.73
198.82
191.37
178.25
159.95
137.94
114.49
92.23
73.31
58.66
47.66
38.33
28.11
14.80
-2.69
-24.11
-48.07
-72.69
-96.15
-116.91
-133.73
-145.43
-150.99
-149.77
-141.99
-128.98
-113.01
-96.72
-82.26
-70.73
-61.96
-54.94
-48.37
-41.32
-33.59
-25.70
-18.58
-13.12
-9.96
-9.28
-10.80
-13.80
-17.09
-19.20
-18.57
-14.05
-5.31
7.00
21.37
36.09
49.70
61.50
71.38
79.57
86.17
91.00
93.71
94.09
92.28
88.89
84.73
80.64
77.12
74.20
71.51
68.41
64.35
59.09
52.91
46.52
40.74
36.03
32.08
27.82
21.78
12.80
0.60
-13.96
-29.16
-43.11
-54.48
-62.94
-69.13
-74.19
-79.25
-84.83
-90.72
-95.92
-98.78
-97.06
-88.49
-71.54
-46.63
-16.91
11.95
33.22
41.52
35.04
16.30
-8.90
-33.77
-52.94
-63.81
-66.30
-61.83
-52.19
-39.18
-24.86
-11.71
-2.27
1.81
0.55
-4.24
-9.71
-13.30
-13.78
-11.67
-8.83
-7.51
-9.40
-14.97
-23.27
-32.37
-40.10
-44.86
-46.25
-45.20
-43.47
-43.01
-45.22
-50.53
-58.49
-67.95
-77.47
-85.81
-92.41
-97.67
-102.86
-109.47
-118.21
-128.21
-137.00
-141.35
-138.68
-128.23
-111.32
-90.84
-70.00
-51.49
-36.98
-27.28
-22.51
-22.12
-24.72
-28.07
-29.29
-25.66
-15.48
1.28
22.94
46.48
68.46
86.04
97.61
103.02
103.17
99.42
92.92
84.24
73.43
60.20
44.30
25.76
5.05
-17.01
-39.30
-60.42
-78.93
-93.61
-103.66
-109.01
-110.32
-108.72
-105.33
-100.75
-94.88
-87.08
-76.48
-62.49
-45.07
-24.74
-2.41
20.90
44.26
66.90
88.29
108.24
127.05
145.54
164.80
185.79
208.91
233.88
259.79
285.61
310.53
334.12
356.15
376.36
394.07
408.05
416.76
418.71
413.07
400.01
380.82
357.57
332.57
307.73
284.14
262.01
240.88
220.06
198.90
177.07
154.47
131.23
107.47
83.29
58.74
33.73
8.18
-17.99
-44.92
-72.97
-102.68
-134.61
-168.78
-204.15
-238.53
-268.99
-292.95
-309.10
-317.84
-320.73
-319.49
-315.18
-307.82
-297.06
-282.90
-266.18
-248.53
-231.73
-217.21
-205.78
-197.86
-193.77
-193.86
-198.28
-206.58
-217.35
-227.96
-234.76
-233.71
-221.36
-195.99
-158.40
-112.05
-62.33
-15.19
24.41
53.33
70.59
76.86
73.75
63.22
47.34
28.23
8.03
-11.05
-27.03
-38.43
-44.64
-46.03
-44.04
-40.62
-37.53
-35.68
-34.75
-33.53
-30.69
-25.64
-18.91
-11.89
-6.07
-2.33
-0.83
-1.23
-3.23
-6.86
-12.50
-20.51
-30.83
-42.91
-55.86
-68.88
-81.38
-92.93
-103.09
-111.48
-117.91
-122.50
-125.67
-127.90
-129.62
-130.51
-129.09
-122.86
-109.23
-86.43
-54.25
-14.13
31.26
78.24
123.38
164.46
200.72
232.24
259.26
281.97
300.67
316.02
328.19
337.29
343.47
346.60
345.31
336.89
318.10
286.65
242.47
186.85
122.92
55.26
-10.92
-71.64
-124.62
-169.14
-205.14
-224.99
-221.76
-194.63
-151.18
-102.43
-57.18
-19.41
10.48
34.05
53.04
67.64
77.44
82.22
82.77
79.81
74.07
66.14
56.67
45.65
32.14
15.03
-6.14
-26.62
-44.11
-57.33
-65.80
-69.32
-68.51
-64.58
-58.59
-51.10
-41.91
-31.11
-18.55
-7.55
3.27
14.45
25.96
37.76
50.05
63.18
76.79
90.28
102.80
113.23
120.28
123.30
122.51
118.59
112.12
102.47
87.57
69.40
47.79
22.16
-7.28
-39.36
-72.42
-104.89
-136.12
-166.26
-196.15
-227.52
-262.43
-302.72
-349.40
-401.57
-455.50
-504.49
-540.10
-554.73
-544.95
-512.70
-464.64
-409.73
-356.04
-308.59
-269.00
-236.71
-210.60
-190.44
-176.28
-167.71
-163.16
-160.16
-156.18
-149.74
-140.81
-130.61
-120.89
-112.73
-105.89
-99.02
-90.20
-77.99
-62.07
-43.46
-24.03
-5.73
10.42
24.69
38.46
53.50
71.12
91.53
113.90
136.75
158.71
179.19
198.55
217.92
238.87
263.08
291.94
325.97
363.99
402.61
436.35
458.83
464.67
451.31
419.89
374.63
321.27
265.10
209.93
158.00
110.87
70.13
37.66
14.97
2.39
-1.46
0.68
5.64
11.00
15.70
20.17
25.59
32.91
42.10
51.97
60.64
66.32
67.98
65.65
60.19
52.81
44.59
36.32
28.50
21.53
15.85
11.93
10.14
10.59
12.94
16.42
19.96
22.44
23.00
21.33
17.87
13.58
9.71
7.20
6.25
6.25
5.99
4.23
0.09
-6.74
-15.91
-26.55
-37.57
-47.84
-56.51
-63.25
-68.28
-72.36
-76.44
-81.08
-86.01
-89.86
-90.44
-85.57
-74.23
-57.30
-37.68
-19.32
-5.76
1.24
2.36
0.18
-2.18
-2.56
-0.45
3.08
6.35
8.01
7.53
5.16
1.42
-3.30
-8.96
-15.66
-23.40
-31.85
-40.40
-48.44
-55.57
-61.82
-67.46
-72.54
-76.49
-78.05
-75.55
-67.76
-54.63
-37.80
-20.46
-6.46
0.82
-0.45
-9.85
-24.83
-41.33
-54.96
-62.25
-61.68
-53.94
-41.67
-28.41
-17.48
-10.90
-8.98
-10.46
-13.32
-15.65
-16.21
-14.68
-11.00
-4.79
5.05
20.29
42.79
73.90
113.79
161.04
212.38
262.92
306.80
338.51
354.40
353.93
339.84
317.05
290.73
264.49
239.72
216.10
193.00
170.51
149.47
130.74
114.26
98.90
82.95
65.22
45.85
26.25
8.53
-5.60
-15.42
-21.34
-24.35
-25.49
-25.42
-24.28
-21.76
-17.25
-10.17
-0.23
12.40
27.23
43.45
60.21
76.66
92.09
105.86
117.34
126.10
132.28
137.46
144.03
154.43
169.97
190.07
212.26
232.77
247.73
254.20
251.85
241.84
226.03
205.81
181.69
153.53
121.09
84.71
45.73
8.11
-24.01
-47.60
-62.28
-70.25
-75.04
-80.15
-88.28
-101.40
-119.00
-139.99
-162.68
-184.57
-201.75
-209.49
-204.09
-185.14
-168.57
-168.99
-194.76
-242.44
-299.89
-354.19
-397.53
-428.17
-448.32
-461.34
-467.59
-466.04
-455.74
-437.41
-413.51
-387.58
-363.04
-341.98
-324.75
-308.56
-289.64
-264.47
-234.16
-200.95
-167.88
-137.74
-112.24
-91.73
-74.31
-57.40
-38.79
-17.63
5.76
30.09
53.82
75.78
95.50
113.76
131.84
150.99
172.00
195.44
221.36
249.15
277.29
303.25
323.98
336.73
340.09
334.67
323.32
310.03
298.59
291.33
288.43
288.01
286.88
281.54
269.09
247.97
218.12
180.91
138.88
95.31
53.69
17.31
-11.31
-30.75
-41.01
-43.42
-40.29
-34.17
-27.07
-20.05
-13.34
-6.77
-0.42
5.16
9.04
10.25
8.26
3.34
-3.41
-10.32
-15.60
-17.93
-16.87
-13.06
-7.91
-3.02
0.36
1.88
1.87
1.07
0.01
-1.27
-3.21
-6.45
-11.52
-18.61
-27.60
-38.11
-49.69
-61.82
-73.98
-85.64
-96.34
-105.71
-113.50
-119.62
-124.02
-126.72
-127.73
-127.17
-125.15
-121.89
-117.66
-112.87
-108.27
-104.92
-104.09
-106.81
-113.41
-123.09
-133.85
-142.79
-146.85
-143.62
-132.09
-112.98
-88.72
-62.89
-39.35
-21.34
-10.68
-7.49
-10.32
-16.72
-23.99
-29.91
-33.06
-33.00
-30.10
-25.29
-19.74
-14.57
-10.67
-8.47
-7.94
-8.64
-9.91
-11.05
-11.54
-11.16
-9.98
-8.29
-6.47
-4.85
-3.58
-2.62
-1.74
-0.71
0.60
2.15
3.73
5.06
5.92
6.22
6.03
5.53
4.94
4.41
4.06
3.96
4.11
4.39
4.55
4.20
2.96
0.74
-2.05
-4.55
-5.67
-4.53
-0.86
4.85
11.52
17.95
23.27
27.17
29.85
31.76
33.33
34.70
35.83
36.48
36.45
35.63
34.06
31.95
29.62
27.36
25.37
23.62
21.94
20.14
18.17
16.23
14.62
13.54
12.90
12.27
11.09
8.98
6.04
2.79
-0.07
-2.08
-3.19
-3.77
-4.34
-5.20
-6.36
-7.51
-8.37
-8.86
-9.18
-9.71
-10.77
-12.47
-14.72
-17.29
-19.81
-21.91
-23.13
-23.00
-21.14
-17.43
-12.11
-5.72
1.04
7.50
13.20
17.95
21.76
24.76
27.06
28.75
29.88
30.47
30.54
30.15
29.40
28.50
27.65
27.05
26.81
26.90
27.16
27.36
27.23
26.60
25.37
23.55
21.21
18.45
15.42
12.29
9.25
6.55
4.40
2.92
2.04
1.57
1.23
0.79
0.20
-0.47
-1.09
-1.61
-2.14
-2.91
-4.22
-6.26
-9.03
-12.30
-15.64
-18.40
-19.95
-19.73
-17.54
-13.50
-8.13
-2.11
3.95
9.64
14.85
19.64
24.04
27.98
31.23
33.58
34.84
35.00
34.19
32.54
30.25
27.47
24.45
21.48
18.89
16.91
15.63
14.87
14.26
13.36
11.84
9.58
6.68
3.44
0.20
-2.77
-5.37
-7.67
-9.86
-12.09
-14.45
-16.86
-19.15
-21.16
-22.84
-24.24
-25.48
-26.68
-27.91
-29.26
-30.90
-33.05
-35.82
-38.99
-41.93
-43.65
-43.13
-39.75
-33.57
-25.33
-16.15
-7.14
1.00
8.02
14.06
19.29
23.74
27.16
29.28
29.97
29.42
28.13
26.74
25.73
25.22
24.96
24.51
23.51
21.89
19.96
18.22
17.11
16.75
16.92
17.13
16.92
16.07
14.74
13.30
12.16
11.48
11.06
10.47
9.29
7.33
4.78
2.02
-0.54
-2.75
-4.81
-7.14
-10.26
-14.43
-19.52
-24.94
-29.77
-33.01
-33.94
-32.30
-28.41
-23.01
-17.05
-11.37
-6.48
-2.55
0.45
2.60
3.89
4.25
3.66
2.22
0.16
-2.18
-4.50
-6.64
-8.54
-10.24
-11.81
-13.27
-14.61
-15.81
-16.85
-17.75
-18.49
-19.08
-19.46
-19.59
-19.41
-18.98
-18.46
-18.15
-18.38
-19.43
-21.32
-23.77
-26.26
-28.20
-29.18
-29.14
-28.40
-27.47
-26.86
-26.85
-27.43
-28.29
-28.90
-28.64
-26.95
-23.50
-18.31
-11.83
-4.78
2.03
8.06
13.17
17.69
22.05
26.57
31.23
35.76
39.78
43.09
45.74
47.96
49.99
51.94
53.74
55.24
56.24
56.64
56.35
55.35
53.61
51.13
47.94
44.16
39.92
35.40
30.83
26.51
22.72
19.69
17.53
16.21
15.57
15.42
15.53
15.68
15.55
14.68
12.52
8.54
2.42
-5.78
-15.61
-26.24
-36.59
-45.55
-52.19
-55.85
-56.27
-53.58
-48.22
-40.79
-32.01
-22.58
-13.21
-4.58
2.67
7.98
11.01
11.68
10.28
7.41
3.79
0.12
-3.11
-5.70
-7.64
-9.01
-9.84
-10.09
-9.70
-8.75
-7.49
-6.34
-5.67
-5.69
-6.28
-7.11
-7.78
-8.06
-7.92
-7.52
-7.05
-6.61
-6.14
-5.53
-4.62
-3.37
-1.85
-0.28
1.07
1.94
2.22
2.05
1.83
2.14
3.46
5.94
9.25
12.76
15.77
17.88
19.07
19.68
20.14
20.75
21.60
22.62
23.73
24.93
26.27
27.74
29.28
30.67
31.70
32.25
32.29
31.91
31.22
30.30
29.21
27.97
26.62
25.26
23.95
22.78
21.72
20.70
19.52
17.95
15.74
12.77
9.07
4.87
0.54
-3.57
-7.14
-10.07
-12.38
-14.21
-15.65
-16.73
-17.38
-17.47
-16.81
-15.25
-12.69
-9.14
-4.78
0.07
4.95
9.37
12.94
15.41
16.73
16.99
16.34
14.95
12.97
10.50
7.62
4.43
1.06
-2.26
-5.25
-7.57
-8.99
-9.48
-9.24
-8.64
-7.99
-7.48
-7.08
-6.69
-6.27
-5.97
-6.12
-7.00
-8.75
-11.22
-14.05
-16.85
-19.30
-21.27
-22.82
-24.09
-25.24
-26.48
-27.92
-29.62
-31.46
-33.14
-34.21
-34.19
-32.70
-29.60
-25.07
-19.54
-13.57
-7.74
-2.42
2.19
6.09
9.35
12.04
14.15
15.63
16.46
16.72
16.60
16.39
16.30
16.46
16.82
17.22
17.45
17.38
16.97
16.31
15.52
14.71
13.89
13.00
11.90
10.45
8.58
6.33
3.82
1.22
-1.26
-3.45
-5.23
-6.52
-7.34
-7.87
-8.38
-9.21
-10.60
-12.61
-14.99
-17.24
-18.75
-18.95
-17.55
-14.53
-10.18
-4.93
0.72
6.32
11.50
16.04
19.84
22.88
25.26
27.02
28.22
28.82
28.77
28.09
26.84
25.19
23.41
21.71
20.27
19.14
18.27
17.55
16.87
16.12
15.28
14.42
13.66
13.19
13.15
13.61
14.58
15.93
17.54
19.24
20.91
22.48
24.02
25.65
27.53
29.76
32.28
34.85
37.09
38.60
39.15
38.79
37.88
36.98
36.62
37.11
38.41
40.16
41.80
42.84
42.95
42.02
40.13
37.38
33.82
29.41
24.11
18.02
11.46
4.88
-1.24
-6.56
-11.01
-14.77
-18.19
-21.60
-25.22
-29.07
-33.05
-36.97
-40.62
-43.83
-46.42
-48.27
-49.27
-49.41
-48.79
-47.65
-46.29
-44.94
-43.74
-42.65
-41.52
-40.19
-38.56
-36.69
-34.77
-33.10
-31.97
-31.56
-31.84
-32.49
-33.02
-32.87
-31.63
-29.17
-25.65
-21.37
-16.64
-11.67
-6.56
-1.40
3.67
8.48
12.90
16.93
20.60
23.93
26.86
29.20
30.79
31.49
31.33
30.45
28.95
26.84
24.01
20.27
15.48
9.62
2.81
-4.74
-12.78
-21.01
-29.11
-36.74
-43.62
-49.53
-54.44
-58.46
-61.80
-64.72
-67.40
-69.91
-72.19
-74.13
-75.59
-76.44
-76.64
-76.21
-75.30
-74.15
-73.02
-72.06
-71.18
-69.98
-67.87
-64.30
-58.96
-52.03
-44.11
-36.06
-28.67
-22.45
-17.47
-13.47
-10.09
-7.03
-4.19
-1.65
0.44
2.01
3.10
3.81
4.30
4.61
4.74
4.64
4.37
4.09
4.05
4.48
5.39
6.58
7.68
8.30
8.22
7.49
6.38
5.20
4.24
3.55
3.03
2.49
1.77
0.90
0.02
-0.65
-0.96
-0.89
-0.57
-0.25
-0.13
-0.38
-1.06
-2.13
-3.51
-5.00
-6.23
-6.74
-6.04
-3.81
-0.13
4.57
9.61
14.33
18.31
21.56
24.36
27.09
29.98
33.00
35.86
38.17
39.66
40.28
40.25
39.92
39.70
39.84
40.37
41.16
41.99
42.75
43.47
44.32
45.45
46.89
48.49
49.96
51.07
51.77
52.24
52.77
53.65
55.02
56.93
59.39
62.51
66.34
70.61
74.54
76.82
76.12
71.58
63.20
51.87
38.90
25.60
12.92
1.56
-7.81
-14.39
-17.37
-16.34
-11.61
-4.22
4.48
13.33
21.87
30.25
39.00
48.49
58.70
69.30
79.87
90.22
100.52
111.17
122.47
134.29
145.89
156.02
163.29
166.63
165.73
161.26
154.72
148.02
142.80
139.87
138.75
137.77
134.48
126.50
112.34
92.00
67.07
40.20
14.33
-8.21
-26.24
-39.85
-50.15
-58.76
-67.38
-77.33
-89.44
-103.83
-119.98
-136.77
-152.77
-166.55
-177.20
-184.57
-189.34
-192.70
-195.83
-199.38
-203.14
-206.13
-207.01
-204.64
-198.55
-189.06
-177.14
-163.97
-150.55
-137.44
-124.73
-112.14
-99.33
-86.09
-72.61
-59.54
-47.97
-39.22
-34.54
-34.74
-39.92
-49.31
-61.36
-74.06
-85.35
-93.66
-98.20
-99.21
-97.79
-95.56
-94.20
-94.89
-98.03
-103.11
-108.98
-114.30
-118.03
-119.84
-120.02
-119.28
-118.25
-117.16
-115.69
-113.18
-108.99
-102.78
-94.72
-85.40
-75.64
-66.34
-58.25
-51.89
-47.35
-44.24
-41.59
-38.18
-32.89
-25.17
-15.25
-3.99
7.42
18.06
27.49
35.76
43.08
49.53
54.94
58.97
61.47
62.58
62.77
62.62
62.54
62.67
62.88
62.93
62.67
62.10
61.38
60.73
60.31
60.14
60.13
60.10
59.89
59.36
58.45
57.17
55.54
53.67
51.68
49.74
47.98
46.36
44.72
42.71
40.02
36.51
32.30
27.74
23.23
18.99
15.00
11.03
6.80
2.15
-2.83
-7.85
-12.45
-16.19
-18.65
-19.53
-18.64
-16.00
-11.85
-6.65
-0.96
4.69
9.92
14.54
18.57
22.10
25.22
27.99
30.45
32.61
34.51
36.23
37.86
39.44
40.93
42.18
42.92
42.90
41.95
40.10
37.55
34.63
31.67
28.89
26.39
24.17
22.22
20.57
19.26
18.36
17.88
17.76
17.85
17.93
17.70
16.86
15.20
12.67
9.46
5.97
2.64
-0.18
-2.40
-4.19
-5.81
-7.53
-9.45
-11.54
-13.74
-15.99
-18.18
-20.14
-21.54
-21.95
-21.02
-18.61
-14.88
-10.29
-5.45
-0.90
3.01
6.16
8.65
10.67
12.42
14.03
15.54
16.90
18.01
18.75
19.07
18.99
18.58
17.95
17.23
16.53
15.90
15.39
14.95
14.57
14.17
13.72
13.18
12.51
11.73
10.86
9.95
9.04
8.19
7.39
6.62
5.77
4.74
3.45
1.87
0.11
-1.69
-3.35
-4.73
-5.84
-6.73
-7.56
-8.45
-9.53
-10.89
-12.62
-14.68
-16.93
-18.95
-20.12
-19.80
-17.52
-13.30
-7.70
-1.65
3.88
8.27
11.39
13.60
15.43
17.33
19.37
21.34
22.85
23.63
23.67
23.18
22.51
21.93
21.51
21.14
20.64
19.88
18.89
17.83
16.90
16.22
15.78
15.41
14.87
14.02
12.82
11.39
9.92
8.62
7.56
6.72
5.96
5.12
4.03
2.66
1.04
-0.72
-2.50
-4.16
-5.60
-6.77
-7.67
-8.34
-8.87
-9.40
-10.08
-11.07
-12.45
-14.23
-16.22
-18.04
-19.17
-19.07
-17.35
-13.95
-9.12
-3.36
2.77
8.78
14.31
19.09
22.92
25.68
27.36
28.09
28.22
28.13
28.09
28.16
28.20
27.93
27.18
25.92
24.30
22.54
20.80
19.14
17.54
15.95
14.36
12.79
11.25
9.69
8.01
6.11
3.95
1.64
-0.65
-2.77
-4.63
-6.25
-7.76
-9.26
-10.82
-12.43
-13.97
-15.34
-16.45
-17.27
-17.88
-18.46
-19.24
-20.48
-22.35
-24.78
-27.47
-29.84
-31.24
-31.15
-29.38
-26.17
-21.99
-17.40
-12.85
-8.54
-4.51
-0.76
2.64
5.56
7.81
9.32
10.12
10.36
10.28
10.04
9.79
9.56
9.39
9.33
9.44
9.81
10.48
11.43
12.55
13.71
14.79
15.73
16.57
17.34
18.06
18.69
19.14
19.32
19.25
18.99
18.68
18.40
18.12
17.71
17.01
15.95
14.58
13.10
11.70
10.44
9.15
7.53
5.27
2.23
-1.47
-5.49
-9.40
-12.79
-15.31
-16.74
-16.91
-15.76
-13.37
-10.01
-6.06
-1.94
2.05
5.73
9.04
11.94
14.39
16.31
17.66
18.48
18.87
18.92
18.66
18.10
17.27
16.25
15.20
14.32
13.70
13.27
12.88
12.33
11.51
10.41
9.08
7.58
5.93
4.07
1.97
-0.32
-2.66
-4.84
-6.65
-8.04
-9.16
-10.24
-11.57
-13.30
-15.32
-17.41
-19.28
-20.74
-21.82
-22.69
-23.57
-24.61
-25.79
-27.01
-28.08
-28.85
-29.19
-28.96
-27.98
-26.05
-23.00
-18.77
-13.53
-7.65
-1.66
3.88
8.57
12.26
15.02
17.01
18.39
19.23
19.46
19.10
18.24
17.15
16.12
15.39
15.00
14.85
14.74
14.47
14.00
13.37
12.65
11.88
11.03
10.00
8.71
7.13
5.28
3.32
1.39
-0.39
-1.93
-3.26
-4.43
-5.51
-6.52
-7.40
-8.10
-8.60
-8.94
-9.30
-9.83
-10.64
-11.74
-13.06
-14.53
-16.11
-17.83
-19.71
-21.64
-23.35
-24.43
-24.43
-23.06
-20.32
-16.52
-12.19
-7.90
-4.09
-0.94
1.58
3.56
5.11
6.24
6.95
7.27
7.35
7.38
7.57
8.03
8.74
9.57
10.30
10.75
10.74
10.23
9.24
7.92
6.45
4.98
3.62
2.32
0.94
-0.65
-2.50
-4.50
-6.44
-8.07
-9.19
-9.76
-9.90
-9.83
-9.81
-10.01
-10.46
-11.08
-11.73
-12.34
-12.91
-13.52
-14.27
-15.22
-16.40
-17.75
-19.21
-20.72
-22.16
-23.29
-23.81
-23.32
-21.51
-18.32
-13.98
-8.92
-3.71
1.24
5.67
9.56
12.96
15.88
18.24
19.83
20.53
20.36
19.51
18.34
17.16
16.13
15.19
14.16
12.84
11.25
9.57
8.11
7.15
6.75
6.70
6.64
6.20
5.20
3.73
2.10
0.67
-0.32
-0.85
-1.14
-1.53
-2.31
-3.62
-5.36
-7.25
-8.97
-10.31
-11.26
-11.98
-12.73
-13.73
-15.06
-16.63
-18.27
-19.79
-21.00
-21.73
-21.76
-20.88
-18.92
-15.88
-11.94
-7.47
-2.90
1.42
5.27
8.55
11.24
13.33
14.83
15.76
16.22
16.35
16.36
16.40
16.55
16.75
16.92
16.98
16.92
16.79
16.71
16.75
16.93
17.16
17.30
17.22
16.79
15.99
14.88
13.61
12.36
11.27
10.39
9.64
8.84
7.80
6.48
4.95
3.44
2.20
1.35
0.86
0.57
0.31
-0.02
-0.38
-0.65
-0.73
-0.55
-0.10
0.64
1.76
3.36
5.54
8.21
11.11
13.81
15.87
16.93
16.91
15.96
14.42
12.68
11.00
9.44
7.92
6.29
4.47
2.56
0.69
-0.96
-2.36
-3.60
-4.83
-6.14
-7.52
-8.88
-10.12
-11.29
-12.52
-13.95
-15.59
-17.24
-18.57
-19.23
-19.09
-18.25
-17.03
-15.81
-14.89
-14.38
-14.23
-14.29
-14.41
-14.54
-14.67
-14.84
-15.08
-15.39
-15.76
-16.16
-16.60
-17.02
-17.35
-17.41
-17.01
-15.92
-14.02
-11.36
-8.12
-4.59
-1.09
2.14
4.88
7.04
8.54
9.38
9.60
9.29
8.61
7.67
6.59
5.47
4.40
3.46
2.71
2.17
1.79
1.48
1.13
0.66
0.11
-0.47
-1.00
-1.43
-1.76
-1.98
-2.15
-2.25
-2.27
-2.19
-2.03
-1.79
-1.51
-1.24
-0.99
-0.82
-0.72
-0.71
-0.78
-0.93
-1.24
-1.84
-2.85
-4.30
-6.04
-7.75
-8.97
-9.24
-8.29
-6.09
-2.83
1.11
5.36
9.57
13.50
16.98
19.87
22.03
23.35
23.78
23.40
22.44
21.15
19.81
18.55
17.32
15.97
14.39
12.56
10.62
8.78
7.17
5.79
4.51
3.09
1.41
-0.49
-2.42
-4.14
-5.50
-6.54
-7.49
-8.65
-10.18
-12.08
-14.13
-16.01
-17.50
-18.52
-19.22
-19.86
-20.73
-22.02
-23.77
-25.88
-28.12
-30.19
-31.76
-32.49
-32.12
-30.48
-27.57
-23.58
-18.90
-14.04
-9.47
-5.49
-2.17
0.66
3.22
5.66
7.92
9.80
11.07
11.61
11.54
11.11
10.65
10.39
10.38
10.56
10.74
10.83
10.77
10.62
10.53
10.56
10.69
10.76
10.60
10.02
9.00
7.65
6.18
4.81
3.67
2.72
1.80
0.71
-0.74
-2.57
-4.69
-6.89
-8.97
-10.84
-12.60
-14.49
-16.74
-19.45
-22.48
-25.48
-28.02
-29.70
-30.22
-29.45
-27.33
-23.91
-19.38
-14.08
-8.49
-3.14
1.53
5.35
8.37
10.82
12.95
14.91
16.68
18.14
19.10
19.51
19.43
19.05
18.64
18.40
18.40
18.59
18.81
18.95
18.98
18.95
18.92
18.90
18.80
18.48
17.80
16.73
15.36
13.80
12.21
10.64
9.08
7.46
5.71
3.79
1.77
-0.27
-2.23
-4.06
-5.83
-7.72
-9.97
-12.68
-15.78
-18.93
-21.61
-23.30
-23.64
-22.59
-20.30
-17.09
-13.25
-8.98
-4.42
0.26
4.83
8.98
12.43
15.00
16.70
17.67
18.11
18.17
17.88
17.18
16.04
14.49
12.73
11.01
9.57
8.49
7.68
6.95
6.09
5.01
3.66
2.06
0.22
-1.89
-4.26
-6.81
-9.40
-11.88
-14.16
-16.25
-18.29
-20.45
-22.89
-25.64
-28.63
-31.68
-34.53
-36.99
-39.01
-40.69
-42.31
-44.11
-46.19
-48.33
-50.09
-50.86
-50.10
-47.52
-43.15
-37.32
-30.56
-23.40
-16.33
-9.63
-3.49
2.02
6.82
10.85
14.02
16.29
17.75
18.66
19.36
20.18
21.24
22.46
23.62
24.49
25.00
25.28
25.54
25.95
26.51
27.01
27.24
27.03
26.40
25.54
24.64
23.78
22.91
21.87
20.56
18.95
17.10
15.06
12.88
10.53
8.02
5.39
2.72
0.05
-2.67
-5.60
-8.95
-12.87
-17.30
-21.99
-26.41
-29.95
-32.00
-32.11
-30.12
-26.20
-20.82
-14.67
-8.34
-2.26
3.39
8.66
13.59
18.17
22.27
25.68
28.23
29.93
30.93
31.50
31.89
32.22
32.42
32.30
31.70
30.62
29.26
27.96
26.96
26.29
25.69
24.77
23.17
20.79
17.88
14.81
11.95
9.42
7.12
4.77
2.13
-0.90
-4.26
-7.74
-11.15
-14.30
-17.10
-19.53
-21.62
-23.48
-25.28
-27.22
-29.50
-32.26
-35.50
-38.97
-42.22
-44.65
-45.65
-44.81
-42.03
-37.61
-32.17
-26.39
-20.86
-15.86
-11.42
-7.40
-3.66
-0.24
2.72
5.04
6.68
7.78
8.67
9.67
10.95
12.43
13.84
14.89
15.44
15.50
15.28
14.95
14.57
14.05
13.22
12.04
10.58
9.10
7.83
6.88
6.19
5.56
4.81
3.89
2.88
1.95
1.28
0.92
0.81
0.82
0.80
0.67
0.39
-0.01
-0.48
-0.97
-1.44
-1.86
-2.25
-2.66
-3.18
-3.93
-4.96
-6.24
-7.61
-8.92
-10.07
-11.13
-12.35
-13.98
-16.12
-18.57
-20.78
-22.06
-21.84
-19.88
-16.35
-11.72
-6.54
-1.27
3.85
8.66
13.07
16.91
19.99
22.15
23.41
23.93
24.01
23.94
23.88
23.85
23.76
23.47
22.91
22.16
21.35
20.64
20.12
19.78
19.46
18.98
18.12
16.77
14.91
12.61
10.05
7.40
4.81
2.36
0.03
-2.16
-4.18
-5.91
-7.21
-7.96
-8.20
-8.05
-7.73
-7.42
-7.21
-7.07
-6.91
-6.68
-6.37
-6.03
-5.72
-5.46
-5.23
-5.01
-4.74
-4.42
-4.05
-3.68
-3.35
-3.07
-2.85
-2.67
-2.50
-2.31
-2.10
-1.87
-1.64
-1.45
-1.30
-1.19
-1.10
-1.02
-0.93
-0.83
-0.72
-0.62
-0.54
-0.48
-0.43
-0.40
-0.38
-0.35
-0.31
-0.28
-0.26
-0.24
-0.23
-0.22
-0.22
-0.23
-0.23
-0.22
-0.22
-0.22
-0.22
-0.22
-0.22
-0.22
-0.21
-0.21
-0.21
-0.21
-0.21
-0.21
-0.21
-0.21
-0.21
-0.21
-0.21
-0.21
-0.21
-0.21
-0.21
-0.21
-0.21
-0.21
-0.21
-0.20
-0.20
-0.20
-0.20
-0.20
-0.20
-0.20
-0.20
-0.20
-0.20
-0.20
-0.20
-0.20
-0.20
-0.20
-0.20
-0.20
-0.20
-0.20
-0.19
-0.19
-0.19
-0.19
-0.19
-0.19
-0.19
-0.19
-0.19
-0.19
-0.19
-0.19
-0.19
-0.19
-0.19
-0.19
-0.19
-0.19
-0.19
-0.18
-0.18
-0.18
-0.18
-0.18
-0.18
-0.18
-0.18
-0.18
-0.18
-0.18
-0.18
-0.18
-0.18
-0.18
-0.18
-0.18
-0.18
-0.18
-0.18
-0.18
-0.18
-0.18
-0.17
-0.17
-0.17
-0.17
-0.17
-0.17
-0.17
-0.17
-0.17
-0.17
-0.17
-0.17
-0.17
-0.17
-0.17
-0.17
-0.17
-0.17
-0.17
-0.17
-0.17
-0.17
-0.16
-0.16
-0.16
-0.16
-0.16
-0.16
-0.16
-0.16
-0.16
-0.16
-0.16
-0.16
-0.16
-0.16
-0.16
-0.16
-0.16
-0.16
-0.16
-0.16
-0.16
-0.16
-0.16
-0.16
-0.15
-0.15
-0.15
-0.15
-0.15
-0.15
-0.15
-0.15
-0.15
-0.15
-0.15
-0.15
-0.15
-0.15
-0.15
-0.15
-0.14
-0.14
-0.13
-0.13
-0.12
-0.12
-0.13
-0.13
-0.13
-0.12
-0.11
-0.10
-0.09
-0.09
-0.09
-0.09
-0.09
-0.08
-0.07
-0.05
-0.03
-0.01
0.00
0.01
0.01
0.02
0.04
0.09
0.14
0.20
0.25
0.28
0.28
0.27
0.26
0.27
0.32
0.39
0.47
0.54
0.57
0.56
0.53
0.51
0.54
0.64
0.80
0.97
1.13
1.23
1.26
1.24
1.21
1.23
1.33
1.53
1.80
2.09
2.31
2.35
2.14
1.66
0.95
0.13
-0.62
-1.14
-1.32
-1.17
-0.81
-0.48
-0.38
-0.60
-1.10
-1.68
-2.17
-2.49
-2.68
-2.90
-3.31
-3.97
-4.86
-5.89
-6.97
-8.07
-9.23
-10.53
-12.04
-13.84
-15.94
-18.27
-20.70
-23.01
-24.93
-26.17
-26.44
-25.48
-23.17
-19.53
-14.80
-9.45
-4.03
0.94
5.15
8.54
11.22
13.37
15.11
16.42
17.24
17.56
17.47
17.15
16.81
16.60
16.57
16.65
16.75
16.79
16.75
16.64
16.48
16.22
15.77
15.01
13.82
12.18
10.17
7.99
5.87
3.99
2.37
0.92
-0.56
-2.24
-4.17
-6.27
-8.36
-10.30
-12.07
-13.71
-15.29
-16.84
-18.29
-19.56
-20.63
-21.57
-22.49
-23.45
-24.36
-24.95
-24.77
-23.40
-20.51
-16.07
-10.32
-3.75
2.99
9.34
14.98
19.83
24.05
27.81
31.16
34.02
36.17
37.48
37.95
37.79
37.30
36.72
36.13
35.47
34.63
33.50
32.10
30.46
28.60
26.54
24.20
21.50
18.41
14.95
11.26
7.54
3.97
0.64
-2.49
-5.58
-8.78
-12.15
-15.57
-18.80
-21.53
-23.63
-25.14
-26.28
-27.37
-28.67
-30.32
-32.33
-34.65
-37.09
-39.36
-41.04
-41.68
-40.91
-38.59
-34.91
-30.33
-25.43
-20.69
-16.37
-12.48
-8.87
-5.35
-1.84
1.55
4.63
7.16
9.04
10.36
11.34
12.31
13.48
14.92
16.50
17.94
19.03
19.66
19.88
19.89
19.84
19.83
19.80
19.59
18.99
17.90
16.34
14.45
12.47
10.56
8.77
7.00
5.00
2.58
-0.33
-3.59
-6.89
-9.89
-12.37
-14.30
-15.90
-17.46
-19.26
-21.44
-23.97
-26.73
-29.50
-31.98
-33.75
-34.34
-33.33
-30.54
-26.15
-20.67
-14.79
-9.11
-4.01
0.40
4.22
7.53
10.37
12.69
14.44
15.64
16.44
17.03
17.60
18.28
19.09
19.96
20.73
21.26
21.41
21.18
20.65
19.96
19.26
18.59
17.89
17.04
15.96
14.60
13.07
11.50
10.01
8.62
7.26
5.82
4.15
2.22
0.08
-2.17
-4.40
-6.53
-8.55
-10.48
-12.41
-14.44
-16.62
-19.00
-21.56
-24.25
-26.98
-29.57
-31.77
-33.21
-33.54
-32.44
-29.79
-25.67
-20.45
-14.63
-8.73
-3.17
1.82
6.16
9.84
12.87
15.23
16.91
17.95
18.44
18.56
18.45
18.23
17.87
17.32
16.50
15.37
13.98
12.40
10.71
8.97
7.16
5.26
3.25
1.17
-0.86
-2.68
-4.15
-5.21
-5.92
-6.41
-6.85
-7.33
-7.86
-8.39
-8.82
-9.14
-9.41
-9.72
-10.16
-10.73
-11.35
-11.89
-12.30
-12.63
-13.11
-14.03
-15.60
-17.75
-20.10
-21.97
-22.61
-21.48
-18.41
-13.69
-7.92
-1.76
4.25
9.84
14.94
19.58
23.78
27.46
30.47
32.68
34.01
34.51
34.32
33.69
32.84
31.99
31.25
30.65
30.12
29.52
28.72
27.59
26.10
24.22
22.02
19.56
16.89
14.08
11.15
8.15
5.12
2.08
-0.94
-3.92
-6.86
-9.74
-12.56
-15.32
-18.04
-20.70
-23.28
-25.71
-27.92
-29.83
-31.48
-33.00
-34.61
-36.52
-38.74
-40.99
-42.77
-43.42
-42.40
-39.50
-34.89
-29.07
-22.64
-16.10
-9.75
-3.64
2.27
7.96
13.25
17.84
21.40
23.75
24.88
24.98
24.33
23.19
21.81
20.34
18.87
17.44
16.02
14.54
13.00
11.42
9.93
8.76
8.09
8.03
8.52
9.40
10.43
11.40
12.18
12.72
13.03
13.11
12.89
12.28
11.15
9.40
7.04
4.14
0.89
-2.49
-5.82
-8.95
-11.85
-14.54
-17.07
-19.48
-21.77
-23.82
-25.45
-26.42
-26.45
-25.33
-22.96
-19.36
-14.70
-9.29
-3.48
2.37
7.94
12.97
17.24
20.60
22.96
24.29
24.65
24.19
23.14
21.74
20.21
18.69
17.24
15.85
14.51
13.23
12.04
10.94
9.95
8.99
8.00
6.90
5.62
4.13
2.44
0.59
-1.37
-3.33
-5.16
-6.72
-7.86
-8.52
-8.71
-8.52
-8.13
-7.70
-7.39
-7.29
-7.42
-7.79
-8.40
-9.31
-10.60
-12.34
-14.51
-16.92
-19.27
-21.11
-22.02
-21.64
-19.85
-16.68
-12.41
-7.42
-2.09
3.18
8.11
12.52
16.31
19.40
21.75
23.32
24.08
24.10
23.49
22.43
21.15
19.80
18.47
17.12
15.67
14.02
12.10
9.91
7.55
5.17
2.95
1.05
-0.48
-1.66
-2.65
-3.69
-5.03
-6.84
-9.16
-11.84
-14.56
-16.95
-18.75
-19.88
-20.50
-20.89
-21.37
-22.13
-23.22
-24.54
-26.00
-27.58
-29.38
-31.52
-34.06
-36.83
-39.47
-41.51
-42.47
-42.01
-40.00
-36.58
-32.03
-26.76
-21.19
-15.74
-10.70
-6.27
-2.46
0.80
3.66
6.25
8.59
10.59
12.14
13.20
13.90
14.53
15.40
16.71
18.48
20.56
22.77
25.03
27.41
30.03
32.92
35.90
38.53
40.30
40.76
39.75
37.50
34.43
31.09
27.85
24.88
22.07
19.19
15.99
12.41
8.57
4.72
1.11
-2.15
-5.16
-8.19
-11.54
-15.42
-19.88
-24.77
-29.80
-34.63
-38.90
-42.28
-44.43
-45.00
-43.70
-40.43
-35.35
-28.92
-21.80
-14.71
-8.19
-2.55
2.16
6.00
9.01
11.19
12.50
12.98
12.80
12.26
11.70
11.38
11.43
11.86
12.61
13.66
15.03
16.79
18.91
21.23
23.52
25.48
26.82
27.39
27.28
26.78
26.30
26.20
26.57
27.26
27.90
28.14
27.96
27.70
27.99
29.43
32.07
35.43
38.62
40.67
40.93
39.43
36.87
34.30
33.03
33.78
36.74
41.65
47.36
52.18
54.47
53.50
49.88
45.87
43.48
43.80
46.53
49.20
48.25
40.76
25.86
5.35
-16.27
-34.67
-46.22
-48.45
-41.39
-27.40
-10.36
5.42
16.17
20.40
17.14
6.91
-2.73
-3.51
10.61
40.32
80.72
118.68
150.95
177.33
198.08
212.91
222.54
225.94
222.34
212.19
197.32
181.18
165.79
152.05
140.10
128.96
116.93
102.72
86.00
67.46
49.16
32.22
17.01
3.40
-9.65
-23.93
-41.12
-62.25
-87.33
-114.85
-143.24
-170.94
-196.84
-220.77
-243.63
-266.55
-290.08
-313.59
-335.07
-352.12
-362.56
-364.81
-358.12
-342.36
-317.65
-284.51
-244.12
-198.22
-148.89
-97.74
-45.33
8.50
63.87
119.71
173.15
219.72
254.58
274.04
276.90
264.68
240.44
207.88
170.07
128.53
82.95
32.03
-24.92
-86.12
-146.44
-199.41
-238.48
-259.45
-262.02
-249.96
-229.51
-207.17
-187.51
-172.39
-163.80
-162.28
-166.89
-174.74
-181.81
-184.10
-179.24
-166.89
-148.67
-130.91
-119.33
-117.24
-123.76
-135.33
-147.46
-157.38
-164.26
-168.98
-178.39
-198.74
-233.67
-281.49
-336.78
-391.66
-440.16
-478.45
-475.32
-412.03
-288.06
-125.61
43.40
192.93
312.52
401.46
464.45
507.31
528.78
530.18
512.41
478.80
433.37
382.15
328.45
275.10
225.19
177.96
136.71
102.78
83.01
66.00
50.86
35.23
18.88
4.04
-8.50
-18.70
-28.50
-39.45
-52.51
-64.16
-71.02
-69.71
-58.56
-39.59
-16.79
4.77
21.70
32.31
38.80
43.21
47.38
52.31
57.53
61.98
64.33
64.12
61.35
57.81
54.54
52.06
50.17
48.17
45.30
40.98
35.39
29.08
23.44
19.17
16.36
14.49
12.67
10.18
6.71
2.53
-1.86
-5.93
-9.95
-15.20
-23.59
-37.10
-56.79
-82.05
-110.42
-138.06
-160.71
-174.79
-178.16
-170.50
-153.25
-129.17
-102.01
-75.84
-54.50
-40.82
-35.88
-38.69
-46.39
-55.08
-60.98
-61.57
-56.08
-45.24
-30.68
-14.14
2.93
19.43
34.32
46.60
55.42
60.43
62.07
61.50
60.16
59.29
59.39
60.03
60.21
58.96
56.06
52.24
49.09
48.43
51.72
59.34
70.49
83.59
97.19
110.45
123.26
135.58
146.72
155.31
159.22
156.42
146.02
128.72
106.58
82.00
56.75
31.60
7.51
-14.83
-34.80
-51.97
-66.22
-77.77
-87.22
-95.55
-103.68
-110.37
-114.11
-113.69
-108.45
-97.96
-81.57
-58.79
-29.90
3.70
42.58
86.48
133.55
180.10
221.51
253.92
275.64
288.17
296.54
311.69
342.94
393.25
456.70
520.73
571.67
600.17
604.34
566.71
484.19
367.71
239.04
119.33
20.22
-56.05
-111.67
-149.70
-173.24
-181.55
-178.58
-170.20
-162.82
-160.69
-164.05
-169.47
-172.50
-170.44
-161.26
-145.22
-126.48
-111.01
-103.34
-104.34
-111.46
-120.84
-129.73
-135.91
-139.87
-144.20
-152.46
-167.63
-190.66
-220.12
-252.44
-282.68
-304.77
-314.02
-308.65
-290.28
-263.13
-232.22
-201.74
-174.23
-150.57
-130.27
-112.51
-96.69
-82.34
-69.02
-56.19
-43.49
-31.06
-19.64
-10.34
-4.32
-2.32
-4.21
-8.95
-14.72
-19.42
-21.30
-19.55
-14.61
-7.99
-1.67
2.67
4.25
3.29
0.78
-2.12
-4.54
-6.13
-7.02
-7.55
-7.97
-8.30
-8.34
-7.90
-7.03
-6.22
-6.33
-8.44
-13.31
-21.00
-30.62
-40.34
-47.95
-51.48
-49.85
-43.15
-32.49
-19.51
-5.74
7.78
20.60
32.61
43.74
53.67
61.86
67.83
71.39
72.82
72.83
72.27
71.78
71.53
71.22
70.22
67.93
64.12
59.01
53.23
47.54
42.58
38.71
35.94
34.03
32.59
31.11
29.07
25.90
21.24
15.03
7.59
-0.39
-8.14
-15.08
-21.05
-26.27
-31.16
-36.08
-41.08
-45.92
-50.32
-54.15
-57.69
-61.58
-66.59
-73.20
-81.13
-89.23
-95.64
-98.41
-96.25
-88.97
-77.60
-63.83
-49.29
-34.97
-21.06
-7.31
6.48
19.99
32.45
42.98
51.08
56.84
60.91
64.06
66.75
68.93
70.10
69.68
67.43
63.72
59.42
55.51
52.63
50.78
49.35
47.43
44.35
39.92
34.56
29.01
24.01
20.01
16.99
14.67
12.58
10.27
7.42
3.90
-0.30
-4.95
-9.74
-14.29
-18.25
-21.51
-24.17
-26.68
-29.65
-33.64
-38.95
-45.32
-51.88
-57.25
-59.98
-58.96
-53.93
-45.52
-35.06
-23.98
-13.43
-3.91
4.66
12.55
19.89
26.48
31.92
35.88
38.39
39.84
40.82
41.75
42.62
43.01
42.25
39.96
36.28
31.94
27.93
25.04
23.37
22.26
20.59
17.33
12.13
5.43
-1.64
-7.92
-12.71
-16.19
-19.32
-23.30
-29.13
-37.00
-46.26
-55.65
-63.77
-69.57
-72.48
-72.51
-70.08
-66.15
-62.25
-60.64
-63.83
-73.78
-90.83
-113.13
-136.92
-157.59
-171.17
-175.27
-169.43
-154.60
-132.55
-105.52
-76.00
-46.80
-20.53
1.04
17.72
31.13
44.37
61.12
84.36
115.24
152.19
190.72
224.19
245.77
250.98
239.75
216.84
189.92
166.49
150.80
142.64
138.43
133.71
125.63
113.95
100.39
87.03
74.99
64.09
53.37
41.96
29.53
16.36
2.94
-10.26
-22.97
-35.04
-46.31
-56.52
-65.22
-71.75
-75.53
-76.33
-74.57
-71.41
-68.39
-66.78
-66.96
-68.07
-68.32
-65.63
-58.44
-46.21
-29.44
-9.33
12.64
34.98
56.33
75.41
91.17
103.05
111.24
116.81
121.47
126.99
134.57
144.33
155.27
165.64
173.53
177.55
177.08
172.23
163.50
151.30
135.65
116.26
92.84
65.60
35.63
4.87
-24.41
-50.38
-72.24
-90.17
-104.74
-116.12
-123.56
-125.76
-121.79
-112.16
-99.04
-85.54
-74.43
-67.03
-62.94
-60.73
-58.93
-56.69
-53.73
-49.78
-44.03
-35.12
-21.58
-2.56
21.78
50.24
81.06
112.40
142.74
170.86
195.67
216.08
230.94
239.24
240.36
234.33
221.87
204.15
182.49
158.13
132.23
105.97
80.92
59.05
42.52
33.09
31.36
36.42
45.84
56.31
64.69
68.99
68.98
66.16
63.05
62.22
65.30
72.48
82.56
93.29
102.09
106.59
105.21
97.49
84.04
66.33
45.92
24.02
0.92
-23.80
-50.77
-80.01
-110.35
-139.52
-164.87
-184.44
-197.84
-206.19
-211.59
-215.88
-219.86
-223.09
-224.31
-222.20
-216.02
-205.78
-192.13
-176.29
-160.11
-146.16
-137.44
-136.53
-144.21
-158.48
-174.59
-186.47
-188.99
-180.22
-162.29
-140.49
-121.05
-108.66
-105.05
-109.07
-117.91
-128.76
-139.68
-149.72
-158.31
-164.72
-168.00
-167.49
-163.32
-156.72
-149.66
-144.09
-141.15
-140.80
-141.90
-142.89
-142.45
-140.12
-136.25
-131.63
-126.83
-121.59
-114.74
-104.59
-89.57
-68.93
-43.12
-13.52
18.16
50.61
83.29
116.30
149.78
183.24
215.33
244.18
268.04
285.87
297.57
303.79
305.48
303.58
299.07
293.10
287.10
282.63
280.74
281.50
283.61
284.64
281.63
271.94
254.13
228.37
196.60
162.07
128.49
98.96
75.14
57.01
43.27
32.30
23.11
15.75
10.82
8.53
7.87
6.36
0.89
-11.22
-31.27
-59.36
-94.92
-137.13
-184.47
-233.77
-279.63
-315.09
-333.76
-332.42
-312.55
-279.67
-240.92
-202.24
-166.74
-135.05
-106.86
-82.54
-63.44
-51.01
-45.51
-45.36
-47.64
-49.37
-48.73
-45.50
-40.74
-35.90
-31.83
-28.43
-24.79
-19.81
-12.81
-3.95
5.77
14.94
22.23
26.97
29.11
28.99
27.07
23.63
18.95
13.41
7.64
2.44
-1.49
-3.72
-4.17
-3.02
-0.51
3.03
7.17
11.23
14.32
15.63
14.75
11.84
7.69
3.40
0.15
-1.23
-0.32
2.78
7.59
13.44
19.62
25.64
31.17
36.13
40.44
44.03
46.71
48.35
48.94
48.69
47.99
47.26
46.77
46.53
46.28
45.66
44.41
42.48
40.04
37.38
34.74
32.24
29.79
27.27
24.55
21.64
18.69
15.91
13.46
11.40
9.64
7.92
5.93
3.43
0.42
-2.79
-5.70
-7.82
-8.98
-9.46
-9.92
-11.16
-13.72
-17.67
-22.55
-27.49
-31.50
-33.73
-33.65
-31.01
-25.96
-18.97
-10.71
-1.95
6.81
15.33
23.52
31.33
38.70
45.41
51.11
55.42
58.06
59.17
59.31
59.14
59.32
60.41
62.60
65.67
69.16
72.43
75.35
78.16
81.30
85.28
91.15
99.59
110.45
122.50
133.19
140.63
143.80
142.97
139.89
138.42
142.07
152.44
168.43
185.94
202.00
214.96
224.26
230.16
234.68
238.70
241.31
240.06
230.94
213.85
191.22
166.21
141.88
122.90
112.60
112.25
120.60
132.54
145.32
157.11
166.12
154.44
111.56
38.14
-52.43
-128.76
-185.55
-227.04
-260.13
-293.50
-331.10
-371.00
-408.69
-438.68
-456.59
-462.30
-455.37
-437.49
-413.04
-387.10
-361.71
-336.37
-308.91
-277.44
-243.25
-206.89
-169.08
-130.54
-91.02
-48.50
-1.53
49.18
100.11
145.07
180.08
204.02
218.50
226.84
232.74
238.28
243.06
244.65
239.43
225.47
202.96
173.95
141.63
109.12
78.25
48.98
19.83
-11.25
-45.24
-81.70
-119.13
-155.60
-189.50
-219.63
-245.10
-265.10
-279.02
-286.91
-289.70
-288.98
-286.20
-281.77
-274.55
-262.32
-242.61
-213.89
-176.26
-131.73
-84.11
-38.30
0.82
29.90
48.70
60.70
72.05
89.09
115.19
148.69
183.14
209.97
221.99
216.18
194.26
161.16
122.61
83.22
45.77
11.79
-17.68
-41.59
-58.88
-69.09
-72.60
-70.82
-65.78
-59.56
-53.71
-48.77
-44.18
-38.78
-31.47
-22.00
-11.25
-0.95
7.19
12.18
14.12
14.00
13.01
11.91
10.78
9.16
6.53
2.69
-2.00
-6.83
-11.02
-14.09
-16.01
-17.16
-18.11
-19.44
-21.51
-24.35
-27.75
-31.29
-34.50
-36.97
-38.46
-38.91
-38.45
-37.36
-36.18
-35.54
-36.12
-38.42
-42.49
-47.88
-53.69
-58.89
-62.65
-64.68
-65.28
-65.09
-64.87
-65.26
-66.64
-69.29
-73.36
-78.87
-85.42
-92.18
-97.94
-101.62
-102.76
-101.73
-99.40
-96.38
-92.20
-85.07
-72.46
-52.30
-24.23
9.76
45.73
78.92
105.20
122.10
129.25
127.98
120.66
109.86
97.75
85.78
74.75
64.94
56.46
49.32
43.54
38.92
35.01
31.21
27.03
22.42
17.86
14.25
12.34
12.33
13.60
14.98
15.30
14.00
11.45
8.76
7.24
7.70
9.84
12.32
13.22
10.84
4.48
-5.20
-16.44
-27.07
-35.27
-40.20
-42.04
-41.62
-39.87
-37.32
-33.91
-29.26
-23.00
-15.10
-6.05
3.36
12.19
19.62
25.01
28.06
28.96
28.67
29.08
32.78
42.38
59.18
82.18
107.88
131.09
146.90
152.47
148.03
136.58
122.29
108.69
97.44
88.32
80.09
71.75
63.31
55.69
50.07
46.88
45.36
43.80
40.21
33.31
23.09
10.81
-1.60
-12.52
-21.37
-28.77
-36.17
-45.03
-55.99
-68.53
-81.10
-91.77
-98.94
-101.86
-100.64
-96.05
-89.10
-80.63
-71.26
-61.40
-51.41
-41.73
-32.82
-25.10
-18.79
-13.87
-10.05
-6.95
-4.18
-1.55
0.89
2.83
3.89
3.77
2.50
0.41
-1.94
-3.96
-5.18
-5.42
-4.72
-3.25
-1.30
0.76
2.54
3.75
4.29
4.38
4.44
4.89
5.73
6.50
6.40
4.77
1.56
-2.59
-6.62
-9.62
-11.21
-11.53
-10.62
-7.85
-1.83
9.21
26.57
50.47
79.85
112.75
146.69
179.05
207.17
228.64
241.69
245.96
242.98
235.92
228.68
224.52
224.94
229.27
235.32
240.48
242.78
241.60
237.77
232.98
229.07
227.08
226.88
227.18
226.20
222.44
215.29
205.10
192.69
178.71
163.27
145.98
126.42
104.58
80.98
56.35
31.21
5.44
-21.85
-52.10
-86.87
-127.08
-172.11
-219.29
-263.87
-300.13
-323.15
-330.60
-323.81
-307.36
-287.37
-269.37
-256.73
-250.27
-248.85
-250.46
-252.86
-253.81
-250.93
-241.82
-224.53
-198.20
-163.39
-121.96
-76.42
-29.19
17.79
63.06
105.08
141.80
170.53
188.58
194.20
187.37
170.20
146.28
119.41
92.27
65.43
37.35
5.14
-33.81
-80.24
-131.75
-183.05
-227.18
-257.85
-271.58
-269.23
-255.74
-238.51
-224.53
-217.87
-218.29
-221.67
-222.00
-213.96
-194.93
-165.78
-130.14
-92.78
-58.06
-29.01
-7.37
5.86
9.96
4.77
-8.46
-26.51
-44.55
-57.59
-62.43
-59.04
-50.59
-41.91
-37.31
-38.69
-45.09
-53.41
-60.12
-62.78
-60.75
-55.03
-47.40
-39.57
-32.60
-26.82
-22.04
-17.84
-13.74
-9.21
-3.67
3.39
12.31
22.99
34.83
46.88
58.11
67.69
75.22
80.60
83.87
84.99
83.86
80.39
74.80
67.72
60.13
53.20
47.81
44.40
42.72
41.85
40.38
36.85
30.20
20.25
8.02
-4.47
-14.83
-21.14
-22.64
-19.83
-14.14
-7.12
0.13
7.15
13.87
20.19
25.72
29.87
32.17
32.57
31.42
29.31
26.72
23.91
20.97
18.05
15.45
13.58
12.65
12.42
12.09
10.61
7.19
1.86
-4.41
-10.00
-13.36
-13.79
-11.71
-8.43
-5.61
-4.53
-5.84
-9.61
-15.54
-23.18
-32.05
-41.56
-51.07
-59.94
-67.77
-74.43
-80.02
-84.75
-88.79
-92.30
-95.38
-97.95
-99.69
-100.03
-98.35
-94.24
-87.86
-79.90
-71.35
-63.00
-55.13
-47.57
-39.84
-31.58
-22.56
-12.70
-1.84
10.17
23.25
36.73
49.36
59.59
66.28
69.31
69.61
68.83
68.48
69.22
70.73
72.02
72.18
70.99
69.14
67.91
68.57
71.76
77.22
83.88
90.25
94.95
96.97
95.81
91.41
83.93
73.81
61.79
48.97
36.73
26.45
19.09
14.89
13.33
13.53
14.64
16.35
18.95
23.22
30.00
39.86
52.85
68.33
85.12
101.62
116.14
127.26
134.06
136.30
134.41
129.31
122.16
114.17
106.42
99.74
94.63
91.16
89.00
87.45
85.75
83.23
79.59
74.86
69.33
63.38
57.42
51.83
46.94
43.13
40.71
39.86
40.44
42.00
43.77
44.76
44.00
40.60
33.99
24.07
11.41
-2.81
-17.16
-30.50
-42.69
-54.75
-68.57
-85.89
-107.25
-131.34
-155.25
-175.49
-189.43
-196.29
-197.21
-194.49
-190.38
-186.21
-182.02
-177.12
-170.77
-162.71
-153.24
-142.77
-131.48
-119.14
-105.33
-89.89
-73.24
-56.46
-40.82
-27.39
-16.64
-8.51
-2.62
1.26
2.97
1.97
-2.34
-10.18
-21.09
-33.81
-46.64
-57.83
-66.18
-71.30
-73.60
-74.01
-73.56
-73.04
-72.70
-72.22
-70.73
-67.04
-59.90
-48.48
-32.68
-13.45
7.37
27.42
44.56
57.50
66.06
71.07
73.87
75.66
77.11
78.26
78.78
78.32
76.84
74.61
72.12
69.77
67.73
65.91
64.07
62.01
59.68
57.20
54.71
52.36
50.14
47.94
45.60
42.94
39.76
35.83
30.74
23.99
15.14
4.22
-8.09
-20.42
-31.08
-38.68
-42.58
-43.20
-41.73
-39.68
-38.24
-37.94
-38.55
-39.31
-39.26
-37.60
-33.95
-28.40
-21.39
-13.54
-5.32
3.03
11.52
20.24
29.15
37.96
46.17
53.28
58.99
63.34
66.64
69.33
71.77
74.10
76.27
78.10
79.45
80.38
81.08
81.91
83.19
85.06
87.33
89.51
90.83
90.50
87.87
82.64
74.95
65.22
53.99
41.60
28.11
13.26
-3.23
-21.42
-40.88
-60.69
-79.49
-95.78
-108.19
-115.85
-118.55
-116.80
-111.70
-104.60
-96.71
-88.69
-80.58
-71.94
-62.20
-51.10
-38.91
-26.33
-14.19
-3.10
6.75
15.51
23.41
30.47
36.38
40.62
42.74
42.71
40.96
38.28
35.49
33.10
31.17
29.43
27.55
25.43
23.27
21.48
20.42
20.18
20.52
21.01
21.21
20.89
20.02
18.64
16.72
14.06
10.29
5.07
-1.70
-9.74
-18.28
-26.26
-32.57
-36.45
-37.70
-36.71
-34.33
-31.49
-28.95
-27.06
-25.83
-24.92
-23.86
-22.10
-19.10
-14.44
-7.88
0.47
10.14
20.41
30.45
39.63
47.65
54.71
61.35
68.21
75.79
84.15
92.77
100.62
106.40
108.89
107.31
101.58
92.37
81.00
69.03
57.89
48.47
40.88
34.43
27.89
19.91
9.42
-3.94
-19.67
-36.44
-52.36
-65.40
-73.92
-77.07
-75.00
-68.76
-59.97
-50.26
-40.82
-32.25
-24.53
-17.39
-10.58
-4.07
1.93
7.12
11.29
14.27
16.02
16.56
15.97
14.53
12.74
11.28
10.78
11.66
13.87
16.98
20.23
22.74
23.77
22.85
19.91
15.34
9.85
4.23
-0.98
-5.68
-10.32
-15.57
-21.90
-29.35
-37.41
-45.22
-52.01
-57.38
-61.50
-65.15
-69.59
-76.31
-86.49
-100.42
-116.99
-133.67
-147.06
-153.96
-152.47
-142.68
-126.55
-107.06
-87.13
-68.66
-52.21
-37.16
-22.28
-6.34
11.42
31.01
51.67
71.85
89.58
102.90
110.54
112.43
109.96
105.57
101.98
101.09
103.42
108.03
113.24
117.51
120.20
121.68
122.85
124.48
126.61
128.45
128.71
126.10
119.82
109.85
96.86
81.96
66.37
51.27
37.69
26.65
19.12
15.82
16.88
21.44
27.74
33.65
37.57
39.14
39.49
40.69
44.80
52.93
64.76
78.58
91.89
101.92
106.35
103.85
94.44
79.66
62.27
45.58
32.41
24.22
20.51
18.88
15.66
6.99
-9.94
-35.89
-69.10
-105.54
-139.74
-165.90
-178.86
-174.79
-151.85
-110.72
-55.07
8.45
71.19
124.56
162.33
182.31
186.48
179.38
165.81
148.81
129.20
106.16
78.63
46.26
9.76
-29.14
-68.04
-104.15
-134.58
-157.06
-170.70
-176.42
-176.84
-175.27
-174.59
-176.32
-180.50
-186.25
-192.50
-198.45
-203.55
-207.21
-208.64
-207.02
-201.90
-193.65
-183.37
-172.62
-162.70
-154.20
-146.68
-138.94
-129.60
-117.72
-103.27
-87.17
-70.87
-55.71
-42.48
-31.25
-21.59
-13.05
-5.49
0.90
5.85
9.29
11.49
13.03
14.48
16.18
18.09
19.96
21.47
22.49
23.05
23.33
23.45
23.41
23.07
22.30
21.06
19.50
17.90
16.51
15.42
14.44
13.23
11.44
9.00
6.10
3.24
0.92
-0.62
-1.45
-2.04
-2.99
-4.74
-7.43
-10.83
-14.50
-18.01
-21.11
-23.71
-25.81
-27.35
-28.21
-28.26
-27.43
-25.72
-23.23
-20.02
-16.06
-11.27
-5.65
0.65
7.23
13.55
19.00
22.99
25.14
25.36
23.85
21.13
17.91
14.90
12.64
11.38
11.07
11.49
12.27
13.06
13.56
13.53
12.87
11.63
9.98
8.18
6.49
5.09
4.00
3.13
2.24
1.17
-0.21
-1.82
-3.50
-5.08
-6.45
-7.74
-9.21
-11.23
-14.04
-17.59
-21.47
-24.94
-27.12
-27.25
-24.98
-20.49
-14.38
-7.48
-0.51
6.12
12.40
18.54
24.76
31.07
37.30
43.15
48.38
52.88
56.68
59.86
62.44
64.38
65.64
66.31
66.63
66.98
67.72
68.93
70.38
71.55
71.85
70.94
68.85
66.00
62.99
60.30
58.18
56.55
55.18
53.75
52.00
49.78
47.00
43.75
40.29
37.06
34.63
33.38
33.43
34.40
35.57
36.03
35.12
32.74
29.53
26.80
26.03
28.36
33.81
41.03
47.42
49.79
45.38
32.82
12.69
-12.59
-39.43
-64.16
-83.96
-97.48
-104.86
-107.37
-106.77
-104.76
-102.67
-101.26
-100.83
-101.21
-101.89
-102.07
-100.88
-97.61
-92.01
-84.46
-75.94
-67.68
-60.79
-55.81
-52.50
-50.08
-47.51
-44.08
-39.59
-34.43
-29.30
-24.81
-21.26
-18.53
-16.29
-14.19
-12.09
-10.06
-8.33
-7.21
-6.93
-7.68
-9.48
-12.07
-14.82
-16.83
-17.20
-15.34
-11.33
-5.99
-0.70
3.08
4.25
2.50
-1.66
-7.07
-12.30
-16.11
-17.79
-17.34
-15.34
-12.71
-10.35
-8.84
-8.35
-8.66
-9.25
-9.54
-8.97
-7.15
-3.94
0.54
5.92
11.63
17.05
21.64
25.00
27.05
27.98
28.23
28.31
28.63
29.31
30.10
30.45
29.81
27.83
24.62
20.62
16.41
12.36
8.45
4.27
-0.76
-7.01
-14.46
-22.64
-30.77
-37.95
-43.45
-46.74
-47.51
-45.70
-41.49
-35.26
-27.68
-19.55
-11.70
-4.69
1.33
6.62
11.71
17.07
22.90
28.90
34.49
39.00
42.05
43.66
44.21
44.27
44.32
44.59
45.02
45.38
45.33
44.54
42.79
39.94
36.04
31.32
26.23
21.31
17.15
14.10
12.25
11.28
10.64
9.66
7.83
4.98
1.32
-2.63
-6.27
-9.13
-11.08
-12.32
-13.29
-14.45
-16.05
-17.97
-19.76
-20.76
-20.19
-17.47
-12.30
-4.79
4.63
15.30
26.47
37.56
48.23
58.45
68.31
77.88
87.08
95.55
102.84
108.57
112.55
114.89
115.86
115.81
115.05
113.76
111.96
109.56
106.37
102.07
96.34
88.91
79.73
69.09
57.62
46.17
35.58
26.52
19.25
13.59
9.02
4.85
0.42
-4.71
-10.66
-17.35
-24.53
-31.99
-39.58
-47.23
-54.96
-62.72
-70.52
-78.26
-85.79
-92.71
-98.35
-101.82
-102.22
-99.00
-92.20
-82.67
-71.74
-60.88
-51.18
-43.04
-36.21
-30.05
-23.94
-17.57
-11.04
-4.64
1.35
6.93
12.23
17.41
22.39
26.77
29.97
31.51
31.25
29.49
26.77
23.60
20.21
16.50
12.20
7.13
1.37
-4.70
-10.49
-15.52
-19.53
-22.63
-25.25
-28.03
-31.61
-36.46
-42.72
-50.17
-58.21
-66.12
-73.23
-79.02
-83.24
-85.82
-86.90
-86.77
-85.89
-84.76
-83.85
-83.22
-82.40
-80.46
-76.21
-68.79
-58.06
-44.78
-30.37
-16.44
-4.26
5.48
12.67
17.49
20.08
20.47
18.70
15.10
10.40
5.77
2.40
1.10
2.00
4.45
7.35
9.59
10.50
9.99
8.45
6.34
3.93
1.18
-2.11
-5.97
-10.05
-13.64
-15.87
-16.17
-14.54
-11.56
-8.21
-5.42
-3.78
-3.39
-3.89
-4.77
-5.60
-6.19
-6.62
-7.12
-7.93
-9.18
-10.84
-12.77
-14.66
-16.15
-16.83
-16.38
-14.68
-11.91
-8.47
-4.86
-1.43
1.77
5.05
8.93
13.96
20.55
28.77
38.37
48.59
58.25
65.76
69.46
67.98
60.67
47.84
30.79
11.53
-7.68
-24.76
-38.13
-46.86
-50.84
-50.83
-48.42
-45.80
-45.10
-47.71
-53.66
-61.58
-69.26
-74.52
-76.11
-74.02
-69.15
-62.65
-55.31
-47.41
-38.99
-30.36
-22.29
-15.72
-11.22
-8.58
-6.69
-4.12
0.25
6.71
14.60
22.77
30.15
36.31
41.61
47.03
53.79
62.86
74.53
88.21
102.45
115.26
124.75
129.79
130.60
128.82
127.05
127.86
132.67
141.05
150.66
158.00
159.38
152.09
135.07
109.37
78.05
45.70
17.39
-2.69
-12.61
-13.32
-8.15
-1.26
4.28
7.65
10.01
12.89
16.44
18.58
15.85
5.29
-13.82
-39.52
-68.30
-96.92
-123.76
-148.80
-172.63
-195.07
-214.68
-229.23
-236.98
-237.70
-232.86
-224.93
-216.25
-208.11
-200.43
-192.12
-181.80
-168.55
-152.39
-134.30
-115.87
-98.55
-83.14
-69.57
-57.34
-46.28
-37.08
-31.24
-30.21
-34.23
-41.52
-48.40
-50.59
-44.92
-30.74
-10.33
12.14
32.22
46.87
55.39
59.16
60.73
62.58
66.22
71.89
78.91
86.17
92.75
98.07
101.93
104.23
104.86
103.61
100.37
95.34
89.12
82.62
76.74
71.91
67.85
63.68
58.22
50.75
41.39
31.29
22.24
16.04
13.76
15.41
19.99
25.94
31.81
36.75
40.58
43.64
46.38
48.96
51.21
52.76
53.29
52.77
51.47
49.81
48.15
46.61
45.13
43.52
41.68
39.59
37.39
35.23
33.17
31.19
29.24
27.22
25.10
22.89
20.63
18.42
16.35
14.53
12.98
11.65
10.35
8.83
6.90
4.48
1.73
-1.03
-3.52
-5.55
-7.13
-8.48
-9.84
-11.46
-13.50
-16.07
-19.14
-22.57
-25.93
-28.58
-29.73
-28.79
-25.51
-20.25
-13.79
-7.08
-0.91
4.36
8.80
12.69
16.29
19.66
22.64
24.99
26.53
27.27
27.41
27.19
26.83
26.40
25.85
25.10
24.14
23.06
22.06
21.24
20.60
19.95
19.04
17.67
15.86
13.76
11.66
9.81
8.33
7.20
6.34
5.60
4.84
3.94
2.80
1.41
-0.17
-1.82
-3.37
-4.71
-5.80
-6.71
-7.61
-8.66
-10.01
-11.76
-13.84
-15.94
-17.52
-17.90
-16.44
-12.83
-7.27
-0.38
6.96
13.93
19.99
24.93
28.73
31.47
33.17
33.82
33.51
32.48
31.06
29.61
28.34
27.32
26.48
25.66
24.77
23.75
22.63
21.47
20.34
19.28
18.23
17.05
15.60
13.82
11.83
9.85
8.18
6.99
6.22
5.57
4.67
3.27
1.37
-0.76
-2.74
-4.26
-5.18
-5.67
-5.98
-6.43
-7.25
-8.51
-10.17
-12.11
-14.10
-15.88
-17.13
-17.52
-16.78
-14.84
-11.85
-8.18
-4.29
-0.63
2.59
5.40
8.01
10.62
13.28
15.81
17.82
18.92
18.90
17.91
16.33
14.69
13.42
12.70
12.46
12.47
12.48
12.32
11.89
11.14
9.97
8.27
5.95
3.08
-0.12
-3.29
-6.06
-8.12
-9.34
-9.83
-9.82
-9.67
-9.68
-10.07
-10.91
-12.15
-13.64
-15.20
-16.70
-18.07
-19.41
-20.84
-22.55
-24.69
-27.23
-29.95
-32.42
-34.02
-34.16
-32.47
-28.90
-23.77
-17.64
-11.14
-4.77
1.14
6.41
10.98
14.83
17.99
20.51
22.47
23.94
24.98
25.64
25.97
26.07
26.07
26.05
26.03
25.86
25.37
24.47
23.20
21.75
20.38
19.19
18.09
16.80
15.03
12.69
9.94
7.19
4.87
3.18
2.04
1.05
-0.23
-2.12
-4.70
-7.76
-10.92
-13.81
-16.19
-17.98
-19.29
-20.33
-21.35
-22.58
-24.13
-25.99
-27.96
-29.66
-30.64
-30.44
-28.81
-25.75
-21.52
-16.59
-11.43
-6.39
-1.64
2.79
6.90
10.59
13.72
16.17
17.97
19.26
20.25
21.13
21.93
22.55
22.81
22.59
21.88
20.75
19.35
17.79
16.18
14.62
13.15
11.80
10.52
9.21
7.76
6.15
4.45
2.83
1.46
0.46
-0.21
-0.69
-1.20
-1.86
-2.73
-3.77
-4.88
-6.00
-7.09
-8.20
-9.37
-10.63
-11.98
-13.39
-14.92
-16.65
-18.66
-20.90
-23.11
-24.83
-25.48
-24.63
-22.12
-18.17
-13.32
-8.19
-3.31
1.05
4.84
8.15
11.07
13.58
15.57
16.94
17.66
17.85
17.76
17.65
17.72
18.02
18.48
18.96
19.36
19.61
19.74
19.83
19.93
20.08
20.20
20.19
19.91
19.28
18.33
17.15
15.89
14.63
13.35
11.97
10.41
8.64
6.70
4.69
2.65
0.58
-1.60
-3.92
-6.37
-8.89
-11.36
-13.70
-15.88
-17.91
-19.85
-21.65
-23.21
-24.29
-24.60
-23.86
-21.93
-18.88
-15.00
-10.72
-6.50
-2.68
0.55
3.14
5.11
6.55
7.51
8.08
8.38
8.53
8.64
8.75
8.82
8.74
8.46
7.99
7.55
7.39
7.72
8.56
9.70
10.72
11.22
11.05
10.38
9.73
9.68
10.56
12.25
14.13
15.41
15.45
14.17
12.09
10.17
9.38
10.29
12.90
16.65
20.61
23.76
25.19
24.36
21.32
16.72
11.74
7.61
5.12
4.28
4.49
5.02
5.67
7.07
10.34
16.32
24.70
33.55
39.55
38.83
28.15
6.08
-26.34
-65.36
-105.20
-139.28
-162.11
-170.86
-166.18
-151.78
-132.93
-114.51
-99.57
-88.78
-81.05
-74.61
-68.10
-61.05
-53.70
-46.54
-39.88
-33.72
-27.87
-22.29
-17.11
-12.58
-8.84
-5.70
-2.54
1.51
7.34
15.49
25.81
37.41
48.79
58.29
64.56
67.03
66.15
63.06
59.10
55.13
51.36
47.36
42.66
37.23
31.69
27.09
24.37
23.87
25.12
27.12
28.78
29.46
29.11
28.20
27.34
26.95
27.09
27.48
27.74
27.52
26.63
25.03
22.74
19.81
16.27
12.20
7.78
3.33
-0.74
-4.03
-6.24
-7.35
-7.61
-7.51
-7.53
-8.05
-9.13
-10.61
-12.14
-13.42
-14.33
-14.96
-15.52
-16.18
-17.02
-17.98
-18.92
-19.77
-20.55
-21.32
-22.13
-22.94
-23.61
-24.00
-24.12
-24.22
-24.66
-25.76
-27.49
-29.41
-30.75
-30.77
-29.04
-25.66
-21.16
-16.21
-11.39
-7.02
-3.16
0.28
3.37
6.14
8.57
10.61
12.25
13.45
14.20
14.47
14.26
13.67
12.80
11.80
10.80
9.88
9.10
8.45
7.89
7.34
6.69
5.85
4.77
3.49
2.11
0.76
-0.43
-1.40
-2.14
-2.72
-3.22
-3.74
-4.36
-5.15
-6.10
-7.19
-8.39
-9.66
-10.93
-12.18
-13.31
-14.28
-15.08
-15.83
-16.73
-17.98
-19.69
-21.67
-23.51
-24.59
-24.40
-22.64
-19.44
-15.24
-10.58
-5.97
-1.71
2.11
5.46
8.31
10.54
11.99
12.56
12.38
11.73
11.02
10.60
10.60
10.93
11.35
11.64
11.73
11.67
11.60
11.62
11.67
11.63
11.35
10.78
9.98
9.08
8.21
7.39
6.56
5.58
4.42
3.12
1.81
0.68
-0.19
-0.84
-1.45
-2.23
-3.34
-4.78
-6.42
-8.03
-9.40
-10.43
-11.18
-11.88
-12.76
-14.11
-16.01
-18.43
-21.12
-23.66
-25.55
-26.31
-25.60
-23.33
-19.66
-15.01
-9.90
-4.87
-0.35
3.38
6.30
8.54
10.33
11.90
13.38
14.79
16.02
16.98
17.65
18.08
18.39
18.67
18.94
19.19
19.36
19.44
19.46
19.45
19.45
19.41
19.29
19.01
18.56
17.97
17.28
16.55
15.80
15.06
14.30
13.51
12.67
11.76
10.77
9.69
8.50
7.20
5.82
4.42
3.09
1.89
0.83
-0.15
-1.20
-2.50
-4.16
-6.03
-7.70
-8.50
-7.66
-4.75
0.26
6.88
14.33
21.84
28.96
35.64
42.15
48.93
56.25
64.28
73.09
82.63
92.54
102.00
109.71
114.26
114.71
110.96
104.10
96.17
89.48
85.87
86.10
89.78
95.66
102.16
107.27
109.26
106.99
100.14
89.17
75.21
59.65
43.93
29.34
15.60
1.82
-12.86
-28.73
-45.12
-60.63
-73.60
-82.56
-86.30
-86.32
-85.15
-85.67
-90.14
-99.71
-114.24
-132.28
-151.35
-167.87
-181.09
-191.57
-201.00
-211.31
-223.98
-239.63
-258.03
-278.19
-286.28
-271.49
-228.53
-161.52
-82.03
-2.66
68.10
126.85
170.14
202.18
224.28
236.44
238.41
231.00
216.14
195.92
173.70
151.31
130.20
108.89
85.60
59.17
29.70
-1.59
-33.21
-64.26
-94.93
-125.32
-156.63
-188.87
-220.23
-247.27
-265.98
-273.40
-268.67
-253.35
-230.09
-202.78
-174.88
-148.85
-126.12
-107.31
-92.53
-81.57
-74.07
-69.25
-66.47
-64.95
-63.75
-61.72
-57.78
-51.13
-41.64
-29.93
-17.09
-4.35
7.34
17.62
26.56
34.36
40.98
46.11
49.34
50.52
50.03
48.75
47.67
47.47
48.23
49.48
50.51
50.81
50.25
49.13
47.89
46.96
46.51
46.47
46.60
46.49
45.73
43.95
41.02
37.13
32.74
28.47
24.86
22.10
20.08
18.49
16.99
15.49
14.10
13.10
12.79
13.25
14.29
15.34
15.53
13.89
9.64
2.59
-6.58
-16.34
-24.54
-29.05
-28.42
-22.37
-11.88
1.10
14.28
25.60
33.78
38.38
39.82
39.08
37.30
35.52
34.37
34.00
34.07
34.00
33.24
31.55
29.13
26.62
24.82
24.39
25.59
28.10
31.18
33.86
35.34
35.16
33.39
30.47
27.05
23.78
21.11
19.21
17.99
17.19
16.40
15.13
12.91
9.33
4.20
-2.28
-9.51
-16.62
-22.78
-27.65
-31.64
-35.91
-41.92
-50.80
-62.62
-76.13
-88.87
-97.82
-100.30
-94.66
-80.65
-59.41
-33.07
-4.28
24.23
50.05
71.27
86.61
95.55
98.10
94.77
86.30
73.55
57.54
39.48
20.85
3.18
-12.28
-24.96
-35.15
-43.82
-52.14
-60.89
-70.11
-79.10
-86.84
-92.64
-96.52
-99.28
-102.21
-106.50
-112.71
-120.34
-127.75
-132.52
-132.26
-125.67
-113.10
-96.56
-78.80
-62.05
-47.10
-33.14
-18.42
-1.29
18.93
41.64
65.13
87.04
104.91
116.80
121.70
119.96
113.32
104.19
94.64
85.43
76.00
65.33
53.23
41.03
31.15
25.87
25.91
29.99
35.49
39.91
42.08
42.44
42.46
43.47
45.82
48.79
51.14
51.97
51.27
49.91
49.10
49.70
51.73
54.14
55.24
53.28
47.20
36.99
23.75
9.25
-4.67
-16.71
-26.41
-34.19
-41.04
-48.08
-56.05
-65.01
-74.27
-82.48
-88.09
-89.73
-86.70
-79.36
-69.27
-58.86
-50.86
-47.34
-48.94
-54.55
-61.56
-66.74
-67.36
-62.10
-51.36
-36.93
-21.14
-6.04
7.14
18.10
27.13
34.67
40.97
45.99
49.51
51.37
51.56
50.29
47.85
44.53
40.66
36.53
32.50
28.95
26.18
24.32
23.21
22.42
21.37
19.58
16.89
13.60
10.52
8.70
9.09
12.04
17.09
22.98
28.08
30.99
31.08
28.76
25.33
22.47
21.59
23.33
27.40
32.80
38.25
42.64
45.32
46.19
45.61
44.14
42.40
40.80
39.57
38.70
38.09
37.66
37.39
37.26
37.21
37.08
36.58
35.45
33.57
30.99
27.90
24.50
20.96
17.41
13.97
10.79
7.97
5.50
3.17
0.62
-2.54
-6.62
-11.64
-17.33
-23.03
-27.84
-30.73
-30.86
-27.94
-22.43
-15.42
-8.28
-2.14
2.53
5.98
8.83
11.67
14.72
17.85
20.71
23.05
24.82
26.10
27.00
27.51
27.55
27.10
26.29
25.51
25.24
25.91
27.67
30.26
33.06
35.36
36.61
36.77
36.34
36.14
36.94
38.96
41.67
43.78
43.61
39.53
30.48
16.39
-1.46
-20.45
-36.88
-46.83
-47.30
-37.31
-18.41
5.62
29.86
49.81
62.62
67.63
66.11
60.21
51.92
42.32
31.50
19.13
5.13
-9.68
-23.42
-33.59
-37.78
-34.56
-23.87
-7.05
13.69
35.93
57.50
76.67
92.06
102.58
107.53
106.92
101.78
94.10
86.27
80.05
75.54
70.63
61.53
44.16
15.99
-22.52
-67.42
-112.08
-148.80
-170.61
-172.82
-153.82
-115.29
-61.86
-0.36
61.36
115.88
157.66
184.15
196.18
197.30
192.53
186.71
183.13
182.77
184.34
185.09
181.97
173.00
158.15
139.61
121.22
107.20
100.50
101.53
107.72
114.21
115.48
107.27
87.94
58.66
22.57
-16.96
-57.62
-98.90
-141.87
-188.47
-240.65
-299.37
-363.61
-429.68
-491.33
-540.92
-571.70
-580.05
-566.74
-536.43
-495.58
-450.02
-403.31
-356.74
-310.35
-264.15
-218.63
-174.26
-130.72
-86.41
-38.82
14.63
75.56
143.79
216.73
289.41
355.23
407.36
440.44
452.08
443.20
417.33
379.07
332.65
281.28
227.42
173.57
122.69
77.87
41.51
14.39
-4.57
-17.85
-28.32
-38.24
-48.79
-59.91
-70.72
-80.14
-87.39
-92.33
-95.55
-98.06
-100.78
-104.09
-107.61
-110.37
-111.25
-109.49
-105.03
-98.46
-90.68
-82.45
-74.01
-65.07
-54.98
-43.16
-29.42
-14.07
2.06
17.91
32.40
44.68
54.20
60.72
64.33
65.43
64.85
63.85
63.72
65.18
67.75
69.55
67.75
59.80
44.71
23.75
0.17
-22.16
-40.31
-53.35
-62.26
-68.97
-74.95
-80.46
-84.47
-85.46
-82.27
-74.74
-63.76
-50.99
-38.15
-26.57
-16.78
-8.62
-1.40
5.54
12.56
19.58
26.37
32.88
39.31
45.88
52.47
58.52
63.31
66.55
68.66
70.77
74.10
79.35
86.36
94.26
101.87
108.10
112.13
113.43
111.71
106.99
99.68
90.47
80.06
68.80
56.52
42.70
26.89
8.91
-10.98
-32.06
-53.28
-73.22
-90.25
-102.84
-109.97
-111.54
-108.46
-102.28
-94.63
-86.75
-79.16
-71.80
-64.40
-56.78
-49.16
-42.09
-36.23
-32.03
-29.50
-28.07
-26.97
-25.67
-24.29
-23.65
-24.94
-28.74
-34.59
-40.75
-44.80
-44.67
-39.68
-30.94
-20.97
-12.75
-7.95
-6.63
-7.07
-6.68
-3.40
3.11
11.18
17.83
19.80
15.99
7.15
-4.22
-14.73
-21.42
-22.73
-18.77
-11.44
-4.89
-3.85
-14.21
-40.33
-82.49
-135.31
-188.46
-229.86
-250.13
-246.51
-221.65
-183.21
-139.09
-94.11
-48.76
-0.36
54.45
120.97
192.07
263.80
329.18
380.95
413.42
423.94
413.34
385.35
344.96
296.62
245.48
195.52
150.70
114.86
90.79
78.86
76.22
77.29
75.20
65.74
47.40
22.23
-5.41
-30.93
-51.37
-66.15
-76.75
-85.72
-94.63
-104.39
-114.94
-125.62
-135.64
-144.15
-150.29
-153.24
-152.80
-149.61
-146.07
-145.79
-152.25
-167.07
-188.64
-212.00
-230.25
-236.80
-227.26
-200.66
-159.08
-106.61
-48.09
11.61
67.92
116.81
155.27
182.00
197.71
204.87
206.65
205.69
203.12
198.40
189.85
175.60
154.42
126.23
92.18
54.41
15.68
-21.03
-52.95
-77.79
-94.17
-101.71
-101.15
-94.03
-82.30
-67.78
-51.93
-35.76
-20.01
-5.26
8.01
19.67
30.13
40.40
51.77
65.27
81.21
99.13
118.03
136.98
155.71
174.72
194.88
216.59
238.82
258.82
272.56
276.08
267.04
245.76
215.24
179.94
144.04
110.13
78.55
47.97
16.44
-17.72
-55.56
-97.43
-142.88
-190.01
-234.84
-271.38
-293.03
-295.03
-277.09
-244.41
-206.32
-172.79
-150.49
-140.65
-139.65
-141.88
-143.04
-141.77
-139.16
-136.89
-135.42
-133.75
-130.32
-124.42
-116.70
-108.72
-101.91
-96.63
-92.25
-87.76
-82.48
-76.20
-68.96
-60.68
-51.06
-39.92
-27.41
-14.06
-0.61
12.28
24.10
34.37
42.53
48.02
50.38
49.54
45.60
38.61
28.31
14.35
-3.13
-23.02
-43.17
-61.30
-76.17
-88.59
-101.29
-117.57
-139.36
-165.68
-192.61
-214.63
-226.92
-227.31
-217.03
-199.97
-181.00
-164.25
-152.01
-144.75
-141.72
-141.68
-143.30
-145.23
-146.08
-144.56
-140.00
-132.95
-125.51
-120.93
-122.49
-131.98
-148.64
-169.06
-188.38
-202.22
-208.22
-206.66
-199.63
-189.49
-177.50
-163.50
-146.56
-126.07
-102.62
-77.87
-53.82
-31.82
-12.00
6.43
24.46
42.60
60.72
78.22
94.70
110.15
125.04
139.88
154.71
168.67
180.26
188.07
191.62
191.89
190.81
190.47
192.18
195.82
199.77
201.91
200.60
195.37
187.22
177.52
167.86
159.84
154.73
152.91
153.84
156.28
158.70
160.35
160.45
158.73
155.62
151.72
147.15
142.33
138.47
137.59
142.31
152.62
165.80
177.49
183.13
179.18
164.93
142.43
115.53
89.28
66.06
46.28
29.53
21.61
28.03
51.13
87.54
122.93
152.33
174.14
187.91
196.16
199.93
199.06
193.13
181.56
164.49
143.96
121.15
97.14
72.95
49.35
26.53
4.42
-18.02
-41.17
-63.71
-84.66
-102.57
-116.78
-127.13
-133.97
-138.20
-142.90
-150.48
-161.48
-175.75
-191.43
-208.03
-225.35
-243.23
-261.74
-283.89
-311.41
-343.72
-378.86
-412.80
-444.71
-474.55
-501.42
-523.19
-539.90
-549.56
-548.96
-535.67
-507.78
-470.02
-429.24
-391.02
-335.16
-253.83
-152.03
-45.45
35.31
90.59
126.80
150.27
168.82
185.54
197.98
204.33
204.84
201.94
201.31
204.78
212.94
226.13
243.65
261.07
274.02
279.08
274.68
262.79
244.27
220.89
195.50
170.69
146.58
122.97
99.95
78.44
60.76
47.29
37.41
30.04
23.72
16.52
7.56
-2.78
-13.22
-21.79
-27.94
-32.05
-35.01
-37.86
-41.58
-46.38
-51.52
-55.49
-56.35
-52.83
-44.65
-32.63
-18.45
-4.05
9.14
20.58
30.70
40.37
50.17
60.05
69.23
76.66
81.62
84.05
84.56
84.05
83.29
82.60
81.97
81.19
80.11
78.73
77.10
75.21
72.83
69.58
65.13
59.44
52.90
46.40
40.95
37.41
36.06
36.54
38.00
39.42
40.03
39.51
38.08
36.27
34.63
33.52
33.00
32.94
33.07
33.12
32.83
32.00
30.60
28.96
27.93
28.73
32.61
40.25
51.31
64.43
77.65
89.23
98.31
105.12
110.58
115.62
120.48
124.62
126.86
126.09
121.74
114.14
104.40
94.10
84.89
78.09
74.45
74.06
76.50
81.03
86.77
92.92
98.81
103.84
107.55
109.57
109.63
107.58
103.37
97.03
88.77
79.09
68.99
59.77
52.77
48.64
46.81
45.38
41.70
33.40
19.25
-0.18
-22.92
-46.53
-69.05
-89.90
-110.14
-132.41
-160.02
-195.45
-238.48
-285.26
-328.41
-359.12
-370.25
-358.98
-327.61
-282.05
-229.24
-174.82
-122.53
-75.08
-35.26
-6.12
10.20
14.12
9.29
1.45
-4.08
-4.73
-1.41
2.72
4.34
2.20
-2.30
-6.11
-6.36
-2.01
5.47
12.65
15.63
11.51
-0.35
-18.29
-39.14
-59.41
-76.44
-88.97
-96.94
-100.88
-101.23
-98.08
-91.48
-81.94
-70.92
-60.59
-53.24
-50.32
-51.87
-56.52
-61.99
-65.91
-66.60
-63.34
-56.33
-46.30
-34.15
-20.58
-6.09
9.04
24.48
39.79
54.29
67.22
77.87
85.77
90.76
93.02
92.87
90.65
86.65
81.10
74.32
66.83
59.34
52.63
47.38
43.95
42.29
42.09
42.83
43.99
45.15
46.01
46.52
46.80
47.13
47.73
48.53
49.02
48.34
45.61
40.39
32.95
24.33
15.94
9.04
4.28
1.48
-0.23
-2.06
-5.12
-10.01
-16.55
-23.69
-29.67
-32.51
-30.69
-23.74
-12.54
1.01
14.73
27.05
37.49
46.67
55.72
65.73
77.33
90.65
105.19
119.74
132.07
139.13
137.85
126.30
104.69
75.40
42.04
7.87
-25.22
-56.65
-86.19
-112.84
-134.67
-149.65
-156.84
-157.20
-153.10
-147.14
-140.77
-133.51
-123.37
-107.84
-85.13
-54.97
-18.93
19.75
56.44
85.66
101.92
101.06
81.64
45.76
-1.14
-51.57
-97.92
-134.33
-157.73
-167.91
-166.52
-155.73
-137.03
-110.91
-77.37
-36.76
9.51
58.76
107.21
150.54
184.53
205.70
211.86
202.48
178.93
144.46
103.82
62.51
25.74
-2.53
-20.28
-27.48
-25.75
-17.73
-6.44
5.24
14.97
21.44
24.34
24.23
22.23
19.51
16.99
15.08
13.63
12.10
9.76
5.92
0.25
-7.12
-15.60
-24.25
-32.18
-38.88
-44.48
-49.71
-55.57
-62.85
-71.71
-81.54
-91.13
-99.08
-104.07
-105.08
-101.42
-92.67
-78.81
-60.37
-38.56
-15.09
8.19
29.90
49.55
67.67
85.43
103.82
122.69
139.99
151.86
153.65
141.79
115.54
77.93
35.15
-5.39
-37.43
-57.79
-66.71
-66.98
-62.31
-55.82
-49.47
-44.16
-40.27
-37.92
-37.08
-37.32
-37.76
-37.26
-34.86
-30.18
-23.53
-15.71
-7.51
0.68
9.07
18.32
29.19
42.23
57.60
74.97
93.58
112.37
130.17
146.09
159.99
172.55
184.92
197.84
211.02
223.05
232.22
237.74
240.72
243.98
250.73
262.69
278.71
294.77
305.38
305.77
293.73
270.29
239.10
204.84
171.63
141.90
116.17
93.63
72.87
52.74
32.89
13.56
-4.77
-21.80
-37.80
-53.70
-70.90
-91.09
-116.22
-148.47
-189.73
-240.48
-298.34
-357.41
-409.17
-445.05
-459.81
-453.89
-433.43
-407.75
-385.53
-371.66
-366.13
-365.21
-363.75
-357.42
-343.73
-322.06
-293.14
-258.57
-220.41
-180.85
-141.66
-103.72
-67.19
-31.75
2.81
36.17
67.50
95.89
120.64
141.43
158.12
170.49
178.08
180.28
176.51
166.42
150.08
127.99
101.08
70.67
38.48
6.56
-22.85
-47.41
-64.91
-73.64
-72.75
-62.62
-44.93
-22.47
1.56
24.25
43.50
58.22
68.07
73.06
73.27
68.89
60.34
48.50
34.68
20.30
6.58
-5.77
-16.45
-25.43
-32.76
-38.53
-43.02
-46.72
-50.29
-54.25
-58.52
-62.38
-64.66
-64.29
-60.81
-54.63
-46.67
-37.99
-29.30
-20.88
-12.74
-4.86
2.66
9.66
16.12
22.21
28.11
33.89
39.30
43.89
47.24
49.18
49.84
49.56
48.71
47.61
46.45
45.34
44.35
43.37
42.15
40.28
37.33
33.19
28.16
22.97
18.44
15.15
13.09
11.69
10.15
7.83
4.60
0.77
-3.11
-6.69
-9.95
-13.21
-16.96
-21.54
-27.12
-33.66
-40.96
-48.65
-56.06
-62.24
-66.12
-66.86
-64.17
-58.47
-50.71
-42.04
-33.34
-25.04
-17.09
-9.26
-1.37
6.57
14.32
21.59
28.16
33.95
38.98
43.23
46.54
48.71
49.58
49.19
47.91
46.27
44.86
43.98
43.60
43.36
42.81
41.60
39.67
37.23
34.63
32.27
30.40
29.04
28.00
26.93
25.44
23.25
20.34
16.92
13.41
10.26
7.73
5.86
4.46
3.26
2.02
0.64
-0.88
-2.51
-4.27
-6.18
-8.12
-9.73
-10.45
-9.68
-7.09
-2.90
2.22
7.31
11.55
14.55
16.41
17.61
18.61
19.62
20.53
20.99
20.75
19.75
18.22
16.48
14.78
13.07
11.07
8.46
5.06
1.10
-2.88
-6.16
-8.17
-8.68
-7.90
-6.40
-4.87
-3.89
-3.79
-4.53
-5.73
-6.90
-7.56
-7.52
-6.95
-6.38
-6.46
-7.71
-10.22
-13.43
-16.27
-17.40
-15.76
-11.05
-4.01
3.64
9.84
12.86
12.03
7.96
2.37
-2.35
-3.77
0.20
11.03
29.43
55.35
87.97
125.92
167.64
211.89
257.91
304.96
351.54
394.62
429.78
452.37
459.35
450.80
430.27
403.56
376.67
353.78
336.40
323.77
314.11
305.87
298.23
290.88
283.40
274.88
264.12
249.88
231.59
209.61
185.02
159.33
133.85
109.39
86.16
63.89
41.86
19.30
-4.36
-29.30
-55.21
-81.36
-106.77
-130.59
-152.38
-172.69
-192.81
-214.22
-237.92
-263.88
-290.88
-316.87
-339.85
-358.57
-373.92
-388.08
-403.44
-421.57
-442.94
-467.51
-495.26
-526.06
-558.63
-591.17
-619.61
-638.12
-640.79
-623.94
-587.93
-536.66
-475.46
-408.83
-341.90
-278.77
-222.98
-177.68
-145.66
-128.71
-126.13
-133.34
-142.28
-147.29
-145.71
-139.27
-133.36
-134.45
-147.51
-173.47
-208.37
-225.48
-203.46
-134.55
-30.95
82.87
185.25
266.19
326.32
371.11
406.08
431.13
443.89
442.61
428.85
407.61
385.26
367.00
355.40
350.28
347.34
341.75
330.29
313.02
293.02
274.38
260.47
252.37
249.66
249.29
247.84
242.81
233.49
220.62
204.92
190.10
177.31
166.61
156.74
146.27
134.29
120.88
106.95
93.65
82.01
72.07
63.73
56.51
49.92
43.63
37.59
31.99
27.11
23.24
20.14
17.70
15.80
13.92
11.64
8.75
5.31
1.45
-2.62
-6.88
-11.20
-15.44
-19.95
-25.10
-31.20
-38.36
-46.54
-55.53
-65.00
-74.41
-83.18
-91.89
-101.15
-111.37
-122.72
-135.27
-149.04
-163.77
-178.71
-192.71
-207.22
-223.15
-240.56
-259.17
-279.45
-302.61
-329.23
-357.75
-383.97
-407.26
-425.24
-434.47
-432.32
-419.65
-401.00
-382.12
-367.15
-357.23
-358.91
-373.31
-395.28
-415.81
-428.06
-431.37
-430.89
-435.02
-451.90
-496.52
-573.05
-671.54
-771.46
-852.24
-901.80
-918.62
-909.52
-819.20
-632.77
-379.33
-116.54
108.00
275.25
387.46
455.47
491.77
507.98
501.20
475.00
436.74
396.50
361.93
335.37
315.72
301.42
292.06
280.58
262.48
238.71
214.52
194.63
180.53
171.30
165.49
162.23
156.22
144.83
128.88
112.03
97.70
87.29
80.62
76.99
75.78
74.03
69.98
63.57
56.27
49.78
45.13
42.78
42.89
45.37
48.91
52.23
54.58
55.91
56.74
57.90
60.44
65.34
73.17
83.69
95.92
108.45
119.97
129.80
138.14
146.11
155.45
168.13
185.70
208.49
234.82
260.71
280.63
289.27
283.72
265.05
238.35
210.93
189.57
178.05
176.29
181.19
188.76
196.14
202.72
210.03
220.75
237.51
261.79
293.19
329.07
364.66
393.98
411.24
412.45
396.72
366.66
327.68
286.38
248.62
217.88
194.57
176.52
160.33
143.03
123.07
100.33
75.23
47.79
17.29
-17.10
-55.20
-95.00
-133.05
-165.95
-192.09
-212.64
-230.92
-250.77
-274.60
-302.47
-332.31
-361.04
-385.63
-403.53
-412.65
-411.19
-397.99
-373.21
-338.95
-299.24
-258.88
-221.92
-190.17
-162.91
-137.78
-112.29
-85.12
-56.68
-28.49
-2.19
21.38
42.34
61.36
78.79
94.09
105.79
112.01
111.20
102.87
87.65
67.17
43.49
18.67
-5.47
-27.30
-45.32
-58.09
-64.42
-63.56
-55.61
-41.64
-23.72
-4.61
12.80
26.13
34.09
36.61
34.64
29.67
23.17
16.28
9.77
4.18
-0.04
-2.63
-3.66
-3.70
-3.69
-4.63
-7.26
-11.73
-17.79
-24.93
-32.75
-41.09
-50.08
-59.97
-70.77
-82.02
-92.61
-100.79
-104.70
-102.90
-94.89
-81.28
-63.52
-43.38
-22.49
-1.99
17.36
35.08
50.75
63.93
74.25
81.42
85.40
86.35
84.74
81.34
77.08
72.86
69.34
66.77
65.09
64.04
63.38
62.91
62.50
61.96
61.19
60.15
58.99
58.03
57.59
57.88
58.86
60.27
61.67
62.58
62.61
61.61
59.73
57.43
55.34
54.02
53.76
54.42
55.41
55.82
54.63
50.89
43.84
32.95
17.98
-0.78
-22.15
-43.91
-62.89
-75.73
-79.94
-74.82
-61.80
-43.97
-24.94
-7.73
5.73
14.50
17.91
15.23
5.69
-10.71
-32.81
-58.11
-83.52
-106.46
-125.47
-140.15
-150.31
-155.25
-153.58
-144.03
-126.77
-104.12
-80.30
-59.87
-45.75
-37.71
-32.37
-24.55
-9.56
14.82
47.56
84.86
121.59
152.64
173.99
183.35
180.58
168.03
150.25
132.96
120.97
116.16
116.10
114.83
105.62
84.67
53.85
21.06
-2.12
-4.72
19.42
69.10
135.87
206.82
268.57
311.21
330.53
328.20
309.89
282.62
252.41
223.20
197.05
174.86
157.11
143.91
134.61
127.50
120.00
109.60
94.81
75.71
53.76
30.95
8.57
-13.68
-37.74
-66.21
-100.55
-139.56
-178.90
-212.07
-232.91
-238.19
-229.09
-210.67
-189.67
-171.66
-159.19
-151.78
-147.61
-145.63
-146.84
-153.82
-169.01
-192.90
-223.15
-255.28
-284.27
-306.10
-318.55
-320.70
-312.19
-292.77
-262.73
-223.85
-179.99
-136.74
-99.79
-72.95
-56.92
-49.25
-46.03
-43.80
-41.08
-38.58
-38.08
-40.90
-46.69
-53.37
-57.94
-57.80
-51.75
-40.10
-24.07
-4.87
16.97
41.49
68.61
97.34
125.42
149.84
167.82
177.92
180.48
177.42
171.28
164.15
156.88
148.81
138.19
123.01
102.01
75.48
45.75
16.93
-6.04
-18.75
-18.58
-5.49
18.09
48.06
79.73
108.82
132.19
148.07
156.21
157.85
155.55
152.58
151.94
155.08
161.02
166.36
166.39
156.95
136.18
105.20
67.68
28.31
-9.04
-42.35
-71.81
-99.44
-128.37
-161.85
-201.98
-248.31
-296.96
-340.92
-371.93
-383.43
-373.09
-343.85
-302.48
-256.76
-212.61
-172.57
-136.28
-101.86
-67.35
-30.95
9.11
54.48
105.75
160.94
214.75
259.55
287.96
295.71
283.64
257.26
224.51
192.68
166.21
146.05
130.45
116.43
100.82
80.77
53.98
18.92
-24.65
-75.25
-129.59
-183.04
-230.40
-267.19
-290.82
-301.36
-301.48
-295.38
-287.03
-278.58
-269.68
-258.36
-242.81
-223.07
-201.61
-182.33
-168.53
-161.17
-158.41
-156.72
-152.86
-145.53
-135.59
-125.33
-116.96
-111.54
-108.62
-106.82
-104.53
-100.67
-94.82
-86.95
-77.05
-64.82
-49.69
-31.15
-9.18
15.57
41.97
68.94
95.88
122.92
150.58
179.10
207.80
234.83
257.52
273.09
279.59
276.46
264.78
247.00
226.28
205.68
187.32
171.90
158.61
145.54
130.53
112.15
90.28
66.33
42.76
22.43
7.78
0.27
-0.01
5.71
15.15
25.69
35.13
42.30
47.22
50.82
54.25
58.33
63.02
67.63
71.01
72.05
69.94
64.31
55.19
42.93
27.90
10.24
-10.18
-33.44
-58.91
-84.69
-107.60
-124.00
-131.11
-128.20
-116.89
-100.36
-81.92
-63.72
-46.36
-29.56
-13.14
2.29
15.47
25.27
31.37
34.38
35.32
34.90
33.05
29.05
22.10
11.88
-1.17
-16.08
-31.64
-46.77
-60.47
-71.73
-79.52
-82.87
-81.23
-74.74
-64.33
-51.47
-37.78
-24.59
-12.64
-2.09
7.08
14.90
21.21
25.84
28.84
30.67
32.03
33.57
35.52
37.59
39.20
39.78
39.16
37.57
35.45
33.17
30.88
28.47
25.87
23.12
20.39
17.87
15.63
13.60
11.66
9.69
7.61
5.38
2.93
0.18
-2.86
-6.02
-9.08
-11.83
-14.30
-16.80
-19.85
-23.98
-29.48
-36.21
-43.67
-51.01
-57.24
-61.42
-62.85
-61.27
-56.98
-50.85
-43.99
-37.46
-31.87
-27.29
-23.29
-19.36
-15.16
-10.69
-6.20
-1.99
1.81
5.28
8.57
11.78
14.73
17.05
18.32
18.31
17.27
15.81
14.74
14.70
15.78
17.55
19.22
20.05
19.70
18.44
16.88
15.64
14.98
14.63
14.00
12.49
9.89
6.46
2.86
-0.23
-2.39
-3.70
-4.68
-6.02
-8.33
-11.80
-16.20
-20.86
-24.77
-26.83
-26.03
-21.80
-14.17
-3.90
7.65
18.95
28.85
36.94
43.68
50.07
57.15
65.52
75.13
85.39
95.47
104.58
112.23
118.26
122.89
126.59
129.78
132.60
134.56
134.45
130.59
121.34
105.70
83.74
56.64
26.36
-4.82
-34.91
-62.42
-86.42
-106.30
-121.57
-131.80
-136.76
-136.64
-132.22
-124.74
-115.55
-105.64
-95.36
-84.54
-72.99
-61.01
-49.68
-40.48
-34.64
-32.47
-33.01
-34.35
-34.38
-31.61
-25.64
-17.09
-7.20
2.90
12.47
21.40
29.93
38.31
46.63
54.73
62.31
69.07
74.85
79.57
83.17
85.59
86.67
86.35
84.63
81.69
77.85
73.47
68.91
64.45
60.22
56.20
52.28
48.27
44.08
39.71
35.36
31.26
27.66
24.64
22.09
19.76
17.24
14.17
10.34
5.83
0.91
-3.99
-8.50
-12.44
-15.88
-19.14
-22.57
-26.42
-30.69
-35.04
-38.83
-41.24
-41.50
-39.15
-34.24
-27.27
-19.09
-10.58
-2.37
5.28
12.47
19.42
26.25
32.82
38.80
43.76
47.38
49.55
50.34
50.02
48.82
46.95
44.50
41.47
37.90
33.91
29.69
25.46
21.37
17.45
13.65
9.87
6.09
2.37
-1.10
-4.15
-6.64
-8.55
-9.99
-11.08
-12.00
-12.82
-13.56
-14.16
-14.55
-14.65
-14.43
-13.99
-13.48
-13.18
-13.36
-14.21
-15.78
-17.88
-20.06
-21.68
-22.05
-20.60
-17.10
-11.70
-5.00
2.21
9.09
15.08
19.94
23.76
26.75
29.08
30.73
31.52
31.21
29.76
27.36
24.41
21.39
18.61
16.15
13.89
11.69
9.58
7.73
6.43
5.79
5.67
5.68
5.37
4.44
2.88
0.94
-1.03
-2.76
-4.16
-5.33
-6.45
-7.66
-9.04
-10.55
-12.07
-13.46
-14.61
-15.50
-16.17
-16.76
-17.43
-18.39
-19.83
-21.94
-24.82
-28.38
-32.27
-35.87
-38.45
-39.36
-38.28
-35.29
-30.80
-25.43
-19.71
-14.01
-8.48
-3.12
2.06
7.02
11.52
15.31
18.06
19.56
19.81
19.00
17.47
15.64
13.85
12.28
10.99
9.93
9.00
8.18
7.43
6.72
5.95
5.01
3.83
2.48
1.12
-0.07
-1.01
-1.85
-2.85
-4.30
-6.35
-8.93
-11.76
-14.51
-16.86
-18.65
-19.85
-20.48
-20.66
-20.49
-20.18
-19.92
-19.94
-20.41
-21.45
-23.08
-25.26
-27.83
-30.47
-32.76
-34.18
-34.30
-32.88
-30.01
-26.04
-21.47
-16.74
-12.12
-7.69
-3.39
0.75
4.60
7.85
10.19
11.44
11.64
11.09
10.21
9.39
8.84
8.59
8.50
8.42
8.23
7.88
7.38
6.73
5.95
5.01
3.92
2.73
1.59
0.65
-0.00
-0.37
-0.58
-0.76
-0.99
-1.19
-1.21
-0.87
-0.16
0.74
1.55
1.98
1.90
1.39
0.66
-0.06
-0.65
-1.18
-1.84
-2.88
-4.46
-6.63
-9.30
-12.17
-14.84
-16.83
-17.65
-16.94
-14.57
-10.71
-5.74
-0.26
5.15
10.01
14.04
17.13
19.36
20.87
21.79
22.20
22.12
21.53
20.41
18.82
16.89
14.84
12.86
11.10
9.55
8.17
6.87
5.60
4.39
3.34
2.54
2.00
1.64
1.30
0.82
0.12
-0.77
-1.73
-2.58
-3.23
-3.63
-3.85
-4.02
-4.26
-4.66
-5.28
-6.13
-7.22
-8.54
-10.05
-11.64
-13.16
-14.48
-15.54
-16.40
-17.22
-18.25
-19.64
-21.32
-23.02
-24.21
-24.39
-23.16
-20.46
-16.58
-12.03
-7.41
-3.15
0.56
3.77
6.69
9.56
12.49
15.45
18.22
20.57
22.27
23.26
23.62
23.52
23.14
22.64
22.07
21.49
20.98
20.68
20.77
21.36
22.39
23.67
24.89
25.78
26.25
26.37
26.36
26.43
26.69
27.18
27.83
28.57
29.33
29.97
30.33
30.09
28.96
26.68
23.13
18.41
12.77
6.54
0.03
-6.56
-13.23
-20.09
-27.32
-34.96
-42.84
-50.47
-57.17
-62.25
-65.22
-65.96
-64.71
-61.90
-58.00
-53.35
-48.13
-42.49
-36.54
-30.51
-24.67
-19.26
-14.44
-10.25
-6.71
-3.83
-1.63
-0.09
0.88
1.48
1.91
2.24
2.35
1.98
0.86
-1.13
-3.74
-6.50
-8.87
-10.46
-11.21
-11.34
-11.27
-11.34
-11.66
-12.12
-12.50
-12.58
-12.33
-11.89
-11.53
-11.52
-12.02
-13.00
-14.26
-15.54
-16.59
-17.31
-17.71
-17.93
-18.15
-18.50
-19.07
-19.91
-21.04
-22.41
-23.86
-25.08
-25.65
-25.18
-23.43
-20.46
-16.61
-12.33
-8.03
-3.93
-0.02
3.83
7.74
11.70
15.54
18.97
21.67
23.43
24.21
24.16
23.57
22.79
22.07
21.54
21.15
20.78
20.34
19.79
19.26
18.88
18.77
18.93
19.20
19.32
19.01
18.05
16.38
14.07
11.32
8.39
5.53
2.91
0.61
-1.41
-3.27
-5.06
-6.83
-8.58
-10.23
-11.71
-12.96
-13.97
-14.78
-15.43
-16.08
-16.95
-18.29
-20.26
-22.75
-25.32
-27.32
-28.13
-27.37
-25.13
-21.83
-18.04
-14.23
-10.68
-7.42
-4.44
-1.74
0.61
2.51
3.95
4.97
5.75
6.46
7.32
8.45
9.94
11.76
13.79
15.86
17.79
19.49
20.95
22.24
23.43
24.49
25.31
25.68
25.45
24.53
23.02
21.13
19.09
17.10
15.29
13.67
12.22
10.87
9.52
8.10
6.55
4.86
3.06
1.24
-0.51
-2.15
-3.71
-5.32
-7.15
-9.29
-11.76
-14.33
-16.60
-18.13
-18.55
-17.75
-15.89
-13.37
-10.62
-7.95
-5.47
-3.08
-0.62
1.99
4.69
7.20
9.15
10.25
10.34
9.51
8.05
6.30
4.58
3.08
1.83
0.78
-0.11
-0.81
-1.21
-1.18
-0.68
0.25
1.37
2.38
3.00
3.06
2.57
1.72
0.72
-0.27
-1.20
-2.15
-3.24
-4.55
-6.09
-7.84
-9.78
-11.94
-14.39
-17.14
-20.17
-23.43
-26.88
-30.53
-34.43
-38.54
-42.64
-46.28
-48.85
-49.77
-48.69
-45.56
-40.72
-34.70
-28.09
-21.39
-14.93
-8.82
-3.11
2.18
6.98
11.19
14.69
17.46
19.57
21.14
22.37
23.37
24.14
24.60
24.63
24.19
23.31
22.10
20.66
19.06
17.30
15.29
12.97
10.36
7.57
4.77
2.11
-0.27
-2.33
-4.03
-5.38
-6.42
-7.22
-7.90
-8.64
-9.64
-11.04
-12.89
-15.13
-17.63
-20.30
-23.09
-26.06
-29.33
-33.06
-37.29
-41.80
-46.12
-49.52
-51.23
-50.71
-47.83
-42.88
-36.51
-29.43
-22.21
-15.20
-8.55
-2.29
3.52
8.82
13.55
17.63
20.98
23.58
25.39
26.51
27.10
27.42
27.69
28.05
28.53
29.03
29.45
29.66
29.57
29.05
28.00
26.31
24.00
21.20
18.16
15.22
12.61
10.49
8.86
7.63
6.66
5.84
5.08
4.34
3.64
2.99
2.42
1.95
1.57
1.27
1.00
0.74
0.48
0.21
-0.05
-0.29
-0.49
-0.63
-0.72
-0.77
-0.79
-0.81
-0.82
-0.84
-0.85
-0.87
-0.87
-0.85
-0.82
-0.78
-0.73
-0.69
-0.66
-0.63
-0.61
-0.60
-0.58
-0.56
-0.53
-0.50
-0.47
-0.45
-0.43
-0.42
-0.41
-0.40
-0.39
-0.39
-0.39
-0.39
-0.38
-0.38
-0.38
-0.38
-0.38
-0.38
-0.38
-0.38
-0.38
-0.38
-0.37
-0.37
-0.37
-0.37
-0.37
-0.37
-0.37
-0.37
-0.37
-0.37
-0.36
-0.36
-0.36
-0.36
-0.36
-0.36
-0.36
-0.36
-0.36
-0.36
-0.35
-0.35
-0.35
-0.35
-0.35
-0.35
-0.35
-0.35
-0.35
-0.35
-0.34
-0.34
-0.34
-0.34
-0.34
-0.34
-0.34
-0.34
-0.34
-0.34
-0.34
-0.33
-0.33
-0.33
-0.33
-0.33
-0.33
-0.33
-0.33
-0.33
-0.33
-0.33
-0.32
-0.32
-0.32
-0.32
-0.32
-0.32
-0.32
-0.32
-0.32
-0.32
-0.31
-0.31
-0.31
-0.31
-0.31
-0.31
-0.31
-0.31
-0.31
-0.31
-0.31
-0.31
-0.30
-0.30
-0.30
-0.30
-0.30
-0.30
-0.30
-0.30
-0.30
-0.30
-0.30
-0.30
-0.29
-0.29
-0.29
-0.29
-0.29
-0.29
-0.29
-0.29
-0.29
-0.29
-0.29
-0.29
-0.28
-0.28
-0.28
-0.28
-0.28
-0.28
-0.28
-0.28
-0.28
-0.28
-0.28
-0.28
-0.27
-0.27
-0.27
-0.27
-0.27
-0.27
-0.27
-0.27
-0.27
-0.26
-0.25
-0.25
-0.26
-0.29
-0.34
-0.39
-0.45
-0.50
-0.55
-0.60
-0.64
-0.69
-0.74
-0.78
-0.80
-0.82
-0.84
-0.87
-0.95
-1.09
-1.29
-1.53
-1.79
-2.01
-2.20
-2.34
-2.46
-2.60
-2.81
-3.11
-3.50
-3.93
-4.36
-4.73
-5.03
-5.30
-5.63
-6.08
-6.72
-7.51
-8.36
-9.17
-9.88
-10.51
-11.19
-12.08
-13.30
-14.87
-16.65
-18.43
-20.00
-21.29
-22.45
-23.73
-25.42
-27.65
-30.30
-33.11
-35.85
-38.46
-41.07
-43.80
-46.53
-48.74
-49.67
-48.56
-45.08
-39.43
-32.19
-24.10
-15.85
-8.15
-2.00
1.29
0.34
-5.52
-15.43
-26.77
-35.67
-38.31
-32.41
-18.07
2.32
25.02
46.32
63.63
75.77
82.81
85.50
84.81
81.78
77.49
72.94
68.77
64.92
60.38
53.47
42.59
26.94
7.16
-14.71
-35.85
-53.59
-66.21
-73.42
-76.24
-76.49
-76.19
-76.97
-79.57
-83.77
-88.42
-91.78
-92.08
-88.14
-79.74
-67.72
-53.63
-39.13
-25.58
-13.71
-3.68
4.68
11.72
17.89
23.68
29.57
35.86
42.50
49.05
54.90
59.61
63.17
65.97
68.56
71.18
73.66
75.57
76.65
77.23
78.15
80.27
83.81
87.80
90.22
88.62
81.10
67.02
47.35
24.14
-0.11
-23.32
-44.20
-62.26
-77.40
-89.55
-98.48
-103.92
-105.97
-105.42
-103.80
-103.02
-104.76
-109.93
-118.48
-129.53
-141.68
-153.38
-163.12
-169.42
-170.92
-166.59
-156.21
-140.80
-122.57
-104.27
-88.01
-74.05
-60.45
-43.89
-21.38
7.89
41.75
75.71
104.97
126.30
139.18
145.20
146.68
145.32
141.79
136.26
129.30
122.25
116.86
114.42
115.09
117.88
121.26
123.97
125.51
126.07
126.12
126.02
125.89
125.64
125.32
125.25
126.17
129.29
136.19
148.32
166.23
188.65
212.03
230.82
238.82
231.09
205.77
164.87
113.68
58.94
6.73
-39.05
-77.03
-107.65
-131.93
-150.73
-164.40
-173.14
-177.39
-177.91
-175.60
-171.29
-165.56
-158.96
-152.21
-146.30
-142.22
-140.42
-140.35
-140.43
-138.52
-132.70
-122.02
-106.90
-88.88
-70.10
-52.58
-37.75
-26.30
-18.15
-12.75
-9.16
-6.28
-2.97
1.76
8.44
17.00
26.65
36.14
44.14
49.68
52.51
53.08
52.19
50.52
48.18
44.62
38.93
30.42
19.21
6.48
-5.67
-14.72
-18.36
-15.17
-5.01
11.06
31.06
52.86
74.76
95.84
115.75
134.21
150.41
162.81
169.55
169.26
161.93
149.36
134.83
122.23
114.91
114.84
122.36
136.29
154.29
173.34
190.02
200.98
203.58
196.56
180.45
157.68
131.87
106.97
86.34
72.06
64.64
63.00
64.57
65.66
62.04
49.93
27.04
-6.64
-48.80
-95.59
-142.79
-187.05
-226.50
-260.61
-289.69
-314.18
-334.22
-349.62
-359.90
-364.54
-363.17
-355.69
-342.42
-324.10
-301.81
-276.75
-249.90
-221.75
-192.33
-161.50
-129.47
-97.22
-66.44
-39.01
-16.33
1.24
14.34
24.17
31.69
37.25
40.57
41.24
39.36
35.79
31.89
29.04
27.96
28.54
29.95
31.05
30.86
28.88
25.28
20.75
16.33
13.08
11.69
12.19
13.87
15.49
15.71
13.74
9.67
4.61
0.21
-1.91
-0.85
3.20
9.04
14.94
19.19
20.61
18.70
13.67
6.19
-2.63
-11.49
-19.04
-24.09
-25.92
-24.42
-20.05
-13.65
-6.11
1.83
9.70
17.15
23.93
29.81
34.64
38.43
41.33
43.56
45.28
46.49
47.06
46.88
45.97
44.63
43.35
42.59
42.63
43.43
44.66
45.90
46.79
47.15
47.03
46.58
45.96
45.25
44.44
43.43
42.14
40.53
38.67
36.73
34.98
33.61
32.62
31.86
31.05
29.98
28.56
26.84
24.91
22.83
20.65
18.48
16.71
15.97
17.03
20.54
26.79
35.62
46.47
58.69
71.77
85.47
99.73
114.54
129.69
144.74
159.10
172.19
183.69
193.61
202.11
209.45
215.76
221.21
226.14
231.32
237.70
245.84
255.15
263.34
266.70
261.12
243.64
213.69
173.42
126.83
78.38
31.51
-12.15
-52.57
-90.71
-127.82
-165.15
-203.84
-244.76
-287.98
-332.10
-373.89
-408.83
-432.32
-441.33
-435.60
-417.75
-392.18
-363.54
-335.22
-308.81
-284.34
-261.14
-238.59
-216.45
-194.82
-173.84
-153.46
-133.49
-113.71
-94.06
-74.70
-56.04
-38.51
-22.54
-8.37
4.05
14.93
24.62
33.38
41.25
48.10
53.69
57.89
60.73
62.41
63.18
63.19
62.51
61.14
59.12
56.61
53.77
50.71
47.42
43.81
39.85
35.56
31.08
26.52
21.94
17.34
12.78
8.49
4.86
2.30
0.85
0.07
-0.96
-3.27
-7.48
-13.50
-20.53
-27.34
-32.75
-36.00
-36.84
-35.39
-31.97
-26.91
-20.56
-13.30
-5.62
1.97
9.10
15.55
21.38
26.79
31.93
36.84
41.36
45.20
48.10
49.95
50.89
51.25
51.42
51.61
51.84
51.93
51.61
50.73
49.26
47.37
45.29
43.24
41.37
39.68
38.09
36.46
34.67
32.68
30.54
28.38
26.33
24.39
22.46
20.38
18.03
15.42
12.67
9.95
7.36
4.94
2.64
0.48
-1.44
-2.98
-3.99
-4.39
-4.14
-3.19
-1.47
1.08
4.43
8.35
12.44
16.25
19.44
21.90
23.73
25.18
26.47
27.63
28.47
28.65
27.85
25.91
22.98
19.47
15.90
12.71
10.07
7.85
5.76
3.56
1.25
-0.98
-2.82
-4.11
-4.94
-5.56
-6.27
-7.14
-8.04
-8.64
-8.68
-8.11
-7.09
-5.97
-5.09
-4.69
-4.83
-5.49
-6.58
-8.00
-9.59
-11.20
-12.76
-14.28
-15.95
-18.06
-20.82
-24.15
-27.59
-30.36
-31.58
-30.56
-27.03
-21.29
-14.00
-6.05
1.73
8.77
14.82
19.90
24.17
27.85
31.09
33.90
36.20
37.82
38.64
38.61
37.83
36.57
35.18
34.01
33.38
33.40
34.05
35.09
36.12
36.63
36.09
34.09
30.55
25.79
20.53
15.68
12.06
10.14
9.88
10.76
11.91
12.42
11.46
8.50
3.38
-3.63
-11.90
-20.62
-28.99
-36.49
-42.95
-48.44
-53.10
-56.85
-59.29
-59.84
-57.90
-53.21
-46.01
-37.11
-27.69
-19.08
-12.39
-8.19
-6.38
-6.14
-6.27
-5.56
-3.26
0.60
5.17
9.17
11.30
10.78
7.54
2.24
-4.15
-10.66
-16.58
-21.60
-25.59
-28.53
-30.33
-30.91
-30.30
-28.77
-26.83
-25.04
-23.82
-23.23
-22.95
-22.48
-21.43
-19.71
-17.57
-15.46
-13.78
-12.74
-12.26
-12.07
-11.88
-11.53
-10.98
-10.33
-9.77
-9.49
-9.68
-10.50
-12.06
-14.30
-16.94
-19.44
-21.08
-21.16
-19.23
-15.27
-9.75
-3.45
2.80
8.38
13.00
16.69
19.67
22.16
24.31
26.13
27.59
28.61
29.12
29.12
28.66
27.84
26.80
25.71
24.66
23.74
22.94
22.20
21.44
20.59
19.58
18.37
16.93
15.28
13.53
11.86
10.53
9.69
9.42
9.59
9.97
10.27
10.28
9.91
9.22
8.35
7.46
6.72
6.25
6.12
6.24
6.43
6.45
6.08
5.26
4.01
2.49
0.82
-0.78
-2.09
-2.81
-2.54
-0.97
2.04
6.33
11.44
16.79
21.76
25.93
29.05
31.05
31.94
31.82
30.88
29.50
28.30
28.09
29.56
32.94
37.68
42.46
45.64
45.96
43.13
38.02
32.32
27.66
24.94
24.04
24.09
24.20
23.90
23.25
22.43
21.35
19.52
16.36
11.65
5.86
0.02
-4.78
-7.98
-9.76
-10.91
-12.39
-14.91
-18.70
-23.57
-29.12
-34.91
-40.59
-45.94
-50.85
-55.20
-58.79
-61.25
-62.11
-60.96
-57.78
-53.04
-47.56
-42.20
-37.45
-33.28
-29.23
-24.78
-19.75
-14.43
-9.44
-5.37
-2.52
-0.73
0.52
1.82
3.53
5.63
7.74
9.30
9.89
9.40
8.08
6.39
4.78
3.47
2.37
1.18
-0.42
-2.63
-5.43
-8.52
-11.52
-14.01
-15.75
-16.67
-16.98
-16.99
-17.03
-17.29
-17.74
-18.24
-18.60
-18.70
-18.50
-18.04
-17.36
-16.56
-15.89
-15.69
-16.37
-18.11
-20.71
-23.45
-25.31
-25.29
-22.90
-18.32
-12.37
-6.17
-0.70
3.61
6.91
9.81
12.98
16.88
21.48
26.35
30.80
34.25
36.39
37.30
37.29
36.73
35.82
34.59
32.99
31.06
29.03
27.23
25.96
25.34
25.27
25.48
25.78
26.05
26.33
26.71
27.17
27.62
27.86
27.68
26.92
25.53
23.56
21.17
18.60
16.09
13.80
11.71
9.68
7.44
4.77
1.53
-2.30
-6.71
-11.64
-17.02
-22.74
-28.58
-34.14
-38.97
-42.60
-44.74
-45.36
-44.69
-43.00
-40.59
-37.59
-33.98
-29.71
-24.75
-19.16
-13.10
-6.80
-0.44
5.84
11.95
17.85
23.48
28.69
33.25
36.84
39.18
40.04
39.35
37.23
33.88
29.58
24.59
19.17
13.62
8.35
3.83
0.54
-1.24
-1.53
-0.68
0.77
2.19
3.16
3.59
3.72
4.02
4.98
6.83
9.44
12.39
15.16
17.36
18.85
19.61
19.54
18.28
15.28
10.06
2.48
-7.06
-17.73
-28.46
-38.27
-46.44
-52.58
-56.51
-58.32
-58.18
-56.35
-53.14
-48.77
-43.42
-37.33
-30.81
-24.32
-18.33
-13.13
-8.74
-4.98
-1.58
1.58
4.44
6.90
8.93
10.76
12.78
15.32
18.50
22.10
25.62
28.51
30.54
31.80
32.75
33.90
35.61
38.04
41.29
45.51
50.96
57.95
66.68
77.12
89.08
102.16
115.84
129.57
142.91
155.60
167.62
178.85
188.86
196.60
200.37
198.30
188.90
171.56
146.73
115.79
80.66
43.54
6.55
-28.62
-61.14
-91.23
-120.00
-148.82
-178.39
-208.27
-236.96
-262.59
-283.73
-299.74
-310.57
-316.35
-316.93
-312.07
-301.82
-286.96
-269.10
-250.26
-232.17
-215.76
-200.95
-186.84
-172.27
-156.35
-138.70
-119.50
-99.22
-78.29
-56.98
-35.38
-13.58
8.16
29.34
49.31
67.46
83.30
96.56
107.02
114.57
119.13
120.78
119.86
116.98
112.96
108.57
104.35
100.32
95.97
90.24
81.89
69.94
54.21
35.56
15.88
-2.36
-16.65
-25.15
-27.16
-23.36
-15.75
-7.22
-0.82
1.15
-2.07
-9.38
-18.12
-25.03
-27.42
-24.03
-15.25
-2.66
11.65
25.67
37.68
46.28
50.41
49.51
43.87
34.70
23.95
13.75
5.77
0.82
-1.25
-1.20
-0.04
1.34
2.33
2.70
2.56
2.29
2.46
3.46
5.37
7.78
9.96
11.22
11.24
10.20
8.58
6.84
5.17
3.53
1.91
0.49
-0.29
-0.04
1.27
3.25
5.25
6.80
7.88
8.89
10.35
12.57
15.45
18.67
21.99
25.46
29.41
34.16
39.75
45.80
51.68
56.81
60.99
64.46
67.82
71.65
76.21
81.23
85.92
89.13
89.51
85.64
76.22
60.36
38.02
10.44
-19.82
-49.30
-74.61
-93.43
-105.21
-111.12
-113.29
-113.72
-113.47
-112.36
-109.42
-103.75
-95.30
-85.15
-75.29
-67.81
-63.98
-63.50
-64.31
-63.23
-57.08
-43.98
-24.16
0.24
26.22
51.30
74.65
97.02
120.15
145.68
174.51
206.47
240.41
273.94
303.22
323.33
330.12
322.83
306.29
290.50
286.93
303.04
337.94
381.87
420.33
440.63
437.17
412.83
375.94
335.12
295.36
257.15
218.67
178.86
139.17
103.08
74.00
53.11
38.62
26.45
12.24
-6.80
-30.86
-57.74
-84.12
-107.18
-125.90
-141.33
-156.09
-172.99
-193.90
-219.14
-247.77
-278.40
-309.79
-340.86
-370.04
-394.79
-411.58
-417.01
-409.23
-389.09
-360.01
-326.72
-293.40
-262.38
-233.96
-207.31
-181.72
-157.38
-135.17
-115.94
-99.74
-85.71
-72.51
-59.14
-45.44
-32.16
-20.45
-11.18
-4.50
0.22
4.01
7.73
11.62
15.13
17.10
16.23
11.78
3.92
-6.09
-16.27
-24.60
-29.85
-31.99
-32.10
-31.73
-32.09
-33.52
-35.40
-36.69
-36.56
-34.83
-31.93
-28.60
-25.43
-22.72
-20.53
-18.93
-18.16
-18.46
-19.89
-22.04
-24.05
-24.97
-24.13
-21.53
-17.84
-14.12
-11.33
-9.99
-9.98
-10.73
-11.62
-12.20
-12.42
-12.49
-12.68
-13.08
-13.59
-13.95
-13.92
-13.43
-12.64
-11.86
-11.39
-11.40
-11.84
-12.47
-12.92
-12.86
-12.17
-10.92
-9.43
-8.13
-7.38
-7.32
-7.89
-8.85
-9.92
-10.88
-11.63
-12.19
-12.69
-13.30
-14.24
-15.66
-17.60
-19.85
-22.06
-23.77
-24.74
-25.05
-25.21
-25.84
-27.44
-29.99
-32.89
-35.11
-35.64
-33.92
-30.01
-24.53
-18.35
-12.22
-6.45
-0.88
4.90
11.33
18.49
26.04
33.30
39.46
43.97
46.71
48.09
48.88
49.85
51.48
53.82
56.54
59.28
61.91
64.60
67.73
71.59
76.16
81.04
85.68
89.59
92.60
94.91
96.90
98.98
100.93
102.45
103.40
104.08
105.16
107.58
112.31
119.93
130.36
142.25
153.77
163.15
169.05
170.80
168.32
162.14
153.41
143.82
134.25
125.74
119.11
114.56
111.13
106.90
99.78
88.69
74.12
55.04
31.87
6.49
-18.44
-40.84
-60.19
-77.27
-93.23
-108.75
-129.79
-160.06
-199.29
-243.56
-287.93
-329.30
-366.91
-401.25
-432.86
-471.31
-522.81
-587.26
-658.45
-728.32
-791.70
-847.57
-897.99
-946.34
-1007.84
-1091.73
-1195.57
-1304.96
-1400.46
-1466.73
-1497.27
-1494.56
-1390.25
-1156.99
-814.53
-423.99
-52.43
258.26
495.46
664.55
777.86
849.29
879.72
872.23
835.59
783.27
730.09
684.85
649.94
624.13
605.73
584.29
553.24
512.68
468.92
429.93
400.79
383.02
373.87
371.05
367.21
357.77
342.67
326.03
313.26
307.63
309.26
315.72
323.54
326.19
319.00
300.96
274.80
245.23
216.37
190.58
168.34
149.30
131.75
114.54
97.64
81.80
67.83
55.86
45.43
35.88
26.98
18.80
11.60
5.52
0.41
-4.19
-8.89
-14.12
-19.98
-26.13
-31.99
-37.05
-41.09
-44.31
-47.30
-50.78
-55.35
-61.18
-67.85
-74.33
-79.23
-81.20
-79.35
-73.55
-64.52
-53.58
-42.21
-31.66
-22.57
-14.97
-8.36
-2.02
4.64
11.83
19.29
26.41
32.50
37.08
40.05
41.68
42.40
42.50
42.12
41.17
39.61
37.60
35.49
33.70
32.47
31.76
31.21
30.32
28.68
26.16
22.97
19.53
16.30
13.59
11.43
9.67
7.99
6.14
3.97
1.46
-1.40
-4.57
-8.05
-11.84
-15.91
-20.24
-24.80
-29.62
-34.77
-40.24
-45.87
-51.20
-55.54
-58.07
-58.06
-55.09
-49.16
-40.72
-30.55
-19.53
-8.48
2.02
11.68
20.45
28.37
35.43
41.51
46.44
50.04
52.30
53.37
53.63
53.43
53.10
52.81
52.62
52.51
52.48
52.52
52.56
52.50
52.18
51.44
50.22
48.57
46.66
44.67
42.75
40.97
39.29
37.61
35.79
33.65
31.06
27.92
24.24
20.11
15.71
11.12
6.32
1.16
-4.49
-10.64
-17.08
-23.43
-29.39
-34.83
-39.90
-44.81
-49.51
-53.53
-55.96
-55.82
-52.52
-46.21
-37.73
-28.34
-19.17
-10.87
-3.49
3.25
9.65
15.76
21.31
25.94
29.36
31.51
32.56
32.81
32.58
32.10
31.57
31.11
30.84
30.82
31.02
31.33
31.59
31.60
31.23
30.43
29.21
27.64
25.77
23.65
21.28
18.69
15.98
13.27
10.77
8.58
6.68
4.87
2.83
0.25
-3.05
-7.00
-11.28
-15.44
-19.07
-21.92
-24.01
-25.60
-27.10
-29.03
-31.82
-35.66
-40.40
-45.44
-49.82
-52.46
-52.42
-49.34
-43.45
-35.58
-26.80
-18.05
-9.89
-2.47
4.35
10.78
16.91
22.66
27.89
32.45
36.24
39.24
41.48
43.00
43.85
44.14
43.97
43.48
42.78
41.90
40.83
39.50
37.84
35.84
33.58
31.24
29.02
27.03
25.26
23.54
21.68
19.53
17.15
14.74
12.54
10.70
9.13
7.52
5.46
2.64
-0.99
-5.13
-9.26
-12.78
-15.28
-16.68
-17.34
-17.96
-19.49
-22.79
-28.36
-36.08
-45.08
-53.83
-60.45
-63.17
-60.81
-53.13
-40.92
-25.67
-9.25
6.61
20.64
32.12
40.88
47.18
51.59
54.86
57.72
60.67
63.86
67.08
69.84
71.68
72.35
71.86
70.40
68.30
66.14
64.87
65.58
68.93
74.40
79.85
81.99
77.61
65.06
45.31
21.70
-1.36
-20.06
-32.48
-38.79
-40.50
-39.46
-37.08
-34.17
-31.24
-28.75
-27.16
-26.75
-27.42
-28.59
-29.29
-28.56
-25.72
-20.69
-14.06
-6.90
-0.37
4.72
8.36
11.38
15.13
20.92
29.47
40.57
53.22
65.95
77.42
86.71
93.45
97.72
99.77
99.89
98.31
95.31
91.28
86.67
81.86
76.98
71.84
65.97
59.00
50.89
42.08
33.42
25.82
19.99
16.22
14.59
14.93
16.68
18.60
18.66
14.47
4.20
-12.35
-33.26
-55.00
-73.64
-86.12
-91.08
-88.73
-80.35
-67.71
-53.05
-39.37
-30.17
-28.82
-37.39
-55.75
-81.40
-110.30
-138.01
-160.85
-176.57
-184.19
-183.79
-175.83
-160.63
-137.82
-106.42
-65.41
-15.06
41.81
99.40
149.92
186.00
203.37
202.56
188.48
168.19
148.11
131.96
120.57
112.88
107.75
105.08
105.77
111.17
122.59
140.87
166.21
197.71
232.70
266.53
293.15
306.84
304.58
287.79
262.15
235.41
214.20
201.34
195.21
191.23
184.53
172.23
154.16
132.12
108.21
83.74
59.07
34.31
10.30
-11.21
-28.07
-38.97
-44.33
-46.32
-47.96
-51.78
-58.69
-67.74
-76.91
-84.26
-89.14
-92.60
-97.00
-104.95
-118.18
-136.98
-160.21
-185.97
-212.49
-238.78
-264.93
-292.00
-321.91
-356.90
-398.54
-446.34
-496.51
-541.81
-573.04
-581.99
-564.53
-522.35
-462.40
-394.15
-326.03
-263.15
-206.84
-156.07
-109.44
-66.15
-25.57
14.10
56.41
105.42
163.07
226.72
288.52
337.52
363.62
361.35
331.48
280.08
216.05
148.62
86.12
35.93
4.32
-4.52
9.54
41.02
79.21
111.25
126.38
119.71
93.35
54.72
13.27
-23.07
-49.94
-66.72
-75.31
-78.66
-79.52
-79.93
-80.87
-82.69
-85.12
-87.94
-91.58
-97.62
-108.90
-129.08
-161.73
-208.99
-270.12
-340.67
-412.56
-475.66
-520.56
-541.46
-537.95
-514.90
-480.52
-443.20
-408.89
-380.00
-356.00
-335.06
-315.54
-296.44
-277.20
-257.06
-234.93
-209.72
-180.97
-149.18
-115.71
-82.39
-50.70
-21.33
6.00
32.28
58.73
86.23
114.99
144.68
174.86
205.43
236.58
268.31
299.63
328.20
350.72
364.06
366.57
358.84
343.48
324.00
303.55
284.11
266.43
250.50
236.18
223.41
212.07
201.76
191.74
181.20
169.62
157.10
144.29
132.17
121.63
113.06
106.31
100.72
95.49
90.03
84.15
78.19
72.80
68.59
65.84
64.37
63.58
62.68
60.97
58.07
54.07
49.38
44.55
39.99
35.86
32.02
28.16
24.09
19.78
15.53
11.74
8.76
6.69
5.32
4.17
2.67
0.38
-2.97
-7.31
-12.30
-17.34
-21.75
-24.85
-26.09
-25.25
-22.46
-18.21
-13.17
-8.00
-3.22
0.83
4.00
6.20
7.35
7.41
6.43
4.61
2.26
-0.30
-2.83
-5.23
-7.49
-9.58
-11.41
-12.73
-13.33
-13.00
-11.76
-9.78
-7.40
-4.99
-2.85
-1.19
-0.05
0.59
0.87
0.95
1.02
1.20
1.55
2.00
2.35
2.43
2.14
1.57
0.94
0.56
0.67
1.34
2.45
3.71
4.86
5.64
5.91
5.64
4.95
4.04
3.19
2.74
2.93
3.92
5.67
8.06
10.91
14.06
17.39
20.86
24.41
27.92
31.27
34.26
36.67
38.31
39.03
38.75
37.53
35.51
32.99
30.29
27.72
25.52
23.82
22.61
21.84
21.36
21.03
20.66
20.13
19.30
18.08
16.42
14.35
12.00
9.53
7.08
4.72
2.40
-0.03
-2.74
-5.77
-9.03
-12.24
-15.03
-17.06
-18.16
-18.39
-18.06
-17.65
-17.69
-18.68
-20.91
-24.36
-28.62
-33.00
-36.63
-38.69
-38.63
-36.26
-31.81
-25.78
-18.87
-11.76
-5.10
0.68
5.39
9.07
11.94
14.25
16.15
17.65
18.60
18.84
18.30
17.06
15.35
13.47
11.62
9.92
8.37
6.96
5.69
4.52
3.42
2.32
1.08
-0.49
-2.60
-5.32
-8.53
-11.86
-14.79
-16.86
-17.86
-17.96
-17.63
-17.45
-17.91
-19.19
-21.21
-23.70
-26.30
-28.68
-30.56
-31.75
-32.14
-31.82
-31.08
-30.34
-30.03
-30.37
-31.28
-32.36
-32.93
-32.37
-30.28
-26.65
-21.86
-16.49
-11.10
-6.00
-1.22
3.40
8.03
12.69
17.27
21.56
25.40
28.66
31.25
33.07
33.96
33.83
32.65
30.49
27.47
23.78
19.63
15.32
11.30
8.15
6.46
6.68
8.95
12.94
17.98
23.07
27.17
29.42
29.32
26.91
22.72
17.68
12.83
9.12
7.19
7.17
8.51
10.09
10.33
7.80
1.74
-7.45
-18.22
-28.25
-35.39
-38.36
-37.17
-32.77
-26.40
-18.96
-10.86
-2.34
6.08
13.36
18.32
20.22
19.36
17.02
14.96
14.60
16.38
19.79
23.80
27.55
30.74
33.59
36.58
40.01
43.79
47.49
50.46
52.05
51.82
49.65
45.77
40.68
35.01
29.26
23.72
18.43
13.26
8.08
2.90
-2.15
-6.87
-11.04
-14.50
-17.21
-19.21
-20.56
-21.39
-21.82
-22.00
-22.11
-22.37
-23.06
-24.48
-26.89
-30.45
-35.24
-41.22
-48.27
-56.04
-63.89
-70.83
-75.63
-77.19
-74.90
-68.93
-60.20
-50.04
-39.70
-30.00
-21.14
-12.94
-5.11
2.49
9.74
16.32
21.88
26.21
29.28
31.27
32.46
33.18
33.72
34.25
34.85
35.51
36.25
37.05
37.90
38.75
39.43
39.67
39.14
37.56
34.83
31.03
26.40
21.32
16.09
10.99
6.14
1.61
-2.61
-6.55
-10.28
-13.93
-17.65
-21.64
-26.02
-30.82
-35.98
-41.40
-46.99
-52.74
-58.78
-65.30
-72.49
-80.36
-88.69
-96.97
-104.47
-110.40
-114.11
-115.30
-114.13
-111.22
-107.68
-104.87
-104.26
-106.95
-113.30
-122.44
-132.05
-138.62
-138.03
-126.60
-102.22
-65.41
-19.57
29.53
75.05
110.81
132.75
139.81
133.78
118.34
97.85
76.18
56.09
39.07
25.51
15.00
6.68
-0.52
-7.34
-13.77
-19.13
-22.31
-22.34
-18.77
-12.00
-3.14
6.20
14.62
21.38
26.47
30.40
33.83
37.22
40.73
43.98
46.01
45.96
43.53
38.90
32.66
25.62
18.53
12.42
8.04
5.18
3.87
4.60
7.73
13.29
20.84
29.52
39.15
49.38
58.29
64.53
67.76
67.59
63.71
56.21
45.93
36.02
29.97
28.57
32.60
43.21
60.08
81.79
106.29
131.59
158.01
185.90
212.12
234.12
250.70
260.13
260.47
250.16
216.99
155.77
87.03
25.26
-23.43
-49.84
-46.39
-10.15
55.01
138.22
225.64
302.28
353.29
371.59
359.55
324.98
277.69
226.18
175.90
130.74
92.50
59.64
31.31
7.75
-12.04
-30.64
-51.47
-77.57
-109.54
-146.31
-186.96
-228.98
-268.53
-302.01
-326.65
-340.90
-344.72
-338.85
-324.74
-304.73
-280.66
-253.95
-226.42
-200.64
-179.51
-165.58
-159.96
-162.01
-169.73
-179.99
-189.49
-195.78
-197.75
-195.76
-191.31
-186.23
-181.88
-178.61
-175.68
-171.80
-165.82
-157.37
-146.92
-135.46
-124.01
-113.16
-102.85
-92.38
-80.69
-66.78
-50.34
-32.05
-13.61
2.85
15.67
24.40
30.06
34.71
40.34
47.98
57.15
66.05
72.47
74.76
72.54
66.68
58.81
50.46
42.43
34.67
26.58
17.71
8.20
-1.13
-9.28
-15.57
-20.06
-23.30
-25.74
-27.22
-26.95
-23.98
-17.96
-9.64
-0.61
7.47
13.88
19.38
25.94
35.84
50.41
69.17
89.73
108.51
121.86
127.21
123.77
112.55
95.74
76.04
55.90
37.21
21.17
8.36
-1.27
-8.27
-13.71
-18.86
-24.76
-31.71
-38.94
-44.79
-47.27
-45.03
-37.98
-27.32
-15.03
-2.93
7.93
17.51
26.29
34.72
42.73
49.80
55.27
58.78
60.38
60.39
59.15
56.93
54.06
51.14
49.00
48.37
49.46
51.69
53.85
54.66
53.31
49.82
44.86
39.24
33.53
27.81
21.90
15.74
9.56
3.83
-1.07
-5.21
-9.08
-13.28
-18.21
-23.76
-29.42
-34.65
-39.18
-43.25
-47.34
-51.91
-57.08
-62.64
-68.12
-72.99
-76.62
-78.30
-77.23
-72.76
-64.77
-53.86
-41.34
-28.79
-17.51
-8.05
-0.19
6.79
13.60
20.64
27.82
34.74
40.89
45.81
49.21
50.98
51.21
50.15
48.14
45.57
42.81
40.17
37.95
36.42
35.78
36.02
36.79
37.44
37.21
35.59
32.51
28.44
24.14
20.36
17.48
15.52
14.18
13.09
11.97
10.71
9.35
7.92
6.43
4.84
3.11
1.23
-0.79
-2.96
-5.41
-8.36
-12.07
-16.66
-21.95
-27.35
-32.01
-35.11
-36.23
-35.61
-33.98
-32.31
-31.36
-31.40
-32.17
-33.15
-33.75
-33.53
-32.13
-29.19
-24.33
-17.39
-8.64
0.93
9.71
15.94
18.41
16.96
12.71
7.65
3.87
2.84
4.93
9.47
15.28
21.22
26.71
31.81
37.02
42.87
49.66
57.28
65.27
73.00
79.91
85.71
90.41
94.36
98.01
101.76
105.68
109.42
112.23
113.15
111.44
106.93
100.61
94.53
91.48
94.31
104.81
122.66
144.98
166.82
182.66
188.21
181.84
165.09
142.07
117.89
96.87
81.10
69.89
60.28
48.39
30.99
6.75
-23.51
-57.39
-92.05
-125.32
-156.26
-184.99
-212.50
-240.35
-270.38
-304.20
-342.23
-382.20
-418.73
-444.21
-451.33
-435.85
-398.64
-345.37
-284.44
-223.89
-169.12
-122.29
-82.99
-49.55
-19.94
8.21
38.05
73.19
116.47
167.83
222.82
272.97
308.32
321.40
310.46
280.24
239.81
198.78
163.64
136.37
115.20
97.11
79.89
63.11
47.51
33.95
22.66
13.12
4.59
-3.53
-11.53
-19.35
-26.65
-32.97
-37.92
-41.27
-43.07
-43.58
-42.95
-41.16
-37.86
-32.64
-25.28
-16.07
-5.79
4.44
13.51
20.71
25.85
29.19
31.27
32.65
33.81
35.13
37.05
40.05
44.54
50.48
57.19
63.19
66.60
65.66
59.51
48.65
34.92
20.96
9.02
-0.08
-7.64
-16.75
-31.06
-53.07
-82.63
-116.60
-149.35
-174.31
-185.77
-180.42
-158.24
-122.29
-77.82
-31.05
11.83
45.55
66.06
70.92
59.48
32.80
-6.72
-56.08
-112.22
-172.03
-231.67
-285.92
-328.21
-351.92
-352.59
-329.93
-288.32
-235.36
-179.04
-125.02
-75.71
-30.96
10.25
48.33
83.06
114.67
145.21
178.51
218.46
265.98
317.00
362.56
391.41
394.59
368.99
318.38
251.27
177.20
103.76
35.82
-23.44
-71.21
-104.79
-122.88
-127.04
-122.00
-114.03
-108.31
-106.82
-108.17
-109.35
-107.79
-103.10
-96.93
-91.70
-88.88
-88.17
-87.81
-85.66
-80.48
-72.51
-63.48
-55.64
-50.70
-49.15
-50.18
-52.20
-53.46
-52.48
-48.09
-39.55
-26.51
-9.34
10.69
31.56
51.13
67.85
81.41
92.74
103.43
114.97
128.05
142.51
157.63
172.79
187.84
203.13
219.05
235.59
252.00
266.96
279.06
287.24
291.14
290.99
287.25
280.19
269.75
255.61
237.55
215.59
190.10
161.67
130.93
98.66
66.04
34.78
7.09
-14.82
-29.46
-36.59
-37.22
-33.02
-25.56
-15.78
-3.96
9.73
24.71
39.89
54.21
67.29
79.62
91.98
104.32
115.06
121.48
121.17
113.76
101.65
89.31
81.05
78.90
81.63
85.58
86.77
82.98
74.66
64.45
55.68
50.68
49.93
52.05
54.64
55.42
53.19
48.16
41.67
35.30
29.90
25.14
19.69
11.98
1.11
-12.78
-28.99
-47.17
-67.82
-91.74
-118.88
-147.39
-174.00
-195.48
-210.65
-221.46
-232.22
-247.57
-270.10
-299.10
-331.17
-362.30
-389.91
-413.81
-435.41
-456.01
-475.19
-490.52
-498.74
-497.46
-486.42
-467.48
-443.57
-417.19
-389.39
-359.89
-327.87
-293.02
-255.99
-218.05
-180.50
-144.11
-109.08
-75.25
-42.57
-11.47
16.87
40.30
56.15
62.28
58.70
48.52
37.38
31.04
32.30
39.44
46.90
48.25
39.89
22.88
2.18
-16.24
-28.58
-34.67
-37.05
-38.52
-39.97
-39.70
-34.56
-22.02
-1.86
23.45
49.57
71.88
87.04
93.86
93.16
86.83
76.84
64.69
51.59
38.82
27.91
20.37
17.03
17.51
20.30
23.43
25.46
26.23
26.97
29.66
36.23
47.70
63.72
82.45
100.81
115.16
122.29
120.75
111.74
99.18
88.51
84.69
90.17
103.89
121.72
138.11
148.04
148.61
139.54
122.72
101.30
78.57
57.16
38.56
23.11
10.28
-0.83
-11.00
-20.73
-30.15
-39.27
-48.01
-56.12
-62.97
-67.56
-68.82
-66.15
-59.84
-51.13
-41.84
-33.59
-27.28
-22.85
-19.46
-15.96
-11.40
-5.33
2.24
10.96
20.40
30.10
39.57
48.20
55.34
60.35
62.86
62.89
60.86
57.57
53.95
50.82
48.66
47.46
46.62
45.07
41.58
35.09
25.16
12.19
-2.70
-17.95
-32.07
-43.97
-53.13
-59.49
-63.30
-64.96
-65.04
-64.22
-63.29
-62.99
-63.80
-65.75
-68.34
-70.81
-72.39
-72.73
-72.11
-71.38
-71.57
-73.31
-76.38
-79.43
-80.12
-75.98
-65.47
-49.03
-29.30
-10.33
4.04
11.74
13.38
12.08
11.90
16.25
27.01
44.61
68.68
98.46
132.28
167.05
198.40
221.52
233.23
233.67
226.40
216.47
207.84
201.32
195.11
187.07
176.51
164.88
154.51
146.55
139.74
131.09
117.61
98.41
75.58
54.00
39.18
34.90
41.22
54.96
72.09
89.70
104.36
116.79
127.61
136.21
140.89
139.47
130.11
113.81
92.13
67.22
41.48
16.22
-8.48
-33.55
-60.46
-90.61
-124.65
-162.45
-202.52
-241.86
-276.91
-304.30
-321.79
-328.98
-327.30
-319.26
-307.65
-294.32
-279.67
-263.24
-244.36
-222.77
-198.96
-173.95
-148.94
-125.11
-103.39
-84.37
-68.45
-55.70
-45.87
-38.41
-32.51
-27.16
-21.31
-14.01
-4.60
6.89
19.70
32.42
43.45
51.60
56.53
58.89
60.05
61.47
64.00
67.62
71.63
75.00
76.96
77.27
76.30
74.85
73.84
74.07
76.30
81.35
89.95
102.38
117.98
134.91
150.35
161.26
165.19
161.36
151.21
137.95
125.66
118.12
117.85
125.68
140.63
159.62
178.81
194.64
204.57
207.25
202.39
190.67
173.80
154.50
134.55
115.75
99.50
86.35
75.39
64.29
50.25
31.39
7.71
-21.48
-55.69
-93.48
-132.63
-171.05
-207.36
-241.07
-272.06
-300.38
-329.34
-361.70
-398.31
-437.07
-474.24
-506.15
-530.87
-548.16
-538.45
-489.37
-399.25
-280.15
-151.65
-31.46
70.02
149.29
207.71
249.47
276.74
291.91
296.88
295.25
289.92
282.55
273.64
263.87
254.60
245.15
234.70
222.27
206.81
186.47
160.62
128.32
89.48
44.75
-6.21
-62.63
-121.59
-177.39
-222.79
-251.72
-261.43
-252.94
-230.73
-200.77
-166.92
-130.15
-90.21
-48.80
-11.95
11.44
14.13
-6.73
-47.20
-97.05
-143.73
-177.32
-193.84
-196.17
-190.55
-181.90
-172.92
-162.79
-147.72
-123.12
-86.15
-33.52
29.66
87.93
130.79
151.74
148.10
123.37
87.17
52.59
31.75
30.76
48.44
78.02
109.05
132.61
145.01
148.07
146.46
144.16
141.78
137.62
130.29
119.50
107.41
97.81
93.78
95.65
100.49
103.30
99.99
89.81
74.93
59.49
47.74
41.96
41.55
43.48
43.74
39.47
30.39
18.37
6.41
-2.79
-8.18
-10.78
-13.20
-18.52
-29.07
-45.67
-67.59
-92.86
-118.71
-142.02
-159.85
-169.98
-171.31
-164.14
-150.01
-131.17
-109.92
-87.93
-66.13
-44.78
-23.98
-3.96
14.79
31.70
46.39
58.87
69.56
79.04
87.82
96.11
103.86
110.74
116.55
121.31
125.39
129.30
133.34
137.30
140.42
141.67
140.25
136.05
129.77
122.64
115.95
110.53
106.47
103.13
99.32
93.52
84.39
71.04
53.58
33.10
11.49
-9.24
-27.81
-44.13
-59.36
-75.16
-93.02
-113.52
-136.12
-159.28
-180.77
-198.08
-208.98
-212.18
-207.86
-197.86
-185.30
-173.65
-165.51
-161.69
-160.81
-159.79
-155.11
-144.15
-126.26
-102.95
-77.07
-51.56
-28.48
-8.44
8.94
24.21
37.41
48.08
56.01
62.09
68.43
77.37
89.92
104.76
118.51
127.40
129.08
123.89
114.48
104.43
96.30
90.69
86.47
81.90
75.81
67.96
58.66
48.13
36.24
22.44
6.40
-11.45
-29.68
-45.97
-57.89
-63.43
-61.75
-52.94
-38.82
-22.52
-7.50
3.72
10.66
14.73
18.74
25.20
36.36
52.16
70.24
86.84
98.22
101.96
97.11
85.04
68.61
53.65
45.72
48.59
63.31
88.23
120.02
154.43
188.87
222.29
257.35
295.78
336.03
372.71
398.33
406.73
395.21
367.24
314.81
239.67
151.32
63.77
-11.43
-69.63
-108.27
-134.84
-156.22
-178.19
-202.92
-231.47
-262.57
-291.94
-313.04
-319.04
-306.32
-275.08
-230.51
-179.18
-128.79
-86.21
-56.18
-40.53
-37.91
-45.15
-57.26
-69.46
-77.05
-77.49
-70.67
-58.42
-43.35
-27.91
-14.10
-2.70
6.13
13.20
19.50
25.69
31.81
37.29
41.21
42.56
41.00
36.83
31.21
25.63
21.33
18.77
17.32
15.43
11.16
3.12
-8.95
-23.98
-39.94
-54.78
-67.28
-77.42
-86.15
-94.56
-103.03
-110.88
-116.45
-117.65
-112.57
-99.89
-79.08
-50.69
-16.54
20.19
55.36
84.69
104.98
114.96
115.58
109.47
99.89
89.63
80.27
72.05
64.24
56.11
47.49
39.21
32.56
28.25
25.12
20.10
9.52
-8.22
-30.72
-51.64
-63.29
-60.74
-44.79
-21.89
-0.96
11.15
12.63
6.39
-3.14
-13.50
-25.49
-41.30
-61.02
-80.19
-90.62
-84.02
-56.49
-10.85
44.34
98.20
141.49
169.03
179.80
175.39
158.41
131.75
98.72
63.17
29.34
0.88
-20.22
-34.19
-43.47
-52.31
-65.97
-89.39
-125.50
-173.30
-227.16
-277.75
-314.95
-331.52
-325.63
-301.10
-265.21
-225.70
-188.20
-155.68
-129.20
-109.22
-95.89
-88.53
-84.85
-81.17
-73.67
-60.15
-41.11
-19.29
1.79
19.32
32.29
41.30
47.75
53.04
58.13
63.42
68.79
73.72
77.41
79.02
78.09
74.96
70.89
67.61
66.55
67.75
69.68
69.31
63.29
48.95
25.42
-5.92
-41.15
-74.23
-98.33
-107.56
-98.92
-73.65
-37.35
1.66
34.69
55.42
61.58
54.36
37.71
17.02
-1.96
-14.10
-15.58
-5.31
15.32
42.94
72.26
98.48
119.22
135.06
148.13
160.86
172.90
182.15
186.07
181.14
164.78
136.47
98.43
55.30
14.49
-17.52
-35.26
-36.35
-25.57
-13.15
-10.36
-24.54
-56.21
-98.32
-142.51
-180.98
-195.81
-175.28
-119.39
-40.58
44.05
113.41
168.03
210.98
243.67
265.88
277.18
276.66
265.97
249.66
233.29
222.30
217.31
216.50
217.30
215.95
209.50
197.41
181.71
165.58
152.56
142.92
135.28
127.85
118.19
104.44
86.50
66.10
45.95
28.97
15.84
5.80
-2.66
-11.67
-23.15
-37.80
-54.86
-72.62
-89.01
-103.26
-115.75
-127.77
-141.17
-157.49
-177.07
-198.80
-220.59
-240.12
-256.08
-268.62
-279.30
-290.63
-305.77
-327.88
-359.39
-400.86
-449.77
-499.92
-542.42
-568.26
-571.46
-551.52
-513.43
-465.50
-415.89
-369.68
-328.10
-289.66
-252.37
-215.21
-178.37
-142.20
-106.10
-68.11
-25.53
24.20
82.86
151.21
228.22
310.78
393.13
467.20
524.15
556.66
560.66
536.25
487.16
419.71
342.00
263.23
193.06
140.00
109.30
100.98
109.39
124.77
136.42
136.07
119.90
88.61
45.85
-3.44
-54.73
-104.66
-151.38
-194.79
-236.53
-279.54
-326.57
-378.36
-432.11
-481.26
-517.11
-531.77
-521.34
-487.47
-436.89
-378.76
-321.46
-270.23
-226.75
-190.40
-159.93
-134.57
-114.01
-97.68
-84.13
-71.13
-56.48
-38.97
-18.82
2.48
22.78
40.19
53.68
63.17
69.18
72.30
72.68
69.93
63.33
52.26
36.76
17.74
-3.13
-23.80
-42.35
-57.49
-68.67
-76.06
-80.28
-82.02
-81.81
-79.89
-76.31
-71.06
-64.23
-56.14
-47.31
-38.33
-29.76
-21.93
-14.89
-8.43
-2.13
4.40
11.39
18.79
26.26
33.31
39.46
44.49
48.54
52.03
55.55
59.59
64.34
69.66
75.27
80.89
86.53
92.53
99.47
108.04
118.96
132.90
150.42
171.48
195.09
219.02
240.02
254.76
260.90
257.89
247.00
230.50
210.62
188.90
166.33
143.93
123.39
106.87
96.25
92.15
93.58
98.36
104.17
109.42
113.41
115.97
116.99
116.26
113.61
109.24
103.64
97.22
89.88
80.97
69.89
56.81
43.14
31.16
23.07
19.97
21.34
25.40
30.05
33.81
36.25
37.73
38.89
40.22
41.47
41.69
39.77
35.07
27.91
19.36
10.93
3.66
-2.03
-6.65
-11.23
-16.64
-23.20
-30.54
-38.09
-45.22
-51.48
-55.71
-56.54
-52.69
-43.37
-28.72
-9.77
11.51
33.41
54.59
76.39
100.26
126.61
154.20
180.63
203.78
221.83
235.48
246.05
259.17
278.93
306.24
338.31
370.24
397.71
417.03
429.25
436.66
448.42
471.42
507.51
552.49
598.53
638.64
666.85
684.95
696.66
714.31
746.58
794.98
852.94
909.23
954.23
980.29
990.39
932.81
778.76
530.15
224.91
-83.17
-352.85
-545.59
-678.73
-770.94
-835.33
-871.53
-879.19
-864.37
-836.94
-809.65
-792.97
-795.34
-814.40
-843.81
-868.78
-875.85
-857.11
-813.04
-751.72
-684.13
-622.24
-569.73
-525.60
-481.80
-430.58
-368.27
-297.23
-224.47
-157.41
-102.39
-59.79
-27.48
-0.50
25.98
55.91
91.27
131.89
175.62
217.61
252.98
277.28
288.58
288.04
279.21
265.12
247.51
227.17
204.56
181.39
160.44
143.66
131.70
123.27
113.36
96.72
70.81
37.23
0.52
-33.41
-61.73
-83.86
-100.85
-117.64
-138.33
-163.54
-190.20
-213.68
-229.52
-238.48
-243.69
-249.19
-263.12
-292.79
-341.52
-407.14
-482.95
-557.86
-622.87
-669.50
-666.90
-598.45
-471.37
-315.43
-165.06
-53.21
24.89
80.39
123.24
160.31
192.68
218.19
236.00
247.98
257.27
267.66
277.90
285.10
285.85
274.08
245.79
202.50
151.78
103.88
68.08
45.84
33.59
26.49
20.35
15.71
17.92
33.27
63.88
106.20
150.71
188.19
214.16
228.58
234.57
235.89
234.94
232.30
228.06
221.94
214.59
207.28
200.76
195.08
189.89
184.67
178.74
171.29
161.11
147.64
131.51
114.67
99.72
88.78
82.60
80.27
79.79
78.96
76.26
71.08
63.41
53.27
40.36
24.09
4.16
-18.83
-43.26
-66.83
-87.43
-103.86
-116.21
-125.47
-132.85
-139.24
-145.12
-151.05
-158.26
-168.82
-184.92
-207.70
-236.05
-266.38
-293.51
-312.51
-320.49
-317.60
-306.74
-292.13
-277.56
-264.93
-253.91
-242.53
-228.59
-210.85
-189.74
-167.18
-145.62
-126.95
-111.86
-99.99
-90.71
-83.92
-80.39
-81.16
-86.68
-96.29
-108.62
-122.45
-137.48
-154.09
-172.22
-190.20
-204.70
-212.05
-210.38
-200.99
-187.76
-175.07
-165.28
-157.48
-148.18
-133.57
-112.08
-85.66
-59.15
-37.93
-25.44
-21.58
-22.97
-24.60
-22.26
-14.28
-1.85
12.11
24.91
35.73
46.23
59.66
79.53
108.31
146.67
193.37
244.99
295.45
336.07
357.12
351.21
316.70
260.03
194.57
136.36
98.50
87.36
102.15
137.51
186.93
244.49
304.43
359.70
401.54
421.45
414.62
382.70
333.82
279.49
229.93
190.36
160.11
134.30
106.65
72.05
27.64
-27.18
-90.94
-160.31
-229.97
-292.92
-341.68
-370.04
-375.04
-357.95
-323.46
-277.79
-226.73
-174.12
-121.45
-68.76
-15.90
36.36
85.82
129.78
166.31
194.26
213.68
225.89
232.79
235.85
235.34
229.51
215.95
193.45
161.83
122.94
81.09
41.77
9.47
-14.21
-32.04
-48.50
-66.70
-88.80
-115.47
-145.94
-179.55
-216.52
-257.17
-301.31
-344.91
-379.25
-396.29
-391.92
-367.14
-328.24
-284.56
-237.72
-192.61
-161.86
-145.77
-137.21
-129.96
-118.27
-97.36
-64.11
-18.15
35.97
90.41
136.63
165.21
169.35
148.54
108.97
61.27
16.71
-17.40
-38.12
-45.37
-42.14
-31.99
-16.89
2.65
26.32
52.76
78.51
99.84
114.86
123.57
128.35
133.41
142.94
159.00
180.65
203.81
223.35
235.20
236.88
227.64
207.96
178.71
140.84
95.86
46.46
-3.17
-48.10
-84.51
-111.03
-128.95
-141.22
-150.61
-158.35
-163.85
-165.83
-163.83
-159.22
-154.62
-152.54
-153.73
-156.59
-157.77
-153.86
-142.79
-124.50
-100.60
-73.16
-43.91
-13.81
16.76
47.50
77.93
107.55
136.23
164.46
193.63
225.85
263.48
308.11
359.12
412.64
461.61
497.46
513.03
505.44
477.18
435.05
387.19
339.88
295.85
254.76
215.26
177.17
142.37
113.82
93.80
82.45
77.55
75.62
73.41
68.87
61.38
51.24
38.85
24.38
7.78
-10.89
-31.08
-51.90
-72.55
-92.85
-113.61
-136.86
-165.23
-201.04
-244.80
-293.82
-342.01
-381.05
-402.95
-402.95
-381.31
-342.99
-295.35
-245.01
-195.42
-146.34
-95.22
-39.66
20.39
81.76
138.80
185.28
216.50
230.79
229.80
217.68
199.29
178.50
157.30
135.88
113.49
89.27
62.65
32.83
-1.79
-43.40
-93.52
-151.14
-211.47
-266.52
-307.31
-326.99
-323.33
-299.14
-260.88
-215.96
-170.56
-128.84
-93.34
-66.15
-49.20
-43.81
-49.61
-63.89
-82.03
-99.14
-111.90
-119.94
-125.93
-134.46
-150.04
-175.29
-210.12
-251.66
-295.13
-334.96
-365.82
-383.56
-385.80
-372.18
-344.45
-306.12
-261.76
-216.12
-173.40
-136.78
-108.21
-88.29
-76.17
-69.68
-65.66
-60.60
-51.22
-35.01
-10.64
21.58
59.32
98.63
134.36
161.71
177.90
183.42
181.67
177.39
174.28
173.41
174.00
173.88
171.12
165.09
156.57
147.30
139.08
133.25
130.63
133.60
144.08
162.64
187.49
214.53
238.70
255.63
263.03
261.18
255.50
252.25
256.50
270.07
291.37
316.77
341.99
362.78
375.44
381.06
382.09
382.36
385.60
394.81
412.09
437.88
470.17
482.18
453.89
377.63
264.26
136.06
14.33
-88.13
-167.45
-225.36
-265.70
-286.57
-289.28
-275.35
-248.71
-215.87
-183.78
-157.54
-139.43
-129.36
-123.18
-118.25
-113.34
-108.37
-103.68
-98.61
-91.01
-78.73
-61.54
-39.94
-16.47
6.13
24.92
38.36
46.20
50.39
54.48
62.29
76.86
97.72
120.67
138.58
145.24
136.59
113.66
82.14
49.43
21.48
0.24
-15.83
-29.87
-44.12
-58.81
-72.14
-82.09
-87.82
-90.06
-90.55
-90.84
-91.54
-92.34
-92.69
-92.24
-91.37
-91.20
-93.29
-99.26
-110.33
-127.49
-151.68
-184.05
-225.12
-274.01
-327.24
-378.36
-418.77
-439.63
-434.13
-399.03
-335.33
-247.84
-144.74
-36.54
65.11
149.36
208.58
239.89
245.12
228.99
196.73
152.78
101.64
49.98
7.56
-15.10
-11.27
17.23
58.86
96.42
114.13
103.88
67.32
13.03
-48.19
-107.04
-156.25
-189.10
-198.68
-179.71
-132.25
-64.52
8.05
67.86
101.64
105.34
84.46
50.19
13.81
-17.54
-42.23
-62.61
-82.50
-105.23
-133.29
-168.93
-214.33
-270.84
-337.07
-407.30
-471.88
-519.59
-541.41
-533.92
-500.49
-449.53
-391.05
-333.09
-279.82
-231.84
-187.84
-146.38
-106.65
-68.16
-29.98
9.58
52.33
98.86
147.36
193.41
230.78
253.68
258.91
247.25
223.14
192.88
162.11
133.85
108.03
82.62
55.58
26.56
-2.51
-28.02
-46.05
-53.83
-50.60
-37.77
-18.54
2.96
22.56
36.92
44.28
44.90
41.03
36.20
34.12
37.49
47.34
63.07
83.08
105.70
129.69
154.28
178.65
201.57
221.32
236.27
245.60
249.72
250.16
248.64
246.11
242.11
234.84
222.11
202.33
175.10
141.34
102.89
62.16
21.95
-14.47
-43.56
-62.21
-68.69
-63.56
-49.78
-31.80
-14.18
-0.25
8.63
12.80
13.73
13.38
13.91
17.59
26.53
42.27
65.11
93.78
125.59
157.26
186.07
210.93
232.85
254.43
278.51
306.47
336.87
365.39
385.96
392.97
383.33
357.43
318.50
271.00
218.93
164.85
110.14
55.86
3.46
-45.21
-88.48
-125.67
-157.48
-185.67
-212.37
-239.63
-269.31
-303.30
-343.31
-389.81
-440.78
-491.10
-533.32
-560.08
-566.88
-553.94
-525.99
-490.21
-453.30
-419.30
-389.20
-361.92
-335.97
-310.51
-285.30
-260.10
-234.05
-205.78
-174.15
-139.06
-101.54
-63.48
-26.90
6.84
37.35
65.07
91.05
116.62
143.09
171.32
201.28
231.62
259.78
282.48
296.53
299.55
290.19
267.91
232.79
185.69
128.90
66.79
5.87
-46.38
-83.46
-101.96
-102.68
-90.07
-70.31
-48.92
-29.06
-11.38
4.88
20.10
33.35
42.72
46.57
45.07
40.75
37.81
40.70
52.79
75.63
108.81
149.68
193.13
231.70
257.08
262.76
246.83
213.44
171.58
131.53
100.86
82.08
72.91
68.79
65.77
62.01
57.50
52.85
48.50
44.69
42.27
42.77
47.51
56.05
64.97
67.92
57.42
27.90
-21.41
-85.05
-152.34
-210.50
-248.75
-261.65
-250.43
-221.67
-184.32
-146.39
-112.79
-84.77
-60.99
-39.12
-17.20
5.63
29.14
52.32
73.79
92.17
106.32
115.69
120.37
120.97
118.38
113.66
107.98
102.71
99.32
99.09
102.70
109.87
119.38
129.51
138.62
145.63
150.24
152.88
154.41
155.89
158.16
161.60
165.76
169.19
169.76
165.12
153.55
134.32
107.78
75.24
38.68
0.74
-35.21
-65.39
-86.23
-95.45
-92.98
-81.24
-64.51
-47.55
-34.27
-26.82
-25.60
-29.79
-38.09
-49.11
-61.37
-73.25
-83.00
-89.36
-92.34
-93.85
-97.67
-108.27
-128.90
-159.84
-197.64
-236.08
-268.17
-288.39
-293.94
-284.60
-261.47
-225.66
-177.84
-118.89
-51.14
20.74
90.05
149.45
193.13
218.59
227.32
224.04
214.92
205.43
198.83
195.91
195.99
198.45
203.84
213.79
229.53
250.23
272.18
289.59
296.87
290.95
272.50
245.06
212.98
179.30
145.15
110.67
76.80
46.61
24.84
15.85
21.25
38.38
60.96
81.34
93.39
94.47
85.86
71.64
56.88
45.86
41.00
42.56
48.98
57.60
65.48
70.29
70.87
67.33
60.73
52.14
42.02
29.90
14.91
-3.49
-24.78
-47.42
-69.56
-89.93
-108.53
-126.72
-146.56
-170.28
-199.78
-236.51
-281.25
-333.35
-389.85
-445.12
-491.58
-521.88
-531.47
-520.32
-492.87
-455.92
-415.84
-376.32
-338.00
-299.79
-260.98
-222.59
-187.42
-158.77
-138.81
-127.39
-122.09
-119.17
-114.98
-107.23
-95.65
-81.46
-66.36
-51.33
-36.12
-19.61
-0.72
20.62
43.20
65.04
84.30
100.02
112.25
121.69
129.03
134.64
138.58
140.83
141.38
140.23
137.15
131.77
123.82
113.52
101.85
90.31
80.51
73.53
69.62
68.18
68.04
67.82
66.12
61.68
53.40
40.52
22.91
1.44
-22.04
-45.11
-65.68
-82.85
-97.35
-111.17
-126.43
-144.05
-162.91
-179.99
-191.45
-194.25
-187.31
-171.83
-150.59
-126.82
-103.11
-80.98
-60.86
-42.44
-25.09
-8.12
9.04
26.60
44.28
61.18
75.91
86.95
93.15
94.11
90.32
82.86
73.14
62.57
52.32
43.33
36.19
31.11
27.89
25.94
24.43
22.69
20.45
17.96
15.69
13.84
11.91
8.65
2.71
-6.64
-18.85
-32.23
-44.64
-54.49
-61.28
-65.46
-67.78
-68.49
-67.12
-62.87
-55.27
-44.79
-32.73
-20.63
-9.55
0.41
9.94
20.00
31.15
43.12
54.75
64.45
70.75
72.99
71.51
67.58
62.79
58.38
54.74
51.52
47.99
43.73
38.98
34.56
31.45
30.17
30.52
31.71
32.80
33.21
32.90
32.21
31.46
30.63
29.35
27.07
23.55
18.93
13.83
8.86
4.33
-0.04
-4.83
-10.41
-16.45
-21.71
-24.47
-23.26
-17.62
-8.37
2.69
13.64
23.21
31.11
37.89
44.28
50.67
56.90
62.52
67.24
71.21
74.96
78.99
83.40
87.58
90.45
90.85
88.26
82.98
76.10
69.04
62.81
57.64
52.87
47.36
40.22
31.26
21.10
10.92
1.76
-5.94
-12.41
-18.29
-24.04
-29.64
-34.59
-38.21
-40.06
-40.25
-39.43
-38.47
-38.09
-38.58
-39.69
-40.74
-40.88
-39.50
-36.42
-31.91
-26.42
-20.31
-13.61
-6.10
2.37
11.49
20.47
28.14
33.56
36.40
36.97
36.05
34.25
31.69
27.90
22.23
14.41
4.87
-5.24
-14.51
-21.86
-26.96
-30.14
-32.12
-33.31
-33.69
-32.85
-30.45
-26.73
-22.64
-19.56
-18.67
-20.32
-23.86
-27.93
-31.13
-32.70
-32.90
-32.80
-33.79
-36.82
-41.90
-47.98
-53.27
-55.85
-54.37
-48.42
-38.56
-26.02
-12.20
1.68
14.77
26.55
36.58
44.42
49.68
52.28
52.62
51.59
50.38
49.95
50.63
52.11
53.58
54.32
54.05
53.07
52.03
51.48
51.62
52.15
52.63
52.69
52.19
51.10
49.33
46.58
42.38
36.46
28.98
20.69
12.64
5.80
0.72
-2.69
-4.91
-6.55
-8.17
-10.19
-12.94
-16.88
-22.44
-29.97
-39.46
-50.35
-61.59
-71.77
-79.54
-83.94
-84.63
-81.92
-76.65
-69.90
-62.68
-55.53
-48.45
-40.95
-32.30
-21.90
-9.54
4.51
19.57
34.75
49.14
61.97
72.65
80.72
85.92
88.19
87.78
85.21
81.19
76.41
71.38
66.32
61.23
55.96
50.36
44.32
37.85
30.96
23.77
16.43
9.20
2.41
-3.75
-9.39
-15.09
-21.72
-30.11
-40.55
-52.37
-63.96
-73.19
-78.06
-77.43
-71.33
-60.84
-47.64
-33.34
-19.07
-5.35
7.71
20.08
31.60
41.90
50.54
57.19
61.76
64.43
65.65
65.99
66.03
66.22
66.77
67.59
68.24
68.07
66.44
62.85
57.19
49.61
40.47
30.14
18.89
7.00
-5.18
-17.15
-28.29
-38.10
-46.45
-53.62
-60.19
-66.72
-73.42
-80.06
-86.18
-91.36
-95.44
-98.47
-100.45
-101.08
-99.64
-95.35
-87.73
-76.99
-63.97
-49.81
-35.49
-21.49
-7.86
5.41
18.10
29.56
38.89
45.33
48.60
49.02
47.42
44.75
41.88
39.29
37.04
34.91
32.61
29.99
27.15
24.42
22.15
20.51
19.33
18.10
16.24
13.43
9.86
6.22
3.47
2.34
3.04
5.10
7.60
9.54
10.29
9.71
8.13
6.13
4.26
2.99
2.73
3.86
6.82
11.87
19.08
28.08
38.12
48.24
57.49
65.17
70.88
74.48
75.95
75.25
72.23
66.70
58.51
47.72
34.69
20.08
4.75
-10.34
-24.31
-36.42
-46.07
-52.90
-56.80
-57.95
-56.83
-54.18
-51.00
-48.31
-47.01
-47.60
-49.97
-53.47
-56.99
-59.41
-59.99
-58.55
-55.47
-51.27
-46.33
-40.70
-34.30
-27.27
-20.27
-14.37
-10.60
-9.25
-9.51
-9.60
-7.44
-1.63
7.90
19.84
32.10
42.75
50.68
55.81
58.72
60.01
59.78
57.60
52.84
45.28
35.37
24.25
13.37
3.86
-3.83
-9.93
-14.99
-19.34
-22.76
-24.51
-23.72
-19.93
-13.40
-5.11
3.64
11.80
18.89
25.10
30.89
36.65
42.37
47.74
52.37
56.16
59.32
62.13
64.58
66.11
65.76
62.90
57.77
51.75
46.98
45.34
47.42
52.06
56.82
59.35
58.85
56.85
56.73
62.10
75.21
96.04
122.65
152.23
181.97
209.50
232.76
250.04
260.47
264.79
265.74
267.20
272.48
282.41
294.62
304.52
307.60
301.71
287.76
268.97
248.99
230.23
213.34
197.68
182.32
166.72
150.85
134.76
118.16
100.24
80.12
57.44
32.81
7.88
-15.04
-33.70
-46.58
-53.29
-54.54
-51.72
-46.36
-39.65
-32.25
-24.36
-16.06
-7.60
0.37
6.95
11.17
12.40
10.52
6.00
-0.35
-7.70
-15.46
-23.53
-32.19
-41.89
-53.03
-65.69
-79.60
-94.33
-109.34
-124.27
-139.01
-153.65
-168.51
-184.08
-201.03
-219.91
-240.78
-262.84
-284.27
-302.56
-315.30
-320.95
-319.39
-311.77
-300.02
-286.10
-271.54
-257.41
-244.53
-233.66
-225.56
-220.65
-218.77
-219.11
-220.46
-221.70
-222.12
-221.55
-220.09
-217.89
-214.70
-209.99
-203.12
-193.77
-182.11
-168.79
-154.73
-140.76
-127.50
-115.27
-104.37
-95.03
-87.43
-81.48
-76.60
-71.74
-65.63
-57.15
-45.81
-31.91
-16.44
-0.70
14.18
27.50
39.11
49.29
58.50
67.14
75.53
83.81
92.09
100.39
108.50
115.72
120.79
121.92
117.24
105.50
86.69
62.31
35.10
8.34
-15.02
-33.03
-45.00
-51.23
-52.58
-49.97
-44.22
-36.13
-26.67
-17.11
-8.81
-2.89
0.24
1.03
0.51
-0.15
-0.14
0.66
1.93
3.18
4.24
5.28
6.70
8.78
11.53
14.72
18.07
21.36
24.45
26.98
28.16
26.81
21.58
11.47
-3.68
-22.96
-44.63
-66.57
-86.88
-104.31
-118.36
-129.16
-137.15
-142.80
-146.38
-147.91
-147.21
-143.99
-138.07
-129.41
-118.26
-105.09
-90.49
-75.10
-59.49
-44.12
-29.32
-15.13
-1.28
12.82
27.80
43.99
61.06
77.90
92.93
104.57
111.86
114.79
114.22
111.59
108.30
105.40
103.29
101.86
100.62
99.06
96.75
93.37
88.61
82.11
73.45
62.36
48.96
33.98
18.62
4.24
-8.05
-17.79
-25.13
-30.70
-35.37
-39.98
-45.19
-51.42
-58.52
-65.66
-71.29
-73.43
-70.28
-60.84
-45.30
-24.93
-1.62
22.75
46.85
69.99
92.01
113.02
133.25
152.93
172.40
192.05
212.09
232.26
251.54
268.21
280.14
285.31
282.41
271.15
252.50
228.53
202.22
177.00
156.23
142.44
136.58
137.34
141.25
143.41
138.88
124.26
98.67
63.76
22.80
-20.55
-63.44
-104.32
-142.95
-180.14
-217.46
-256.90
-300.26
-348.10
-398.41
-446.05
-483.36
-502.31
-497.05
-466.18
-413.10
-344.73
-269.27
-193.82
-122.93
-58.42
-0.04
53.45
103.27
149.99
193.33
232.23
265.08
289.97
305.11
309.14
301.51
282.77
254.76
220.41
183.12
145.87
110.31
76.41
42.86
8.08
-28.69
-66.61
-103.30
-135.88
-161.42
-178.01
-185.22
-184.31
-177.87
-169.02
-160.65
-154.96
-153.54
-156.82
-164.08
-173.32
-181.61
-185.72
-182.89
-171.71
-152.71
-128.86
-103.61
-79.40
-56.89
-35.23
-13.18
9.81
33.09
54.54
69.27
73.63
66.67
50.46
28.88
6.09
-14.47
-30.20
-40.67
-51.64
-68.56
-94.51
-128.98
-169.10
-211.57
-253.49
-291.98
-326.59
-365.08
-413.48
-473.47
-541.65
-612.16
-679.45
-738.81
-784.54
-813.46
-832.83
-848.69
-863.53
-875.59
-881.80
-880.73
-873.04
-858.99
-782.66
-619.18
-380.20
-110.53
140.23
342.93
492.26
586.44
647.44
689.52
710.45
707.30
682.52
645.74
609.82
584.41
574.04
579.97
597.08
611.80
614.10
601.10
577.63
552.35
532.75
522.90
524.86
536.39
550.17
560.52
564.47
560.95
548.96
526.32
490.88
443.13
384.61
316.13
238.93
154.18
63.81
-28.22
-115.26
-188.43
-238.81
-262.14
-261.26
-244.29
-220.86
-197.52
-175.07
-148.91
-112.13
-60.05
6.25
79.91
150.50
207.70
244.46
258.73
253.63
236.70
218.35
209.25
217.31
244.60
285.79
329.26
361.03
369.84
351.20
308.23
249.30
183.76
118.40
56.09
-2.99
-59.26
-112.68
-163.09
-211.40
-259.96
-311.31
-365.55
-418.19
-460.28
-481.36
-473.56
-435.37
-372.40
-294.83
-212.99
-133.57
-58.47
13.30
82.28
146.32
200.56
239.48
259.59
260.99
247.29
224.24
198.18
174.78
158.30
151.42
154.72
166.26
181.56
194.39
198.64
190.28
168.97
138.09
103.34
70.48
43.18
21.94
4.47
-12.87
-33.41
-59.35
-91.65
-130.37
-174.50
-221.46
-266.55
-303.28
-325.14
-328.01
-312.11
-282.20
-245.80
-210.49
-181.41
-160.36
-146.38
-137.21
-130.56
-124.69
-118.34
-110.64
-101.01
-89.47
-76.75
-64.11
-52.88
-44.02
-37.89
-34.21
-32.40
-31.61
-30.84
-28.90
-24.56
-16.85
-5.37
9.33
25.67
40.99
51.78
54.19
44.95
22.82
-10.16
-48.17
-82.65
-104.65
-107.69
-89.83
-53.92
-6.19
46.11
96.68
141.12
176.60
201.10
212.86
210.44
193.39
162.92
121.99
74.66
25.02
-23.66
-69.20
-110.02
-144.44
-170.43
-186.24
-191.58
-188.48
-180.82
-172.64
-166.32
-161.62
-156.64
-150.01
-142.93
-139.37
-143.90
-158.46
-180.00
-200.89
-212.00
-206.85
-184.48
-149.58
-109.99
-72.93
-42.36
-18.33
1.43
19.10
34.97
47.42
54.38
55.44
52.94
51.57
57.09
73.74
102.56
141.07
184.48
227.61
266.61
299.90
328.01
353.71
379.77
407.35
434.71
457.30
469.23
465.59
444.57
408.23
363.11
316.78
275.03
240.08
210.83
184.58
158.80
131.90
102.54
71.10
37.92
3.91
-28.82
-56.78
-75.67
-81.97
-74.66
-65.26
-64.85
-81.40
-115.08
-158.83
-203.67
-243.04
-274.17
-295.15
-308.33
-313.21
-308.31
-292.56
-266.80
-233.77
-197.06
-161.15
