1.588977047000000000e+09
-2.999999999999999889e-02
5.059999999999999609e+00
1.791000000000000014e+01
7.934000000000000341e+01
2.282500000000000000e+02
-4.865000000000000000e+02
-5.900000000000000355e+00
1.561500000000000057e+02
4.678000000000000114e+01
3.759999999999999787e+00
-9.899999999999999911e-01
-6.610000000000000320e+00
-1.651000000000000156e+01
2.703999999999999915e+01
1.566000000000000014e+01
3.599999999999999867e-01
-2.010999999999999943e+01
-1.259999999999999964e+01
-1.901999999999999957e+01
7.054999999999999716e+01
-6.019999999999999574e+00
-2.742999999999999972e+01
1.465900000000000034e+02
-1.077600000000000051e+02
5.514999999999999858e+01
-8.187999999999999545e+01
1.122500000000000000e+02
1.595999999999999943e+02
7.992000000000000171e+01
6.745999999999999375e+01
3.507999999999999829e+01
-4.421999999999999886e+01
-1.850600000000000023e+02
-6.003200000000000500e+02
-3.705400000000000205e+02
-1.108499999999999943e+02
1.186700000000000017e+02
2.293000000000000114e+02
7.134000000000000341e+01
1.406399999999999864e+02
8.551000000000000512e+01
-7.623000000000000398e+01
-1.976999999999999957e+01
9.626000000000000512e+01
4.046999999999999886e+01
3.696000000000000085e+01
2.879399999999999977e+02
-2.563700000000000045e+02
-5.985000000000000142e+01
1.883999999999999986e+01
1.017099999999999937e+02
4.256000000000000227e+01
-3.999000000000000199e+01
-2.205000000000000071e+01
-5.172999999999999687e+01
1.111999999999999922e+01
1.976100000000000136e+02
-2.410999999999999943e+01
-5.493999999999999773e+01
7.000000000000000000e+00
7.420000000000000284e+01
-4.310999999999999943e+01
3.321999999999999886e+01
5.500000000000000444e-01
-4.346999999999999886e+01
-1.386800000000000068e+02
2.294000000000000128e+01
-3.929999999999999716e+01
-2.410000000000000142e+00
3.561499999999999773e+02
1.989000000000000057e+02
-2.385300000000000011e+02
-1.978600000000000136e+02
5.332999999999999829e+01
-3.567999999999999972e+01
-4.290999999999999659e+01
-8.643000000000000682e+01
3.466000000000000227e+02
-1.946299999999999955e+02
4.564999999999999858e+01
-7.549999999999999822e+00
1.024699999999999989e+02
-4.015699999999999932e+02
-1.677100000000000080e+02
-5.730000000000000426e+00
3.259700000000000273e+02
1.497000000000000064e+01
6.018999999999999773e+01
1.787000000000000099e+01
-6.828000000000000114e+01
-2.180000000000000160e+00
-5.557000000000000028e+01
-4.132999999999999829e+01
-4.790000000000000036e+00
2.644900000000000091e+02
-2.133999999999999986e+01
1.173400000000000034e+02
1.816899999999999977e+02
-1.626800000000000068e+02
-4.675899999999999750e+02
-1.122399999999999949e+02
2.213600000000000136e+02
2.690899999999999750e+02
-1.333999999999999986e+01
3.599999999999999867e-01
-9.634000000000000341e+01
-1.134099999999999966e+02
-2.398999999999999844e+01
-9.980000000000000426e+00
4.940000000000000391e+00
1.151999999999999957e+01
2.537000000000000099e+01
-3.189999999999999947e+00
-2.312999999999999901e+01
3.053999999999999915e+01
1.541999999999999993e+01
-4.219999999999999751e+00
2.403999999999999915e+01
1.425999999999999979e+01
-2.283999999999999986e+01
-1.614999999999999858e+01
2.451000000000000156e+01
1.047000000000000064e+01
-3.229999999999999716e+01
-6.639999999999999680e+00
-1.814999999999999858e+01
-2.864000000000000057e+01
4.574000000000000199e+01
3.082999999999999829e+01
-1.560999999999999943e+01
1.100999999999999979e+01
-5.669999999999999929e+00
1.070000000000000062e+00
2.160000000000000142e+01
2.662000000000000099e+01
-1.238000000000000078e+01
1.673000000000000043e+01
-7.990000000000000213e+00
-2.523999999999999844e+01
6.089999999999999858e+00
1.630999999999999872e+01
-7.870000000000000107e+00
1.603999999999999915e+01
1.755000000000000071e+01
2.564999999999999858e+01
4.284000000000000341e+01
-2.160000000000000142e+01
-4.264999999999999858e+01
-2.137000000000000099e+01
3.044999999999999929e+01
-5.846000000000000085e+01
-6.998000000000000398e+01
2.009999999999999787e+00
7.490000000000000213e+00
-3.800000000000000044e-01
2.708999999999999986e+01
4.432000000000000028e+01
7.454000000000000625e+01
4.480000000000000426e+00
1.632899999999999920e+02
1.433000000000000007e+01
-1.893400000000000034e+02
-9.932999999999999829e+01
-9.779000000000000625e+01
-1.089899999999999949e+02
7.419999999999999929e+00
6.267000000000000171e+01
4.797999999999999687e+01
-1.244999999999999929e+01
3.044999999999999929e+01
2.639000000000000057e+01
2.640000000000000124e+00
-1.488000000000000078e+01
1.857999999999999829e+01
8.189999999999999503e+00
-1.089000000000000057e+01
1.732999999999999829e+01
1.621999999999999886e+01
-7.199999999999999734e-01
-1.907000000000000028e+01
2.816000000000000014e+01
6.110000000000000320e+00
-1.846000000000000085e+01
-7.600000000000000089e-01
1.142999999999999972e+01
1.771000000000000085e+01
-1.673999999999999844e+01
1.892000000000000171e+01
4.070000000000000284e+00
-2.269000000000000128e+01
3.879999999999999893e+00
1.447000000000000064e+01
-5.509999999999999787e+00
-2.335000000000000142e+01
7.349999999999999645e+00
9.399999999999999467e-01
-1.291000000000000014e+01
-3.709999999999999964e+00
1.283999999999999986e+01
-1.530000000000000027e+00
-2.173000000000000043e+01
1.635000000000000142e+01
1.599000000000000021e+01
3.099999999999999978e-01
1.691000000000000014e+01
-7.519999999999999574e+00
-1.423000000000000043e+01
-1.401999999999999957e+01
4.400000000000000355e+00
-2.270000000000000018e+00
-6.040000000000000036e+00
2.339999999999999858e+01
-4.899999999999999911e-01
-2.201999999999999957e+01
6.600000000000000311e-01
1.061999999999999922e+01
-2.569999999999999840e+00
-2.391000000000000014e+01
1.905000000000000071e+01
1.380000000000000071e+01
-1.892999999999999972e+01
1.767000000000000171e+01
2.060000000000000053e+00
-3.699000000000000199e+01
-9.630000000000000782e+00
2.528000000000000114e+01
1.506000000000000050e+01
-3.210999999999999943e+01
3.150000000000000000e+01
1.481000000000000050e+01
-2.721999999999999886e+01
-7.400000000000000355e+00
1.494999999999999929e+01
9.200000000000000400e-01
-6.240000000000000213e+00
-1.270000000000000018e+00
2.216000000000000014e+01
-2.160000000000000142e+00
-5.459999999999999964e+00
-1.449999999999999956e+00
-2.800000000000000266e-01
-2.099999999999999922e-01
-2.099999999999999922e-01
-2.000000000000000111e-01
-1.900000000000000022e-01
-1.799999999999999933e-01
-1.700000000000000122e-01
-1.700000000000000122e-01
-1.600000000000000033e-01
-1.499999999999999944e-01
-1.300000000000000044e-01
-5.000000000000000278e-02
2.700000000000000178e-01
1.239999999999999991e+00
-1.169999999999999929e+00
-8.070000000000000284e+00
-9.449999999999999289e+00
1.664999999999999858e+01
9.200000000000000400e-01
-2.344999999999999929e+01
3.402000000000000313e+01
2.150000000000000000e+01
-2.628000000000000114e+01
-1.637000000000000099e+01
1.903000000000000114e+01
5.000000000000000000e+00
-3.375000000000000000e+01
1.644000000000000128e+01
1.596000000000000085e+01
-1.241000000000000014e+01
-8.730000000000000426e+00
1.536999999999999922e+01
-7.330000000000000071e+00
-1.775000000000000000e+01
3.267999999999999972e+01
1.955999999999999872e+01
-2.571000000000000085e+01
-1.610000000000000142e+01
1.744000000000000128e+01
1.310999999999999943e+01
-2.382000000000000028e+01
2.428999999999999915e+01
6.900000000000000355e+00
-7.290000000000000036e+00
-7.419999999999999929e+00
1.712000000000000099e+01
-1.183999999999999986e+01
-3.682999999999999829e+01
6.250000000000000000e+00
3.589999999999999858e+01
1.110000000000000098e+00
-3.535000000000000142e+01
1.142999999999999972e+01
2.657000000000000028e+01
3.303000000000000114e+01
2.585999999999999943e+01
1.060999999999999943e+01
1.400999999999999943e+02
-1.432400000000000091e+02
-2.441200000000000045e+02
1.700699999999999932e+02
-1.638000000000000114e+02
-1.642599999999999909e+02
3.125199999999999818e+02
8.301000000000000512e+01
-1.678999999999999915e+01
5.017000000000000171e+01
-9.949999999999999289e+00
-5.450000000000000000e+01
5.542000000000000171e+01
7.048999999999999488e+01
7.509999999999999787e+00
-2.989999999999999858e+01
5.716699999999999591e+02
-1.628199999999999932e+02
-1.398700000000000045e+02
-1.505699999999999932e+02
-1.942000000000000171e+01
-8.300000000000000711e+00
-1.951000000000000156e+01
7.021999999999999886e+01
7.589999999999999858e+00
-8.112999999999999545e+01
5.107999999999999829e+01
4.435000000000000142e+01
-1.825000000000000000e+01
-1.342999999999999972e+01
3.628000000000000114e+01
-2.912999999999999901e+01
-1.369199999999999875e+02
8.435999999999999943e+01
1.139500000000000028e+02
-7.175000000000000000e+01
3.497999999999999687e+01
1.722299999999999898e+02
-1.257600000000000051e+02
-2.560000000000000053e+00
1.581299999999999955e+02
6.221999999999999886e+01
-8.001000000000000512e+01
-1.762899999999999920e+02
-1.090699999999999932e+02
-1.428899999999999864e+02
1.162999999999999972e+02
2.815000000000000000e+02
1.575000000000000000e+01
-3.324200000000000159e+02
-4.550000000000000000e+01
2.362999999999999901e+01
1.183999999999999986e+01
4.835000000000000142e+01
2.726999999999999957e+01
-9.460000000000000853e+00
1.533000000000000007e+01
7.243000000000000682e+01
1.524399999999999977e+02
1.229000000000000057e+02
-2.935000000000000000e+02
-2.068899999999999864e+02
2.446500000000000057e+02
-2.196299999999999955e+02
-3.829999999999999716e+01
8.321999999999999886e+01
-2.200000000000000000e+01
-1.408999999999999986e+01
-3.553999999999999915e+01
-7.887000000000000455e+01
7.892000000000000171e+01
3.121000000000000085e+01
1.232000000000000028e+01
-1.509999999999999964e+01
1.469000000000000057e+02
4.021000000000000085e+01
-1.006400000000000006e+02
8.900000000000000133e-01
4.290000000000000036e+00
-1.830000000000000071e+00
2.249399999999999977e+02
1.926899999999999977e+02
-2.638700000000000045e+02
-2.245300000000000011e+02
1.194099999999999966e+02
-2.178700000000000045e+02
-2.651000000000000156e+01
-3.957000000000000028e+01
8.059999999999999432e+01
2.025000000000000000e+01
3.257000000000000028e+01
-1.000000000000000000e+01
-7.443000000000000682e+01
-4.757000000000000028e+01
6.921999999999999886e+01
8.393000000000000682e+01
5.285000000000000142e+01
8.900000000000000000e+01
4.377000000000000313e+01
-1.552500000000000000e+02
-1.053299999999999983e+02
-4.664000000000000057e+01
7.370000000000000107e+00
6.773000000000000398e+01
1.514000000000000057e+01
-3.395000000000000284e+01
7.176999999999999602e+01
7.495000000000000284e+01
-1.117000000000000028e+02
3.638000000000000256e+01
2.051999999999999957e+01
-3.770000000000000284e+01
3.044999999999999929e+01
6.903000000000000114e+01
-6.876000000000000512e+01
1.452999999999999936e+01
-5.679999999999999716e+00
-1.336699999999999875e+02
7.184999999999999432e+01
1.244800000000000040e+02
2.144000000000000128e+01
7.965999999999999659e+01
-1.747899999999999920e+02
4.625999999999999801e+01
-1.984499999999999886e+02
-8.717000000000000171e+01
1.996000000000000085e+01
1.143999999999999950e+01
-2.580999999999999872e+01
2.514000000000000057e+01
9.980000000000000426e+00
-1.403999999999999915e+01
3.729999999999999716e+01
7.184999999999999432e+01
3.463000000000000256e+01
4.538000000000000256e+01
-1.018900000000000006e+02
-2.930000000000000071e+01
-1.719999999999999929e+01
-1.034999999999999964e+01
2.798000000000000043e+01
-7.009999999999999787e+00
6.620000000000000107e+00
4.453999999999999915e+01
-2.629999999999999893e+00
1.530000000000000071e+01
1.137600000000000051e+02
4.849999999999999645e+00
-1.018199999999999932e+02
6.929999999999999716e+00
-4.700000000000000178e+00
-8.581999999999999318e+01
5.480000000000000426e+00
9.990000000000000213e+00
-3.390000000000000124e+00
-1.191000000000000014e+01
6.067000000000000171e+01
-6.926000000000000512e+01
2.500000000000000000e-01
1.305999999999999943e+02
-1.260999999999999943e+01
-1.237600000000000051e+02
-1.523899999999999864e+02
-3.073999999999999844e+01
1.042300000000000040e+02
1.603999999999999915e+01
4.981000000000000227e+01
1.842000000000000171e+01
-1.146000000000000085e+01
1.268999999999999950e+01
2.123999999999999844e+01
1.409999999999999920e+00
-1.283000000000000007e+01
2.732000000000000028e+01
6.990000000000000213e+00
-1.210999999999999943e+01
1.581000000000000050e+01
8.269999999999999574e+00
-1.519999999999999929e+01
-1.114000000000000057e+01
2.603000000000000114e+01
2.040000000000000036e+00
-2.796000000000000085e+01
1.796999999999999886e+01
1.051999999999999957e+01
-7.089999999999999858e+00
-1.332000000000000028e+01
1.848000000000000043e+01
1.334999999999999964e+01
-1.985000000000000142e+01
7.509999999999999787e+00
1.122000000000000064e+01
1.664999999999999858e+01
1.632000000000000028e+01
-1.145100000000000051e+02
-5.700000000000000178e+00
4.735999999999999943e+01
2.748000000000000043e+01
-7.509999999999999787e+00
-2.132000000000000028e+01
-1.621000000000000085e+01
1.180000000000000071e+01
-2.720000000000000195e+00
-1.798000000000000043e+01
1.199000000000000021e+01
1.134999999999999964e+01
-3.339999999999999858e+00
-2.560000000000000142e+01
1.764999999999999858e+01
1.728000000000000114e+01
8.299999999999999600e-01
4.214999999999999858e+01
8.609999999999999432e+01
-2.873000000000000043e+01
-1.915699999999999932e+02
2.021800000000000068e+02
-6.426000000000000512e+01
-1.073100000000000023e+02
1.762000000000000099e+01
4.913000000000000256e+01
1.848999999999999844e+01
-2.905000000000000071e+01
3.400000000000000000e+01
2.378000000000000114e+01
-3.590999999999999659e+01
8.660999999999999943e+01
-7.010999999999999943e+01
-7.879999999999999716e+01
9.464000000000000057e+01
4.582000000000000028e+01
-4.669999999999999929e+00
-5.085999999999999943e+01
4.096999999999999886e+01
2.137000000000000099e+01
2.158999999999999986e+01
3.739000000000000057e+01
3.169999999999999929e+00
5.980000000000000426e+00
2.591000000000000014e+01
1.639000000000000057e+01
4.232000000000000028e+01
1.025799999999999983e+02
-1.706100000000000136e+02
1.843400000000000034e+02
2.257000000000000028e+01
-4.955799999999999841e+02
3.552300000000000182e+02
-1.785000000000000142e+01
-1.094899999999999949e+02
6.071999999999999886e+01
-5.335000000000000142e+01
5.540000000000000036e+00
9.426000000000000512e+01
-3.206000000000000227e+01
-4.209000000000000341e+01
-3.094000000000000128e+01
-2.142000000000000171e+01
-1.390900000000000034e+02
2.454799999999999898e+02
-7.675000000000000000e+01
-1.886399999999999864e+02
2.066500000000000057e+02
-1.011500000000000057e+02
1.180300000000000011e+02
7.854999999999999716e+01
-1.504900000000000091e+02
-9.225000000000000000e+01
5.038000000000000256e+01
-1.926100000000000136e+02
-1.400000000000000000e+02
-1.465600000000000023e+02
1.547100000000000080e+02
1.678600000000000136e+02
1.423100000000000023e+02
8.754000000000000625e+01
2.653000000000000114e+01
-2.080300000000000011e+02
-5.356699999999999591e+02
2.043300000000000125e+02
1.706899999999999977e+02
-3.204999999999999716e+01
4.036999999999999744e+01
7.520999999999999375e+01
3.627000000000000313e+01
6.443000000000000682e+01
7.809000000000000341e+01
7.909000000000000341e+01
-1.324099999999999966e+02
-6.120000000000000107e+00
1.265000000000000036e+01
-6.059000000000000341e+01
3.978999999999999915e+01
4.395000000000000284e+01
3.295000000000000284e+01
-1.253999999999999915e+01
1.046899999999999977e+02
-1.233700000000000045e+02
-1.577299999999999898e+02
1.789300000000000068e+02
2.223000000000000043e+01
-5.557000000000000028e+01
4.954999999999999716e+01
-6.698000000000000398e+01
6.800000000000000488e-01
2.230500000000000114e+02
1.419000000000000057e+02
-2.404799999999999898e+02
-3.220600000000000023e+02
1.704900000000000091e+02
-6.261999999999999744e+01
-5.769999999999999574e+00
-3.799000000000000199e+01
4.956000000000000227e+01
1.168999999999999950e+01
-6.224000000000000199e+01
3.395000000000000284e+01
3.722999999999999687e+01
3.259999999999999787e+00
1.455000000000000071e+01
1.100000000000000089e+00
-6.379999999999999893e+00
-2.350000000000000089e+00
4.593500000000000227e+02
2.315900000000000034e+02
-1.523799999999999955e+02
-4.952599999999999909e+02
-1.456599999999999966e+02
-3.094999999999999929e+01
3.473399999999999750e+02
1.773100000000000023e+02
2.710999999999999943e+01
-3.119999999999999929e+01
-2.072199999999999989e+02
-3.671499999999999773e+02
-9.017999999999999545e+02
3.965000000000000000e+02
1.448300000000000125e+02
4.536999999999999744e+01
1.461100000000000136e+02
1.811899999999999977e+02
3.276800000000000068e+02
-1.330500000000000114e+02
-3.389499999999999886e+02
9.409000000000000341e+01
-4.164000000000000057e+01
-3.700000000000000178e+00
-1.029000000000000057e+02
8.134000000000000341e+01
5.788000000000000256e+01
5.089000000000000057e+01
1.450000000000000000e+01
-1.041200000000000045e+02
1.680300000000000011e+02
2.068199999999999932e+02
1.095999999999999943e+02
-2.106699999999999875e+02
-3.206999999999999886e+02
-4.089999999999999858e+01
1.779199999999999875e+02
-5.490000000000000213e+00
1.569499999999999886e+02
-3.834300000000000068e+02
2.595500000000000114e+02
-7.525000000000000000e+01
-1.823300000000000125e+02
-8.695000000000000284e+01
2.730899999999999750e+02
2.242999999999999972e+01
7.204999999999999716e+01
-1.003599999999999994e+02
1.188000000000000078e+01
-2.089999999999999858e+00
3.317000000000000171e+01
-6.019999999999999574e+00
-5.085000000000000142e+01
1.705000000000000071e+01
1.463000000000000078e+01
-2.682999999999999829e+01
1.045799999999999983e+02
-3.490999999999999659e+01
-4.967999999999999972e+01
4.663000000000000256e+01
6.021999999999999886e+01
9.100000000000000311e-01
-1.908999999999999986e+01
4.450000000000000000e+01
-9.990000000000000213e+00
-2.005999999999999872e+01
3.121000000000000085e+01
4.440000000000000391e+00
-1.676000000000000156e+01
-1.400999999999999979e+01
9.929999999999999716e+00
-8.929999999999999716e+00
-2.782999999999999829e+01
1.018999999999999950e+01
3.919999999999999929e+00
1.899999999999999911e+00
-1.457000000000000028e+01
1.689000000000000057e+01
-7.700000000000000178e-01
-1.448000000000000043e+01
5.600000000000000533e-01
2.098000000000000043e+01
2.932999999999999829e+01
-4.284000000000000341e+01
-1.443999999999999950e+01
-8.869999999999999218e+00
-1.425999999999999979e+01
-2.342999999999999972e+01
2.357000000000000028e+01
1.637999999999999901e+01
-1.477999999999999936e+01
-7.419999999999999929e+00
1.948999999999999844e+01
1.086999999999999922e+01
-1.812999999999999901e+01
9.509999999999999787e+00
3.060000000000000053e+00
-2.342999999999999972e+01
-8.820000000000000284e+00
2.210000000000000142e+01
-7.900000000000000355e+00
-5.122999999999999687e+01
2.539000000000000057e+01
1.816000000000000014e+01
1.000000000000000000e+00
-8.699999999999999956e-01
-4.299999999999999933e-01
-3.800000000000000044e-01
-3.599999999999999867e-01
-3.400000000000000244e-01
-3.300000000000000155e-01
-3.099999999999999978e-01
-2.999999999999999889e-01
-2.899999999999999800e-01
-2.700000000000000178e-01
-4.500000000000000111e-01
-1.790000000000000036e+00
-6.719999999999999751e+00
-2.542000000000000171e+01
-1.584999999999999964e+01
7.576999999999999602e+01
-5.359000000000000341e+01
-3.913000000000000256e+01
6.856000000000000227e+01
-1.100000000000000006e-01
-1.416800000000000068e+02
4.175000000000000000e+01
1.212600000000000051e+02
2.120300000000000011e+02
-1.773899999999999864e+02
-8.887999999999999545e+01
4.967999999999999972e+01
1.106000000000000050e+01
1.148400000000000034e+02
6.300000000000000000e+01
-3.496200000000000045e+02
-3.900999999999999801e+01
3.105000000000000071e+01
-1.909999999999999920e+00
-2.005000000000000071e+01
4.596999999999999886e+01
4.214000000000000057e+01
1.671000000000000085e+01
1.836899999999999977e+02
1.734199999999999875e+02
-4.413299999999999841e+02
-9.406000000000000227e+01
6.317999999999999972e+01
1.277999999999999936e+01
-3.196999999999999886e+01
5.089000000000000057e+01
3.467000000000000171e+01
-1.439999999999999947e+00
2.646999999999999886e+01
-2.819999999999999840e+00
-6.580000000000000071e+00
-1.400000000000000000e+01
3.517999999999999972e+01
9.880000000000000782e+00
-5.928999999999999915e+01
5.169999999999999929e+00
-2.682999999999999829e+01
-1.098000000000000043e+01
2.799999999999999822e+00
2.466000000000000014e+01
9.970000000000000639e+00
2.490000000000000213e+00
3.182000000000000028e+01
2.403999999999999915e+01
-1.239000000000000057e+01
-4.756000000000000227e+01
7.740000000000000213e+00
-1.575000000000000000e+01
-1.637000000000000099e+01
2.148000000000000043e+01
2.526999999999999957e+01
1.380000000000000071e+01
-4.535999999999999943e+01
2.869000000000000128e+01
-1.530000000000000027e+00
1.953999999999999915e+01
-4.877000000000000313e+01
1.532000000000000028e+01
7.712000000000000455e+01
1.157900000000000063e+02
-3.163500000000000227e+02
-7.829000000000000625e+01
1.129599999999999937e+02
-1.575000000000000000e+01
5.040999999999999659e+01
2.459999999999999964e+00
1.270000000000000018e+00
5.167999999999999972e+01
-1.982000000000000028e+01
-6.397999999999999687e+01
2.404099999999999966e+02
3.759399999999999977e+02
-8.412000000000000455e+01
-4.092300000000000182e+02
-4.543999999999999773e+01
-2.460000000000000142e+01
-1.892999999999999972e+01
-1.219999999999999929e+01
-1.285999999999999943e+01
-1.566000000000000014e+01
-2.453000000000000114e+01
5.147999999999999687e+01
1.009300000000000068e+02
1.534099999999999966e+02
-6.018999999999999773e+01
-6.584500000000000455e+02
-8.145299999999999727e+02
6.057300000000000182e+02
3.092599999999999909e+02
6.782999999999999829e+01
-4.109000000000000341e+01
-2.257000000000000028e+01
3.960999999999999943e+01
7.990000000000000213e+00
-5.553999999999999915e+01
5.003999999999999915e+01
4.857000000000000028e+01
1.159999999999999920e+00
-2.833999999999999986e+01
3.110999999999999943e+01
1.326999999999999957e+01
-2.903000000000000114e+01
1.077999999999999936e+01
3.950000000000000000e+01
7.519999999999999574e+00
-5.382999999999999829e+01
6.067000000000000171e+01
7.760999999999999943e+01
-2.742000000000000171e+01
5.321999999999999886e+01
5.900000000000000000e+01
-5.500000000000000000e+01
-1.608499999999999943e+02
1.884799999999999898e+02
2.931499999999999773e+02
5.907000000000000028e+01
-9.700000000000000000e+01
-5.730399999999999636e+02
1.630699999999999932e+02
7.920999999999999375e+01
-8.512000000000000455e+01
-4.805199999999999818e+02
-5.070000000000000284e+01
3.665699999999999932e+02
1.442899999999999920e+02
6.096999999999999886e+01
4.169999999999999929e+00
8.299999999999999600e-01
-1.300000000000000000e+01
2.430000000000000160e+00
2.740000000000000213e+00
3.875000000000000000e+01
1.642000000000000171e+01
-1.805999999999999872e+01
-5.099999999999999645e+00
8.369999999999999218e+00
-1.762999999999999901e+01
-3.128000000000000114e+01
2.539999999999999858e+01
8.949999999999999289e+00
1.033000000000000007e+01
1.832000000000000028e+01
5.046000000000000085e+01
-1.450000000000000000e+01
-5.603999999999999915e+01
1.632000000000000028e+01
3.967000000000000171e+01
-2.164000000000000057e+01
-1.152999999999999972e+02
2.953000000000000114e+01
-1.376999999999999957e+01
4.600999999999999801e+01
3.914999999999999858e+01
1.062900000000000063e+02
-4.639000000000000057e+01
3.130999999999999872e+01
-3.247400000000000091e+02
-1.913100000000000023e+02
-5.034000000000000341e+01
5.881000000000000227e+01
-1.796000000000000085e+01
9.573999999999999488e+01
-3.797999999999999687e+01
5.406000000000000227e+01
9.560000000000000497e+00
-6.812000000000000455e+01
2.782000000000000028e+01
3.678999999999999915e+01
6.429999999999999716e+00
-3.397999999999999687e+01
1.841000000000000014e+01
6.526999999999999602e+01
9.148000000000000398e+01
4.839000000000000057e+01
-4.442099999999999795e+02
1.678300000000000125e+02
3.395000000000000284e+01
-3.264000000000000057e+01
5.047999999999999687e+01
-1.165999999999999943e+02
-5.607999999999999829e+01
4.832999999999999829e+01
3.582000000000000028e+01
-8.887999999999999545e+01
-2.651000000000000156e+01
2.190500000000000114e+02
1.309300000000000068e+02
5.421000000000000085e+01
8.298000000000000398e+01
1.198000000000000043e+01
-2.991000000000000227e+02
-3.598899999999999864e+02
4.852000000000000313e+01
-3.970000000000000284e+01
2.037000000000000099e+01
1.207500000000000000e+02
3.856000000000000227e+01
-4.184000000000000341e+01
6.285999999999999943e+01
-3.207000000000000028e+01
-7.210999999999999943e+01
1.190000000000000036e+01
1.951100000000000136e+02
7.209000000000000341e+01
-6.046000000000000085e+01
-2.443600000000000136e+02
-4.599999999999999645e+00
7.629999999999999716e+01
1.256599999999999966e+02
9.950000000000000000e+01
-3.293399999999999750e+02
2.077100000000000080e+02
1.606200000000000045e+02
-9.020999999999999375e+01
-1.477199999999999989e+02
1.090499999999999972e+02
9.998999999999999488e+01
-1.319999999999999929e+01
-6.612999999999999545e+01
1.253900000000000006e+02
8.439000000000000057e+01
-2.089799999999999898e+02
-2.848000000000000043e+01
1.144800000000000040e+02
-5.789000000000000057e+01
9.821999999999999886e+01
3.360299999999999727e+02
-2.029199999999999875e+02
-5.725999999999999801e+01
4.121000000000000085e+01
-6.728000000000000114e+01
1.049800000000000040e+02
9.519999999999999574e+00
-6.102000000000000313e+01
2.933999999999999986e+01
-2.652099999999999795e+02
3.228999999999999915e+01
6.968000000000000682e+01
6.157999999999999829e+01
1.729000000000000057e+02
-5.621000000000000085e+01
2.659700000000000273e+02
1.181899999999999977e+02
-1.157500000000000000e+02
-4.497699999999999818e+02
-1.060999999999999943e+02
3.420000000000000000e+02
-1.513799999999999955e+02
-2.267500000000000000e+02
6.918000000000000682e+01
-8.181000000000000227e+01
2.626000000000000156e+01
1.189599999999999937e+02
1.233900000000000006e+02
8.987999999999999545e+01
4.146999999999999886e+01
-5.147999999999999687e+01
2.218300000000000125e+02
5.985299999999999727e+02
2.249099999999999966e+02
-8.687799999999999727e+02
-5.978999999999999915e+01
2.271699999999999875e+02
-1.176400000000000006e+02
-6.695000000000000000e+02
2.676600000000000250e+02
3.327000000000000313e+01
1.950800000000000125e+02
7.107999999999999829e+01
-1.510500000000000114e+02
-2.425300000000000011e+02
-1.224500000000000028e+02
-8.565999999999999659e+01
1.083100000000000023e+02
1.869300000000000068e+02
2.764000000000000057e+01
-1.590000000000000036e+01
8.109000000000000341e+01
-3.962900000000000205e+02
9.040999999999999659e+01
5.275999999999999801e+01
1.787100000000000080e+02
-1.546200000000000045e+02
1.362299999999999898e+02
2.958500000000000227e+02
7.780000000000000249e+00
-3.813100000000000023e+02
1.992899999999999920e+02
-3.233299999999999841e+02
-1.259300000000000068e+02
-1.734000000000000057e+02
1.779000000000000057e+02
1.440800000000000125e+02
3.754399999999999977e+02
-1.674499999999999886e+02
-1.036800000000000068e+02
1.206700000000000017e+02
-9.006000000000000227e+01
-2.740099999999999909e+02
2.289900000000000091e+02
-1.070400000000000063e+02
-6.260999999999999943e+01
-3.330899999999999750e+02
2.472500000000000000e+02
2.959999999999999964e+00
2.015699999999999932e+02
2.194999999999999929e+01
2.653000000000000114e+01
3.833299999999999841e+02
-2.693100000000000023e+02
-3.359700000000000273e+02
1.430900000000000034e+02
-8.345999999999999375e+01
4.070000000000000284e+01
6.879000000000000625e+01
-8.504999999999999716e+01
5.232000000000000028e+01
1.295099999999999909e+02
7.523999999999999488e+01
-4.910999999999999943e+01
-2.846000000000000227e+02
1.959099999999999966e+02
1.106700000000000017e+02
4.256000000000000227e+01
-8.993000000000000682e+01
-4.559200000000000159e+02
-8.145999999999999375e+01
1.408300000000000125e+02
6.167999999999999972e+01
-1.942500000000000000e+02
8.695000000000000284e+01
1.796000000000000085e+01
-6.286999999999999744e+01
6.757999999999999829e+01
3.221000000000000085e+01
-2.326000000000000156e+01
8.340000000000000568e+01
1.760000000000000009e+00
-4.088000000000000256e+01
3.425000000000000000e+01
-2.673000000000000043e+01
-5.585000000000000142e+01
4.995000000000000284e+01
4.657999999999999829e+01
-2.996999999999999886e+01
-2.189999999999999858e+01
6.631999999999999318e+01
-4.054999999999999716e+01
5.053999999999999915e+01
4.046999999999999886e+01
-9.543999999999999773e+01
3.889000000000000057e+01
1.932999999999999829e+01
4.259999999999999787e+00
7.223000000000000398e+01
-5.100000000000000000e+01
-2.026999999999999957e+01
5.978000000000000114e+01
-1.340000000000000036e+01
6.576000000000000512e+01
1.226500000000000057e+02
2.877599999999999909e+02
-1.503999999999999915e+01
1.051999999999999957e+01
-1.685099999999999909e+02
-2.445300000000000011e+02
-1.821100000000000136e+02
-1.644000000000000128e+01
1.172399999999999949e+02
-8.810000000000000497e+00
1.807000000000000028e+01
-1.371500000000000057e+02
-1.280000000000000027e+00
1.006200000000000045e+02
-3.536999999999999744e+01
9.201000000000000512e+01
2.022199999999999989e+02
-1.429499999999999886e+02
-1.229300000000000068e+02
1.831200000000000045e+02
-1.606500000000000057e+02
-1.317999999999999972e+01
-1.289799999999999898e+02
-8.486900000000000546e+02
6.895199999999999818e+02
5.228999999999999773e+02
-2.821999999999999886e+01
2.076999999999999886e+02
1.837599999999999909e+02
-3.723999999999999773e+02
1.583000000000000114e+02
-3.340999999999999659e+01
-1.463799999999999955e+02
-3.083999999999999986e+01
-1.076899999999999977e+02
-2.366000000000000014e+01
-1.439000000000000057e+02
5.438000000000000256e+01
4.347099999999999795e+02
3.792000000000000171e+01
-3.083299999999999841e+02
1.078700000000000045e+02
-1.975000000000000000e+01
1.375699999999999932e+02
-1.588199999999999932e+02
-4.839999999999999858e+01
3.308000000000000114e+02
1.230000000000000000e+02
-1.127800000000000011e+02
-1.375399999999999920e+02
-1.200000000000000000e+02
4.780000000000000249e+00
-5.668999999999999773e+01
-1.244999999999999929e+01
1.385999999999999943e+02
-2.173000000000000043e+01
-4.952000000000000313e+01
1.095699999999999932e+02
-4.724000000000000199e+01
-7.812999999999999545e+01
3.677000000000000313e+01
-8.609000000000000341e+01
1.091400000000000006e+02
-4.150000000000000355e+00
5.902000000000000313e+01
-3.198000000000000043e+01
-1.394300000000000068e+02
1.788100000000000023e+02
-6.269999999999999574e+00
-1.122900000000000063e+02
1.210900000000000034e+02
1.483400000000000034e+02
2.689999999999999947e+00
-4.950000000000000000e+01
5.090999999999999659e+01
2.355000000000000000e+02
-5.125000000000000000e+01
-8.706999999999999318e+01
-4.116600000000000250e+02
3.189000000000000057e+01
2.223400000000000034e+02
1.341899999999999977e+02
-4.390000000000000000e+02
-1.672700000000000102e+02
-5.825999999999999801e+01
2.089000000000000057e+02
2.919900000000000091e+02
1.853799999999999955e+02
-2.875500000000000114e+02
2.846000000000000085e+01
4.535799999999999841e+02
-4.271000000000000085e+01
-6.506799999999999500e+02
-7.909000000000000341e+01
4.664999999999999858e+01
3.562599999999999909e+02
3.151000000000000227e+02
-1.400500000000000114e+02
-9.695999999999999375e+01
1.495600000000000023e+02
2.038199999999999932e+02
2.874200000000000159e+02
-4.867799999999999727e+02
2.835400000000000205e+02
1.725000000000000000e+02
-1.570600000000000023e+02
-7.675299999999999727e+02
3.582799999999999727e+02
3.845000000000000000e+02
3.907300000000000182e+02
-1.078499999999999943e+02
-9.050000000000000000e+01
2.449300000000000068e+02
-4.664999999999999858e+01
-1.066599999999999966e+02
5.728000000000000114e+01
-5.290000000000000036e+00
-2.803000000000000114e+01
2.294999999999999929e+01
1.658600000000000136e+02
-3.781000000000000227e+01
-1.735900000000000034e+02
-6.199999999999999956e-01
-7.334000000000000341e+01
1.039099999999999966e+02
7.117000000000000171e+01
1.051299999999999955e+02
2.030000000000000071e+01
-2.423300000000000125e+02
-3.101899999999999977e+02
2.682300000000000182e+02
1.719999999999999929e+01
-3.299399999999999977e+02
3.019000000000000128e+01
1.754199999999999875e+02
6.839999999999999858e+00
2.973000000000000114e+02
-1.111200000000000045e+02
-3.700500000000000114e+02
1.543499999999999943e+02
1.350000000000000000e+02
-3.380799999999999841e+02
1.722500000000000000e+02
1.668600000000000136e+02
-2.166200000000000045e+02
1.744300000000000068e+02
-7.221999999999999886e+01
3.221000000000000085e+01
5.150999999999999801e+01
1.053799999999999955e+02
-2.536299999999999955e+02
-6.950000000000000178e+00
2.040300000000000011e+02
-2.370399999999999920e+02
1.640600000000000023e+02
-2.042299999999999898e+02
-9.223000000000000398e+01
1.507100000000000080e+02
-7.795000000000000284e+01
9.849999999999999645e+00
4.027000000000000313e+01
-4.990999999999999659e+01
-1.415000000000000036e+01
2.330099999999999909e+02
-1.290900000000000034e+02
-1.986899999999999977e+02
-1.944000000000000128e+01
9.770000000000000284e+01
9.698000000000000398e+01
5.450000000000000000e+01
-9.740000000000000568e+01
-9.645999999999999375e+01
9.793000000000000682e+01
-7.973000000000000398e+01
8.879999999999999716e+01
-1.539199999999999875e+02
2.144000000000000128e+01
9.121999999999999886e+01
7.204999999999999716e+01
1.699999999999999956e+00
-1.020000000000000000e+02
1.845600000000000023e+02
6.000999999999999801e+01
-1.694300000000000068e+02
-8.139000000000000057e+01
6.063000000000000256e+01
1.168799999999999955e+02
9.406999999999999318e+01
-2.127400000000000091e+02
-4.640999999999999659e+01
7.168000000000000682e+01
2.615099999999999909e+02
1.051999999999999957e+01
-2.524600000000000080e+02
1.940300000000000011e+02
2.764200000000000159e+02
-1.685699999999999932e+02
-9.849999999999999645e+00
-4.833600000000000136e+02
1.213199999999999932e+02
2.065900000000000034e+02
1.473000000000000114e+02
1.027399999999999949e+02
-3.367000000000000171e+01
-2.167999999999999972e+01
5.870000000000000107e+00
4.771999999999999886e+01
1.469399999999999977e+02
2.761100000000000136e+02
-8.314000000000000057e+01
-2.452500000000000000e+02
6.914000000000000057e+01
-1.700999999999999943e+02
-1.719499999999999886e+02
3.346499999999999773e+02
1.958400000000000034e+02
3.520000000000000018e+00
-2.839700000000000273e+02
-6.754000000000000625e+01
3.550000000000000000e+01
4.982999999999999829e+01
1.257099999999999937e+02
-3.917699999999999818e+02
1.827800000000000011e+02
1.901899999999999977e+02
-1.803300000000000125e+02
-3.069999999999999929e+01
-1.602100000000000080e+02
-6.635999999999999943e+01
1.939499999999999886e+02
-6.657999999999999829e+01
2.637000000000000099e+01
-2.328899999999999864e+02
6.393999999999999773e+01
5.924000000000000199e+01
9.239000000000000057e+01
-2.311299999999999955e+02
-7.490000000000000568e+01
2.038700000000000045e+02
9.695999999999999375e+01
1.062099999999999937e+02
-3.302699999999999818e+02
-2.319000000000000128e+01
1.393300000000000125e+02
1.299000000000000021e+01
4.268999999999999773e+02
-4.278199999999999932e+02
-7.415999999999999659e+01
9.151999999999999602e+01
-1.698499999999999943e+02
2.843299999999999841e+02
-3.343899999999999864e+02
-3.621000000000000085e+01
2.576299999999999955e+02
-7.865000000000000568e+01
-1.903700000000000045e+02
2.052800000000000011e+02
5.511999999999999744e+01
-8.200000000000000000e+01
2.792000000000000171e+01
3.339000000000000057e+01
-6.820000000000000284e+01
3.542000000000000171e+01
1.574000000000000021e+01
-4.934000000000000341e+01
3.117999999999999972e+01
1.593999999999999950e+01
-2.410999999999999943e+01
1.143999999999999950e+01
4.189999999999999858e+01
1.139000000000000057e+01
8.950000000000000000e+01
1.910800000000000125e+02
-2.106100000000000136e+02
-3.889999999999999858e+01
-2.125800000000000125e+02
1.285500000000000114e+02
-8.170000000000000284e+01
-3.404999999999999716e+01
3.224499999999999886e+02
2.725000000000000000e+01
-3.774599999999999795e+02
-7.354999999999999716e+01
4.089800000000000182e+02
-1.009800000000000040e+02
-7.715999999999999659e+01
-5.814000000000000057e+01
2.200099999999999909e+02
1.606200000000000045e+02
2.598000000000000043e+01
1.608499999999999943e+02
1.342299999999999898e+02
-5.136999999999999744e+01
-1.989799999999999898e+02
-5.928700000000000045e+02
-7.600000000000000000e+01
2.235500000000000114e+02
4.104800000000000182e+02
-6.392000000000000171e+01
-3.208000000000000114e+02
4.456000000000000227e+01
3.866899999999999977e+02
-1.921200000000000045e+02
-4.017000000000000171e+01
-5.875999999999999801e+01
1.661800000000000068e+02
4.165999999999999659e+01
1.380900000000000034e+02
-1.785500000000000114e+02
1.693400000000000034e+02
1.397500000000000000e+02
4.734000000000000341e+01
1.762899999999999920e+02
-3.689700000000000273e+02
-1.439099999999999966e+02
-2.229799999999999898e+02
-2.353999999999999915e+01
8.954000000000000625e+01
1.757400000000000091e+02
1.576500000000000057e+02
1.031500000000000057e+02
-2.248199999999999932e+02
1.116700000000000017e+02
4.328000000000000114e+01
-2.221100000000000136e+02
-3.375000000000000000e+01
1.619099999999999966e+02
1.959399999999999977e+02
-1.599099999999999966e+02
2.939000000000000057e+01
-4.345000000000000284e+01
-3.899999999999999911e+00
-1.050000000000000000e+01
4.053999999999999915e+01
7.339999999999999858e+00
4.378999999999999915e+01
2.021999999999999886e+01
8.730000000000000426e+00
1.718499999999999943e+02
2.520099999999999909e+02
1.225999999999999979e+01
-5.565900000000000318e+02
1.833899999999999864e+02
-2.444900000000000091e+02
8.239000000000000057e+01
2.806499999999999773e+02
1.543999999999999950e+01
1.772199999999999989e+02
-1.478999999999999915e+01
7.890999999999999659e+01
-7.392000000000000171e+01
-5.785800000000000409e+02
-6.756999999999999318e+01
2.260900000000000034e+02
3.248100000000000023e+02
-1.737000000000000099e+01
1.000000000000000000e+01
2.729999999999999982e+00
-7.540000000000000568e+01
-6.576999999999999602e+01
2.348600000000000136e+02
-2.639000000000000057e+01
3.439999999999999947e+00
1.189099999999999966e+02
7.045000000000000284e+01
-2.764300000000000068e+02
2.094399999999999977e+02
1.417500000000000000e+02
-4.590099999999999909e+02
-1.896899999999999977e+02
3.317000000000000171e+01
-4.679999999999999716e+00
1.007699999999999960e+02
8.198000000000000398e+01
-2.448999999999999844e+01
2.061500000000000057e+02
4.065099999999999909e+02
-1.530300000000000011e+02
-1.597299999999999898e+02
-3.006499999999999773e+02
-3.433100000000000023e+02
2.248999999999999844e+01
5.305299999999999727e+02
-3.050500000000000114e+02
-4.149000000000000199e+01
-1.513300000000000125e+02
2.328700000000000045e+02
1.509699999999999989e+02
9.821999999999999886e+01
-1.279300000000000068e+02
1.145000000000000000e+02
5.488000000000000256e+01
-9.470000000000000284e+01
7.881999999999999318e+01
2.126000000000000156e+01
-8.129000000000000625e+01
1.041500000000000057e+02
7.451000000000000512e+01
-3.003999999999999915e+01
-5.821999999999999886e+01
1.782199999999999989e+02
-4.285000000000000142e+01
-9.814000000000000057e+01
-4.382999999999999829e+01
-5.681000000000000227e+01
-1.265499999999999972e+02
2.136399999999999864e+02
9.189999999999999503e+00
1.113400000000000034e+02
1.500800000000000125e+02
-7.089999999999999858e+00
-2.701399999999999864e+02
6.253999999999999915e+01
3.015099999999999909e+02
-2.668999999999999773e+02
9.289999999999999147e+00
-1.700200000000000102e+02
-1.522400000000000091e+02
6.263000000000000256e+01
1.105300000000000011e+02
-1.434099999999999966e+02
6.132999999999999829e+01
1.548700000000000045e+02
6.401000000000000512e+01
4.639999999999999680e+00
-4.219700000000000273e+02
-7.306999999999999318e+01
3.705299999999999727e+02
4.314200000000000159e+02
-4.118799999999999955e+02
-2.474000000000000057e+02
-3.339000000000000057e+01
1.146000000000000085e+01
6.579999999999999716e+01
-1.057000000000000028e+01
-2.710999999999999943e+01
1.210100000000000051e+02
1.080799999999999983e+02
-2.662900000000000205e+02
1.070799999999999983e+02
5.257000000000000028e+01
3.931000000000000227e+01
1.974000000000000057e+02
-3.660099999999999909e+02
1.470200000000000102e+02
6.540999999999999659e+01
1.183299999999999983e+02
-1.347800000000000011e+02
-5.232999999999999829e+01
-3.301499999999999773e+02
3.965999999999999659e+01
3.075799999999999841e+02
-5.345000000000000000e+02
-9.001000000000000512e+01
4.979900000000000091e+02
5.960000000000000142e+01
-4.778000000000000114e+01
7.281000000000000227e+01
4.553000000000000114e+01
-1.132399999999999949e+02
5.557000000000000028e+01
6.884999999999999432e+01
-2.998000000000000043e+01
6.969999999999999751e+00
2.271999999999999886e+01
-1.486800000000000068e+02
1.331500000000000057e+02
-9.646999999999999886e+01
-2.038700000000000045e+02
1.502500000000000000e+02
5.602000000000000313e+01
-5.614000000000000057e+01
1.155699999999999932e+02
7.190000000000000568e+01
-2.666899999999999977e+02
1.751100000000000136e+02
2.048499999999999943e+02
2.098000000000000043e+01
3.204300000000000068e+02
-4.867000000000000171e+01
-2.479699999999999989e+02
-4.321299999999999955e+02
-3.698000000000000114e+02
-9.317000000000000171e+01
4.560500000000000114e+02
5.510000000000000142e+01
-1.505500000000000114e+02
1.204899999999999949e+02
-1.448400000000000034e+02
-1.760699999999999932e+02
2.682699999999999818e+02
1.900900000000000034e+02
-2.208600000000000136e+02
-8.356000000000000227e+01
1.465999999999999943e+02
1.177999999999999972e+02
-1.885300000000000011e+02
1.877100000000000080e+02
-2.691499999999999773e+02
1.669799999999999898e+02
1.071200000000000045e+02
-2.494499999999999886e+02
1.616599999999999966e+02
-1.372199999999999989e+02
8.673000000000000398e+01
1.648600000000000136e+02
-1.512500000000000000e+02
1.548000000000000114e+02
-8.042000000000000171e+01
-1.589799999999999898e+02
6.482999999999999829e+01
4.830299999999999727e+02
-1.212099999999999937e+02
-4.776399999999999864e+02
-2.221999999999999886e+01
4.827000000000000313e+01
-7.490000000000000213e+00
4.277000000000000313e+01
-1.766000000000000014e+01
-2.385000000000000142e+01
4.946999999999999886e+01
2.173000000000000043e+01
2.135999999999999943e+01
1.542500000000000000e+02
2.579200000000000159e+02
1.979699999999999989e+02
-2.910000000000000142e+01
-8.760999999999999943e+01
-6.296000000000000085e+01
-1.937599999999999909e+02
1.092999999999999972e+02
-9.820999999999999375e+01
1.183400000000000034e+02
-3.137000000000000099e+01
-1.088400000000000034e+02
-1.192800000000000011e+02
-7.343000000000000682e+01
-4.290000000000000036e+00
-6.385000000000000142e+01
-1.567999999999999972e+01
-6.311999999999999744e+01
-1.140600000000000023e+02
3.485000000000000142e+01
4.896999999999999886e+01
4.322999999999999687e+01
1.689699999999999989e+02
-4.774800000000000182e+02
-2.337199999999999989e+02
6.150000000000000000e+01
7.607999999999999829e+01
3.959999999999999964e+00
8.034000000000000341e+01
1.699799999999999898e+02
2.797799999999999727e+02
4.378000000000000114e+01
-1.854399999999999977e+02
-1.892000000000000171e+01
3.514700000000000273e+02
1.798600000000000136e+02
8.904000000000000625e+01
-2.108999999999999986e+01
-2.758700000000000045e+02
-1.310000000000000053e+00
-4.736200000000000045e+02
-8.681999999999999318e+01
2.455800000000000125e+02
2.128499999999999943e+02
-1.847299999999999898e+02
-3.105999999999999872e+01
4.261999999999999744e+01
-2.959999999999999964e+00
1.663300000000000125e+02
-1.176200000000000045e+02
8.348999999999999488e+01
-7.910000000000000142e+00
2.588600000000000136e+02
-2.455999999999999872e+01
-5.190999999999999659e+01
-4.889300000000000068e+02
-4.067200000000000273e+02
1.107000000000000028e+01
2.875699999999999932e+02
2.886700000000000159e+02
-1.944199999999999875e+02
1.125100000000000051e+02
-7.698000000000000398e+01
-2.152700000000000102e+02
-3.507000000000000028e+01
1.850000000000000000e+01
1.663300000000000125e+02
2.709800000000000182e+02
-1.301299999999999955e+02
-2.440699999999999932e+02
8.031999999999999318e+01
2.030000000000000000e+02
-1.873999999999999844e+01
1.814000000000000057e+01
1.332800000000000011e+02
-9.503000000000000114e+01
9.798000000000000398e+01
1.265999999999999943e+02
-1.456699999999999875e+02
-1.467599999999999909e+02
-6.401999999999999602e+01
-1.988000000000000114e+02
1.540000000000000000e+02
-6.250000000000000000e+00
2.844300000000000068e+02
1.350600000000000023e+02
1.092099999999999937e+02
1.163299999999999983e+02
-2.039499999999999886e+02
-1.638899999999999864e+02
-2.643199999999999932e+02
-2.633000000000000114e+02
3.010199999999999818e+02
5.289000000000000057e+01
-3.119999999999999929e+01
3.650600000000000023e+02
3.896000000000000085e+01
-1.731800000000000068e+02
-3.507599999999999909e+02
-3.009900000000000091e+02
3.163399999999999750e+02
1.759099999999999966e+02
-1.784600000000000080e+02
1.475999999999999943e+02
3.540999999999999659e+01
-1.157300000000000040e+02
1.426500000000000057e+02
2.699800000000000182e+02
9.532999999999999829e+01
3.660999999999999943e+01
-1.643000000000000114e+02
-8.869999999999999218e+00
-5.355700000000000500e+02
-1.427100000000000080e+02
1.114599999999999937e+02
3.388500000000000227e+02
2.917099999999999795e+02
-2.360200000000000102e+02
-2.834300000000000068e+02
2.930999999999999872e+01
1.425600000000000023e+02
-1.861299999999999955e+02
2.276399999999999864e+02
8.784999999999999432e+01
-2.521000000000000085e+01
-5.440999999999999659e+01
1.778700000000000045e+02
-4.853000000000000114e+01
-6.957999999999999829e+01
-2.310999999999999943e+01
-1.178999999999999915e+01
2.926999999999999957e+01
7.204000000000000625e+01
-8.829000000000000625e+01
-3.949000000000000199e+01
6.760999999999999943e+01
3.818999999999999773e+01
-1.149699999999999989e+02
3.696999999999999886e+01
4.557999999999999829e+01
4.049999999999999822e+00
6.325999999999999801e+01
-1.520399999999999920e+02
-3.315999999999999659e+01
-2.235999999999999943e+01
4.890999999999999659e+01
-9.179999999999999716e+00
3.157999999999999829e+01
7.987000000000000455e+01
-1.196000000000000085e+01
-2.069999999999999929e+01
-1.914999999999999858e+01
-4.792999999999999972e+01
-7.217000000000000171e+01
6.523999999999999488e+01
1.017999999999999972e+01
8.689999999999999503e+00
1.946999999999999886e+01
6.143999999999999773e+01
9.056999999999999318e+01
-1.011400000000000006e+02
-3.767999999999999972e+01
-6.829999999999999716e+01
-4.278999999999999915e+01
2.885000000000000142e+01
1.003499999999999943e+02
-1.139899999999999949e+02
-4.385000000000000142e+01
3.874000000000000199e+01
7.580000000000000071e+00
-2.739000000000000057e+01
1.058299999999999983e+02
9.079999999999999716e+01
-1.771100000000000136e+02
1.810999999999999943e+01
2.151000000000000156e+01
-1.889999999999999902e+00
5.699999999999999512e-01
1.657400000000000091e+02
-3.492000000000000171e+01
-1.242099999999999937e+02
7.030000000000000249e+00
9.662000000000000455e+01
-1.252800000000000011e+02
-7.573000000000000398e+01
3.215999999999999659e+01
-1.479999999999999982e+00
-3.307000000000000028e+01
4.809000000000000341e+01
4.314000000000000057e+01
9.748000000000000398e+01
8.779999999999999361e+00
8.354999999999999716e+01
-6.850000000000000000e+01
-5.914000000000000057e+01
1.627100000000000080e+02
2.450600000000000023e+02
-9.868000000000000682e+01
-1.245000000000000000e+02
-1.930200000000000102e+02
8.339999999999999858e+00
6.773000000000000398e+01
-5.190999999999999659e+01
-3.806600000000000250e+02
-6.520000000000000284e+01
4.656899999999999977e+02
3.753999999999999915e+01
-2.316000000000000014e+01
1.015000000000000000e+02
-7.818999999999999773e+01
-8.212999999999999545e+01
4.961999999999999744e+01
1.042500000000000000e+02
2.111100000000000136e+02
-6.118999999999999773e+01
-1.419900000000000091e+02
-9.934000000000000341e+01
1.667000000000000171e+01
3.289000000000000057e+01
5.454999999999999716e+01
-1.080400000000000063e+02
-5.860000000000000320e+00
1.045600000000000023e+02
-3.649000000000000199e+01
4.610999999999999943e+01
4.682000000000000028e+01
-4.582999999999999829e+01
-7.821999999999999886e+01
9.406999999999999318e+01
1.313000000000000078e+01
-1.132999999999999972e+02
7.350000000000000000e+01
8.437999999999999545e+01
2.460000000000000142e+01
-6.530000000000000249e+00
1.144699999999999989e+02
-9.950000000000000000e+01
3.493999999999999773e+01
5.549000000000000199e+01
-1.864099999999999966e+02
-8.428000000000000114e+01
5.913000000000000256e+01
9.740000000000000213e+00
-5.140999999999999659e+01
3.649999999999999911e+00
-3.603999999999999915e+01
7.835999999999999943e+01
-3.970000000000000195e+00
5.750000000000000000e+00
-2.300000000000000100e-01
-1.987000000000000099e+01
3.709000000000000341e+01
3.482999999999999829e+01
9.606000000000000227e+01
1.501299999999999955e+02
-6.625000000000000000e+01
-1.972299999999999898e+02
-2.645199999999999818e+02
2.509399999999999977e+02
7.225000000000000000e+01
-1.448100000000000023e+02
3.185999999999999943e+01
2.201999999999999886e+02
-2.296200000000000045e+02
-6.204999999999999716e+01
3.979999999999999716e+01
-4.300000000000000000e+01
1.282899999999999920e+02
2.936399999999999864e+02
9.139000000000000057e+01
-4.839499999999999886e+02
-1.473799999999999955e+02
5.544900000000000091e+02
8.809000000000000341e+01
-1.639300000000000068e+02
-4.541999999999999886e+02
5.332000000000000028e+01
-2.593000000000000114e+02
4.893000000000000114e+02
4.164000000000000057e+01
-1.895699999999999932e+02
-2.568500000000000227e+02
1.985999999999999943e+02
-2.432000000000000028e+01
2.296500000000000057e+02
-9.998999999999999488e+01
-9.056999999999999318e+01
3.728999999999999915e+01
1.950900000000000034e+02
-1.115000000000000036e+01
-3.121999999999999886e+01
-1.974099999999999966e+02
-4.135000000000000142e+01
-3.215500000000000114e+02
2.649399999999999977e+02
4.625000000000000000e+01
-3.121299999999999955e+02
-2.326899999999999977e+02
1.057600000000000051e+02
1.488100000000000023e+02
1.227600000000000051e+02
1.505600000000000023e+02
-6.580000000000000071e+00
5.406000000000000227e+01
1.032000000000000028e+02
2.669000000000000128e+01
1.326399999999999864e+02
-2.610500000000000114e+02
-2.141000000000000014e+01
1.581399999999999864e+02
1.553400000000000034e+02
-1.819699999999999989e+02
-8.114000000000000057e+01
3.646000000000000085e+01
1.235999999999999943e+01
9.789999999999999147e+00
8.169999999999999929e+00
-1.624099999999999966e+02
-8.690999999999999659e+01
2.062899999999999920e+02
3.420000000000000284e+01
4.103999999999999915e+01
4.771000000000000085e+01
-5.592000000000000171e+01
-4.810000000000000142e+01
-7.129999999999999893e+00
2.349399999999999977e+02
1.333499999999999943e+02
-4.659000000000000341e+01
8.857999999999999829e+01
-7.337999999999999545e+01
-3.870899999999999750e+02
8.528000000000000114e+01
3.474800000000000182e+02
5.070000000000000284e+00
-1.884600000000000080e+02
-4.357000000000000028e+01
7.932999999999999829e+01
-6.121999999999999886e+01
1.384300000000000068e+02
-4.515999999999999659e+01
-2.127899999999999920e+02
-1.168999999999999950e+01
1.981500000000000057e+02
2.251100000000000136e+02
-1.327400000000000091e+02
9.584999999999999432e+01
-1.394000000000000057e+02
3.029999999999999805e+00
-3.017900000000000205e+02
-1.520000000000000000e+02
2.532599999999999909e+02
2.922799999999999727e+02
2.398799999999999955e+02
-2.477299999999999898e+02
-1.353600000000000136e+02
-9.148000000000000398e+01
3.683600000000000136e+02
-2.356999999999999886e+02
5.057999999999999829e+01
-9.698999999999999488e+01
-4.846700000000000159e+02
3.617099999999999795e+02
1.316800000000000068e+02
-2.383999999999999986e+01
7.009999999999999787e+00
-2.619999999999999929e+01
-1.243400000000000034e+02
-1.078100000000000023e+02
2.430999999999999872e+01
2.605099999999999909e+02
3.379800000000000182e+02
1.650000000000000000e+01
-8.056999999999999318e+01
-3.992999999999999972e+01
3.747999999999999687e+01
-1.130000000000000000e+02
-5.200399999999999636e+02
2.220099999999999909e+02
1.438600000000000136e+02
1.339499999999999886e+02
-2.271399999999999864e+02
-2.988100000000000023e+02
1.849399999999999977e+02
2.430399999999999920e+02
-6.152000000000000313e+01
-1.039099999999999966e+02
9.100000000000000311e-01
-1.091700000000000017e+02
4.075000000000000000e+01
1.214899999999999949e+02
-2.137999999999999901e+01
-1.463000000000000078e+01
8.278000000000000114e+01
3.300000000000000000e+01
-3.075000000000000000e+01
1.869999999999999929e+01
2.133999999999999986e+01
-1.898000000000000043e+01
-1.402999999999999936e+01
2.405000000000000071e+01
-3.000000000000000000e+00
-3.386999999999999744e+01
3.343999999999999773e+01
8.269999999999999574e+00
-2.260999999999999943e+01
1.244999999999999929e+01
1.873000000000000043e+01
-7.809999999999999609e+00
-3.446999999999999886e+01
2.530999999999999872e+01
5.969999999999999751e+00
-2.432000000000000028e+01
2.576000000000000156e+01
6.607999999999999829e+01
1.289000000000000057e+02
-5.825000000000000000e+01
-1.725000000000000000e+01
-1.868100000000000023e+02
2.012000000000000099e+01
-1.670000000000000000e+02
1.758899999999999864e+02
4.585999999999999943e+01
-1.626599999999999966e+02
-8.087999999999999545e+01
1.600900000000000034e+02
-7.053000000000000114e+01
-6.748999999999999488e+01
-9.209000000000000341e+01
-8.900000000000000000e+01
5.980000000000000426e+00
1.153900000000000006e+02
4.003999999999999773e+02
-8.100000000000000000e+01
1.098900000000000006e+02
-2.607000000000000028e+01
1.857999999999999829e+01
-2.121800000000000068e+02
-2.733899999999999864e+02
4.517999999999999972e+01
-5.542999999999999972e+01
-1.495500000000000114e+02
4.542799999999999727e+02
-2.836499999999999773e+02
-3.392000000000000171e+01
6.710599999999999454e+02
2.022199999999999989e+02
-7.501999999999999602e+01
-1.073799999999999955e+02
2.080000000000000071e+00
-3.564800000000000182e+02
-2.452299999999999898e+02
8.929000000000000625e+01
-8.556999999999999318e+01
9.054999999999999716e+01
4.947999999999999687e+01
3.527000000000000313e+01
-7.187999999999999545e+01
1.134999999999999964e+01
-9.601000000000000512e+01
-2.818899999999999864e+02
-2.779599999999999795e+02
4.680199999999999818e+02
1.914999999999999858e+01
-6.629999999999999893e+00
-5.589999999999999858e+01
-1.309999999999999964e+01
7.104999999999999716e+01
1.982999999999999829e+01
2.955000000000000071e+01
1.102999999999999936e+01
9.589999999999999858e+00
9.773999999999999488e+01
-4.593999999999999773e+01
1.880600000000000023e+02
-2.126800000000000068e+02
-3.849499999999999886e+02
-1.197000000000000064e+01
2.080300000000000011e+02
3.268299999999999841e+02
-1.991800000000000068e+02
-6.565000000000000568e+01
-4.445000000000000000e+02
-1.234200000000000017e+02
8.979999999999999716e+01
3.910099999999999909e+02
1.247999999999999972e+02
-6.389999999999999680e+00
1.846000000000000085e+01
3.907999999999999829e+01
-1.461999999999999922e+01
-3.021000000000000085e+01
4.203999999999999915e+01
4.438000000000000256e+01
-1.753999999999999915e+01
6.809000000000000341e+01
-4.174100000000000250e+02
1.159599999999999937e+02
7.142000000000000171e+01
3.767000000000000171e+01
4.000000000000000083e-02
-6.114000000000000057e+01
8.587999999999999545e+01
-2.419999999999999929e+01
-5.396000000000000085e+01
2.067000000000000171e+01
6.129999999999999893e+00
-4.067000000000000171e+01
-6.956999999999999318e+01
3.532999999999999829e+01
1.083000000000000007e+01
-3.828999999999999915e+01
2.483999999999999986e+01
-6.999999999999999556e-01
-6.679999999999999716e+00
-2.667999999999999972e+01
1.805999999999999872e+01
7.280000000000000249e+00
-1.873000000000000043e+01
1.019999999999999929e+01
1.498000000000000043e+01
-7.910000000000000142e+00
-3.293999999999999773e+01
2.300000000000000000e+01
1.382000000000000028e+01
-2.023999999999999844e+01
2.221999999999999886e+01
2.587999999999999901e+01
-1.826000000000000156e+01
-3.779999999999999716e+01
3.108999999999999986e+01
5.870000000000000107e+00
-3.404999999999999716e+01
2.496000000000000085e+01
4.179999999999999716e+01
9.531999999999999318e+01
2.412400000000000091e+02
-4.524000000000000199e+01
-1.433400000000000034e+02
-9.617000000000000171e+01
2.333799999999999955e+02
9.657999999999999829e+01
-2.937300000000000182e+02
-8.846999999999999886e+01
-6.190000000000000391e+00
6.110000000000000320e+00
5.200000000000000178e+00
4.839999999999999858e+00
4.509999999999999787e+00
4.209999999999999964e+00
3.950000000000000178e+00
3.700000000000000178e+00
3.479999999999999982e+00
3.259999999999999787e+00
3.080000000000000071e+00
1.120000000000000107e+00
-5.540000000000000036e+00
-3.189000000000000057e+01
-1.097099999999999937e+02
1.144200000000000017e+02
9.006000000000000227e+01
-1.542400000000000091e+02
1.172500000000000000e+02
1.367999999999999972e+01
5.061999999999999744e+01
-3.470000000000000284e+01
2.130900000000000034e+02
2.017199999999999989e+02
-2.566299999999999955e+02
-1.154300000000000068e+02
-2.610000000000000142e+01
2.803999999999999915e+01
3.535999999999999943e+01
1.505999999999999943e+02
-4.099000000000000199e+01
-2.603399999999999750e+02
6.018999999999999773e+01
1.652500000000000000e+02
-1.286299999999999955e+02
-1.776800000000000068e+02
2.682200000000000273e+02
2.390000000000000124e+00
-2.132899999999999920e+02
8.923999999999999488e+01
3.535000000000000142e+01
-8.798000000000000398e+01
1.889799999999999898e+02
-1.226500000000000057e+02
1.342700000000000102e+02
3.930000000000000160e+00
1.406800000000000068e+02
-6.104999999999999716e+01
-4.884300000000000068e+02
1.885200000000000102e+02
1.645399999999999920e+02
-9.807999999999999829e+01
-9.568000000000000682e+01
1.145699999999999932e+02
8.062999999999999545e+01
5.049000000000000199e+01
5.411999999999999744e+01
-8.198000000000000398e+01
1.661699999999999875e+02
-2.032500000000000000e+02
-1.522599999999999909e+02
-3.084399999999999977e+02
2.243700000000000045e+02
1.896500000000000057e+02
-2.748000000000000043e+01
2.112500000000000000e+02
-9.289999999999999147e+00
-2.492000000000000171e+01
-7.535999999999999943e+01
7.981000000000000227e+01
-1.836399999999999864e+02
-2.361200000000000045e+02
1.945600000000000023e+02
1.703000000000000114e+01
-1.878400000000000034e+02
-2.635999999999999943e+01
2.131999999999999886e+02
-8.964000000000000057e+01
9.039999999999999147e+00
-1.356399999999999864e+02
-9.731000000000000227e+01
2.589000000000000057e+01
3.279999999999999716e+01
4.615999999999999659e+01
-1.023599999999999994e+02
-3.709399999999999977e+02
2.178000000000000114e+02
2.021299999999999955e+02
1.183999999999999986e+01
5.582999999999999829e+01
-2.778000000000000114e+01
-9.545000000000000284e+01
8.203000000000000114e+01
-1.081800000000000068e+02
4.192099999999999795e+02
8.775000000000000000e+01
-1.339499999999999886e+02
7.409999999999999432e+01
-1.698999999999999844e+01
2.298000000000000043e+01
1.426399999999999864e+02
8.976000000000000512e+01
-2.063600000000000136e+02
3.414000000000000057e+01
-3.141299999999999955e+02
1.599300000000000068e+02
2.577500000000000000e+02
2.514799999999999898e+02
-4.411999999999999886e+02
4.914000000000000057e+01
4.532000000000000028e+01
-5.567000000000000171e+01
9.973000000000000398e+01
-1.024399999999999977e+02
-3.288299999999999841e+02
2.320099999999999909e+02
6.379999999999999716e+01
-3.299000000000000199e+01
-3.425000000000000000e+01
-7.498999999999999488e+01
1.213199999999999932e+02
-5.114999999999999858e+01
4.954999999999999716e+01
1.530000000000000027e+00
-2.073999999999999844e+01
2.996000000000000085e+01
1.648999999999999844e+01
-9.665999999999999659e+01
2.835000000000000142e+01
6.530000000000000249e+00
-1.605999999999999872e+01
-4.389999999999999858e+01
-3.352000000000000313e+01
3.740000000000000213e+00
7.951999999999999602e+01
6.826999999999999602e+01
-4.750000000000000000e+00
7.543999999999999773e+01
1.192999999999999972e+01
-1.994000000000000128e+01
-1.641899999999999977e+02
4.525000000000000000e+01
3.814999999999999858e+01
-5.136999999999999744e+01
5.167999999999999972e+01
4.421000000000000085e+01
-3.375000000000000000e+01
3.419999999999999929e+00
-1.183000000000000007e+01
-3.075000000000000000e+01
8.376000000000000512e+01
1.385399999999999920e+02
-3.008999999999999986e+01
-1.471899999999999977e+02
-7.235999999999999943e+01
-1.705999999999999872e+01
-9.251999999999999602e+01
-2.212999999999999901e+01
-1.092600000000000051e+02
1.199399999999999977e+02
2.810899999999999750e+02
3.471000000000000085e+01
-9.718000000000000682e+01
-5.682999999999999829e+01
1.383999999999999986e+01
-1.446000000000000085e+01
-1.925000000000000000e+01
7.898999999999999488e+01
-7.910000000000000142e+00
1.374099999999999966e+02
1.317100000000000080e+02
-3.174399999999999977e+02
-2.419999999999999929e+01
1.069399999999999977e+02
1.646999999999999886e+01
-4.767000000000000171e+01
1.238100000000000023e+02
2.785000000000000142e+01
-1.156200000000000045e+02
-6.093999999999999773e+01
9.949999999999999289e+00
9.526000000000000512e+01
-2.344999999999999929e+01
2.340699999999999932e+02
-1.987400000000000091e+02
-1.937299999999999898e+02
4.889999999999999680e+00
6.709999999999999964e+00
-5.585000000000000142e+01
4.225000000000000000e+01
4.354999999999999716e+01
-1.087399999999999949e+02
2.155000000000000071e+01
1.416500000000000057e+02
2.334900000000000091e+02
-2.108700000000000045e+02
-1.340699999999999932e+02
8.484000000000000341e+01
1.171200000000000045e+02
2.241200000000000045e+02
-1.617299999999999898e+02
-9.254900000000000091e+02
3.780299999999999727e+02
3.429200000000000159e+02
1.676999999999999886e+02
-3.941399999999999864e+02
7.048000000000000398e+01
9.750000000000000000e+00
1.508999999999999986e+01
-2.443899999999999864e+02
1.212500000000000000e+02
-6.010000000000000142e+01
7.356000000000000227e+01
-4.830000000000000071e+00
-8.339000000000000057e+01
3.950000000000000000e+01
1.429999999999999938e+00
-5.567999999999999972e+01
2.664999999999999858e+01
-2.601000000000000156e+01
-1.848999999999999844e+01
1.015100000000000051e+02
9.400000000000000000e+01
1.609900000000000091e+02
-2.181599999999999966e+02
8.084999999999999432e+01
-1.995800000000000125e+02
3.689000000000000057e+01
4.627000000000000313e+01
-5.317000000000000171e+01
-1.080000000000000071e+01
2.166899999999999977e+02
-5.403000000000000114e+01
1.312400000000000091e+02
3.953000000000000114e+01
1.203400000000000034e+02
-4.204200000000000159e+02
1.366100000000000136e+02
3.831000000000000227e+01
-4.607999999999999829e+01
7.835999999999999943e+01
5.911999999999999744e+01
-3.990999999999999659e+01
7.242000000000000171e+01
1.577500000000000000e+02
-1.051099999999999994e+02
2.151999999999999957e+01
8.460000000000000853e+00
-6.706999999999999318e+01
6.929999999999999716e+01
1.507400000000000091e+02
2.589900000000000091e+02
-2.675500000000000114e+02
2.479999999999999982e+00
-1.966999999999999886e+02
-7.315000000000000568e+01
1.047199999999999989e+02
3.343999999999999773e+01
-3.627000000000000313e+01
5.339000000000000057e+01
8.979000000000000625e+01
4.000999999999999801e+01
-6.931000000000000227e+01
4.740000000000000213e+00
1.985000000000000142e+01
-2.971999999999999886e+01
6.653000000000000114e+01
-2.301000000000000156e+01
-1.088100000000000023e+02
4.192000000000000171e+01
-5.360000000000000320e+00
5.100000000000000000e+01
7.120000000000000107e+00
6.243999999999999773e+01
-3.657999999999999829e+01
3.382999999999999829e+01
1.268400000000000034e+02
-3.198000000000000114e+02
-4.814000000000000057e+01
1.077199999999999989e+02
-1.315000000000000036e+01
1.587299999999999898e+02
-1.069699999999999989e+02
1.075400000000000063e+02
2.619999999999999929e+01
-8.606999999999999318e+01
2.469000000000000128e+01
4.224000000000000199e+01
2.903000000000000114e+01
-1.716200000000000045e+02
3.339999999999999858e+01
-1.472800000000000011e+02
2.663299999999999841e+02
2.492999999999999972e+01
-6.227000000000000313e+01
5.528999999999999915e+01
-3.732000000000000028e+01
-8.859000000000000341e+01
8.698000000000000398e+01
1.340200000000000102e+02
7.426000000000000512e+01
-1.649600000000000080e+02
7.065000000000000568e+01
2.201000000000000156e+01
7.099999999999999645e-01
8.835999999999999943e+01
1.720699999999999932e+02
-8.607999999999999829e+01
-8.467000000000000171e+01
3.505699999999999932e+02
1.888499999999999943e+02
-5.210299999999999727e+02
-9.628000000000000114e+01
2.590299999999999727e+02
-7.740000000000000213e+00
1.762999999999999901e+01
1.388000000000000078e+01
-6.050999999999999801e+01
4.849000000000000199e+01
5.967999999999999972e+01
4.000999999999999801e+01
-6.277000000000000313e+01
2.000999999999999943e+02
2.151899999999999977e+02
-1.774499999999999886e+02
-9.748999999999999488e+01
5.717000000000000171e+01
-2.439999999999999858e+01
-9.435999999999999943e+01
5.646000000000000085e+01
1.317400000000000091e+02
2.003999999999999915e+01
6.920999999999999375e+01
-2.003799999999999955e+02
-1.458199999999999932e+02
8.814000000000000057e+01
1.028599999999999994e+02
1.780000000000000027e+00
1.339300000000000068e+02
-1.091599999999999966e+02
-1.626899999999999977e+02
-5.600000000000000000e+01
8.065999999999999659e+01
1.152099999999999937e+02
-2.023799999999999955e+02
-1.359799999999999898e+02
2.803000000000000114e+01
-1.160999999999999943e+01
3.693999999999999773e+01
1.500500000000000114e+02
-2.524099999999999966e+02
-1.129500000000000028e+02
1.278700000000000045e+02
-3.532999999999999829e+01
-1.379199999999999875e+02
3.700999999999999801e+01
6.929000000000000625e+01
-3.155000000000000071e+01
-3.672999999999999687e+01
3.890000000000000124e+00
2.370800000000000125e+02
5.939999999999999858e+01
8.376999999999999602e+01
-5.190000000000000391e+00
-5.843999999999999773e+01
-2.180999999999999943e+02
-5.500000000000000444e-01
1.860999999999999943e+01
-1.048599999999999994e+02
1.374399999999999977e+02
7.501000000000000512e+01
-5.335000000000000142e+01
1.378600000000000136e+02
1.729199999999999875e+02
-1.481899999999999977e+02
-1.864699999999999989e+02
-5.132999999999999829e+01
1.576800000000000068e+02
-3.647999999999999687e+01
2.126299999999999955e+02
2.212000000000000099e+01
-2.589599999999999795e+02
-1.574300000000000068e+02
8.975000000000000000e+01
1.650000000000000000e+01
1.064000000000000057e+02
1.117999999999999972e+02
2.653999999999999915e+01
-1.727599999999999909e+02
-2.944000000000000128e+01
1.388000000000000114e+02
1.866999999999999886e+02
-3.059599999999999795e+02
6.019999999999999574e+00
2.539999999999999858e+01
8.380000000000000782e+00
-4.057000000000000028e+01
-5.621000000000000085e+01
-3.589000000000000057e+01
-2.691000000000000014e+01
9.904000000000000625e+01
9.009999999999999787e+00
-1.068799999999999955e+02
1.172600000000000051e+02
-3.371999999999999886e+01
-2.950400000000000205e+02
5.213000000000000256e+01
1.624499999999999886e+02
-3.352000000000000313e+01
2.416500000000000057e+02
1.093700000000000045e+02
-1.648499999999999943e+02
-9.612999999999999545e+01
-8.228000000000000114e+01
1.965200000000000102e+02
6.734000000000000341e+01
-2.265999999999999943e+02
3.607000000000000028e+01
8.317000000000000171e+01
-4.196000000000000085e+01
-1.312899999999999920e+02
1.116099999999999994e+02
2.079399999999999977e+02
-1.914600000000000080e+02
-1.293600000000000136e+02
1.909399999999999977e+02
-2.730299999999999727e+02
7.168000000000000682e+01
1.475900000000000034e+02
7.106000000000000227e+01
-2.470000000000000195e+00
1.730500000000000114e+02
-2.260200000000000102e+02
-3.032500000000000000e+02
2.430399999999999920e+02
1.048299999999999983e+02
-1.202600000000000051e+02
1.216000000000000014e+01
2.564100000000000250e+02
-5.522999999999999687e+01
-1.177699999999999960e+02
-1.373600000000000136e+02
3.460999999999999943e+01
-3.421000000000000085e+01
1.558700000000000045e+02
2.846000000000000085e+01
-1.413799999999999955e+02
2.719200000000000159e+02
4.028000000000000114e+01
-5.773700000000000045e+02
-1.044500000000000028e+02
1.639699999999999989e+02
2.192000000000000171e+01
1.336800000000000068e+02
-1.494300000000000068e+02
2.076999999999999957e+01
-2.165200000000000102e+02
7.359999999999999432e+01
2.094399999999999977e+02
4.607000000000000028e+01
-3.985000000000000142e+01
4.896999999999999886e+01
1.626899999999999977e+02
-1.618199999999999932e+02
-4.113000000000000256e+01
-7.054999999999999716e+01
-2.119900000000000091e+02
3.069000000000000128e+01
1.652500000000000000e+02
2.175900000000000034e+02
1.239999999999999991e+00
1.184999999999999964e+01
-7.867000000000000171e+01
-2.051599999999999966e+02
-3.258000000000000114e+02
3.634200000000000159e+02
1.465300000000000011e+02
-1.128700000000000045e+02
1.988199999999999932e+02
7.498000000000000398e+01
1.273299999999999983e+02
-3.720000000000000284e+01
-1.449600000000000080e+02
7.454999999999999716e+01
-1.802199999999999989e+02
5.750000000000000000e+00
-3.035999999999999943e+01
2.044300000000000068e+02
-6.693000000000000682e+01
-1.989699999999999989e+02
5.347999999999999687e+01
1.666899999999999977e+02
-6.734000000000000341e+01
-2.450000000000000178e+00
6.420000000000000284e+01
6.639000000000000057e+01
-4.840999999999999659e+01
8.579000000000000625e+01
1.255400000000000063e+02
-1.828799999999999955e+02
1.177199999999999989e+02
-1.222300000000000040e+02
-2.433400000000000034e+02
1.247300000000000040e+02
8.120000000000000284e+01
1.105100000000000051e+02
1.860000000000000098e+00
-6.267999999999999972e+01
-8.531999999999999318e+01
3.037999999999999901e+01
4.103000000000000114e+01
3.187000000000000099e+01
1.315500000000000114e+02
6.750000000000000000e+00
4.213000000000000256e+01
-6.200999999999999801e+01
4.017000000000000171e+01
-1.531000000000000050e+01
-1.591000000000000014e+01
4.968999999999999773e+01
4.721999999999999886e+01
-1.087800000000000011e+02
-2.712000000000000099e+01
-2.579300000000000068e+02
-6.678000000000000114e+01
1.122500000000000000e+02
1.704600000000000080e+02
3.743999999999999773e+01
-9.880000000000000782e+00
6.421999999999999886e+01
-6.317000000000000171e+01
3.959999999999999964e+00
-4.002000000000000313e+01
-6.976999999999999602e+01
8.470000000000000284e+01
3.609000000000000341e+01
-1.147600000000000051e+02
-1.320000000000000000e+02
3.520000000000000284e+01
2.303899999999999864e+02
-7.689000000000000057e+01
6.740000000000000213e+00
-4.471999999999999886e+01
1.347700000000000102e+02
-8.778000000000000114e+01
-3.341000000000000227e+02
5.513000000000000256e+01
1.010100000000000051e+02
-1.978600000000000136e+02
2.371399999999999864e+02
2.055300000000000011e+02
2.078999999999999915e+01
1.126800000000000068e+02
1.408000000000000007e+01
-3.001299999999999955e+02
-2.234099999999999966e+02
1.100999999999999979e+01
-2.625500000000000114e+02
-1.422000000000000064e+01
3.853700000000000045e+02
1.155199999999999960e+02
-1.370600000000000023e+02
-2.029000000000000057e+02
3.438600000000000136e+02
1.421200000000000045e+02
-7.521999999999999886e+01
3.310000000000000053e+00
3.538000000000000256e+01
-2.194000000000000057e+02
5.190000000000000391e+00
-1.218999999999999950e+01
-1.630600000000000023e+02
1.031299999999999955e+02
5.992999999999999972e+01
-5.485999999999999943e+01
1.968799999999999955e+02
1.315099999999999909e+02
-1.177999999999999936e+01
8.206999999999999318e+01
-6.064999999999999858e+01
-1.380099999999999909e+02
-1.833700000000000045e+02
5.524000000000000199e+01
3.180000000000000160e+00
9.380000000000000782e+00
1.047199999999999989e+02
-1.142999999999999972e+01
-2.126599999999999966e+02
9.323000000000000398e+01
4.820000000000000284e+00
-2.689999999999999947e+00
-1.225100000000000051e+02
-3.479999999999999982e+00
-1.122000000000000064e+01
-8.498999999999999488e+01
1.451699999999999875e+02
-1.269500000000000028e+02
-6.943999999999999773e+01
6.760999999999999943e+01
5.439000000000000057e+01
-1.323000000000000043e+01
-1.064599999999999937e+02
1.767400000000000091e+02
-1.380600000000000023e+02
1.227300000000000040e+02
-2.275000000000000000e+01
3.574000000000000199e+01
-1.902299999999999898e+02
-4.460000000000000142e+01
4.528000000000000114e+01
-8.289000000000000057e+01
1.065400000000000063e+02
-1.780600000000000023e+02
5.017000000000000171e+01
1.003299999999999983e+02
6.940000000000000568e+01
3.378999999999999915e+01
5.600000000000000533e-01
-1.959999999999999964e+00
-7.860999999999999943e+01
9.401999999999999602e+01
2.492000000000000171e+01
5.465999999999999659e+01
9.217000000000000171e+01
-9.331999999999999318e+01
-1.079800000000000040e+02
-8.387999999999999545e+01
9.200000000000000400e-01
1.161899999999999977e+02
-9.729000000000000625e+01
-1.105300000000000011e+02
4.828000000000000114e+01
-4.403000000000000114e+01
-6.667000000000000171e+01
1.387599999999999909e+02
1.194999999999999929e+01
-2.991000000000000014e+01
3.094999999999999929e+01
-9.020000000000000284e+01
2.300000000000000000e+01
-2.123000000000000043e+01
-2.244600000000000080e+02
8.490999999999999659e+01
7.545999999999999375e+01
2.159799999999999898e+02
-5.177000000000000313e+01
1.894999999999999929e+01
-2.662999999999999901e+01
-5.252000000000000455e+02
-7.235999999999999943e+01
5.661999999999999744e+01
-2.714000000000000057e+01
4.040999999999999659e+01
3.259000000000000341e+01
-7.450000000000000178e+00
1.646200000000000045e+02
1.208100000000000023e+02
9.528000000000000114e+01
9.057999999999999829e+01
-2.909700000000000273e+02
-1.383799999999999955e+02
6.445000000000000284e+01
4.286999999999999744e+01
7.628000000000000114e+01
-1.119999999999999929e+01
-5.814999999999999858e+01
1.093999999999999950e+01
-1.077800000000000011e+02
1.704199999999999875e+02
2.602300000000000182e+02
-2.301699999999999875e+02
2.882000000000000028e+01
3.646999999999999886e+01
-4.822999999999999687e+01
-8.501000000000000512e+01
-2.773000000000000043e+01
-1.286800000000000068e+02
-1.348499999999999943e+02
6.801999999999999602e+01
-1.665099999999999909e+02
3.675000000000000000e+01
1.241899999999999977e+02
4.877000000000000313e+01
-9.470000000000000639e+00
-6.990000000000000213e+00
-4.419999999999999929e+00
-1.398000000000000043e+01
2.746999999999999886e+01
-1.330000000000000071e+01
-2.958999999999999986e+01
8.815000000000000568e+01
-6.790000000000000036e+00
-1.857999999999999829e+01
1.141000000000000014e+01
2.055999999999999872e+01
1.007099999999999937e+02
1.986699999999999875e+02
-1.553499999999999943e+02
-6.383099999999999454e+02
1.584699999999999989e+02
1.252099999999999937e+02
3.882000000000000028e+01
1.929999999999999938e+00
9.004999999999999716e+01
-8.159999999999999432e+01
-7.120999999999999375e+01
1.277500000000000000e+02
3.267999999999999972e+01
5.340999999999999659e+01
-1.999699999999999989e+02
-2.490800000000000125e+02
1.463100000000000023e+02
-6.121999999999999886e+01
1.189500000000000028e+02
-8.750000000000000000e+00
6.525000000000000000e+01
-4.639999999999999858e+01
1.071299999999999955e+02
1.385300000000000011e+02
-1.336699999999999875e+02
-1.718400000000000034e+02
6.197999999999999687e+01
-2.214000000000000057e+01
-8.012000000000000455e+01
2.703999999999999915e+01
5.764000000000000057e+01
-6.839000000000000057e+01
-3.735999999999999943e+01
9.431000000000000227e+01
3.105000000000000071e+01
-2.900899999999999750e+02
6.792000000000000171e+01
7.231999999999999318e+01
5.107999999999999829e+01
1.838799999999999955e+02
1.828899999999999864e+02
9.273999999999999488e+01
2.210000000000000142e+01
-1.326399999999999864e+02
-1.764900000000000091e+02
-9.325000000000000000e+01
-1.138400000000000034e+02
8.225000000000000000e+01
-2.700000000000000178e-01
-3.360000000000000142e+01
-2.075200000000000102e+02
-1.083100000000000023e+02
1.448899999999999864e+02
-7.929999999999999716e+01
-1.174800000000000040e+02
1.564499999999999886e+02
1.116000000000000014e+01
-1.162500000000000000e+02
1.044800000000000040e+02
1.021299999999999955e+02
1.858100000000000023e+02
-6.290999999999999659e+01
1.477700000000000102e+02
-8.699999999999999289e+00
-5.369800000000000182e+02
-2.614000000000000057e+01
3.943700000000000045e+02
2.553000000000000114e+02
-2.417800000000000011e+02
-1.522100000000000080e+02
2.526800000000000068e+02
1.300399999999999920e+02
-8.098999999999999488e+01
9.534000000000000341e+01
-2.804300000000000068e+02
-5.132999999999999829e+01
7.201999999999999602e+01
5.477000000000000313e+01
-8.132999999999999829e+01
2.052299999999999898e+02
8.840000000000000568e+01
-3.496499999999999773e+02
-1.862999999999999901e+01
8.398000000000000398e+01
-2.051000000000000156e+01
1.640999999999999943e+02
-1.419600000000000080e+02
4.995000000000000284e+01
1.242800000000000011e+02
-4.003999999999999915e+01
7.160000000000000142e+00
-3.693500000000000227e+02
4.216999999999999886e+02
8.854999999999999716e+01
2.090399999999999920e+02
-2.012999999999999901e+01
-1.718799999999999955e+02
-1.644199999999999875e+02
2.342999999999999972e+01
2.439000000000000057e+01
-1.127300000000000040e+02
1.210199999999999960e+02
1.242699999999999960e+02
9.903000000000000114e+01
7.620000000000000107e+00
-6.342999999999999972e+01
-2.686399999999999864e+02
9.696999999999999886e+01
-8.634000000000000341e+01
-8.695000000000000284e+01
1.040100000000000051e+02
1.325099999999999909e+02
1.721599999999999966e+02
-1.156800000000000068e+02
9.801000000000000512e+01
-3.678999999999999915e+01
-2.499900000000000091e+02
-7.582000000000000455e+02
2.998500000000000227e+02
6.769999999999999574e+00
1.907299999999999898e+02
4.370000000000000107e+00
1.059599999999999937e+02
6.401000000000000512e+01
-8.348000000000000398e+01
6.726999999999999602e+01
4.899000000000000199e+01
-4.190999999999999659e+01
8.482999999999999829e+01
2.982999999999999829e+01
-1.019000000000000057e+02
7.389999999999999680e+00
1.658199999999999932e+02
3.834000000000000341e+01
9.781999999999999318e+01
-9.373999999999999488e+01
-2.167000000000000171e+01
1.608999999999999986e+01
-1.848000000000000043e+01
5.052000000000000313e+01
-3.408500000000000227e+02
1.063799999999999955e+02
2.192999999999999972e+01
-3.474000000000000199e+01
7.454000000000000625e+01
-2.601999999999999957e+01
-8.254000000000000625e+01
1.675600000000000023e+02
2.855999999999999872e+01
-8.081999999999999318e+01
-8.999999999999999667e-02
-6.353999999999999915e+01
-3.763000000000000256e+01
-3.607999999999999829e+01
5.138000000000000256e+01
5.022999999999999687e+01
-2.771200000000000045e+02
1.834300000000000068e+02
-3.903999999999999915e+01
-5.110000000000000142e+01
2.312000000000000099e+01
2.826999999999999957e+01
-6.698000000000000398e+01
7.867000000000000171e+01
7.096999999999999886e+01
-1.022300000000000040e+02
-1.243499999999999943e+02
-1.696000000000000085e+01
3.123999999999999844e+01
2.623000000000000043e+01
4.092999999999999972e+01
-2.791000000000000014e+01
-1.533000000000000007e+01
2.605999999999999872e+01
-3.235999999999999943e+01
-2.196999999999999886e+01
6.846999999999999886e+01
-1.803000000000000114e+01
-9.825000000000000000e+01
2.919999999999999929e+00
3.317999999999999972e+01
-3.803000000000000114e+01
-2.576999999999999957e+01
1.249000000000000057e+02
1.033700000000000045e+02
4.096000000000000085e+01
-1.709600000000000080e+02
1.546500000000000057e+02
-5.418999999999999773e+01
4.049999999999999822e+00
-1.332899999999999920e+02
4.606000000000000227e+01
1.091599999999999966e+02
4.953000000000000114e+01
-4.775000000000000000e+01
-7.654000000000000625e+01
4.293999999999999773e+01
-1.969999999999999973e+00
7.351000000000000512e+01
4.000000000000000222e-01
-5.399000000000000199e+01
1.750300000000000011e+02
-1.165600000000000023e+02
-2.072500000000000000e+02
1.252099999999999937e+02
2.985099999999999909e+02
1.645500000000000114e+02
-2.089300000000000068e+02
-2.661399999999999864e+02
-2.744999999999999929e+01
9.990000000000000568e+01
-1.732000000000000028e+01
-6.423000000000000398e+01
4.356000000000000227e+01
-4.370000000000000107e+00
-6.768999999999999773e+01
4.793999999999999773e+01
-3.692000000000000171e+01
-1.234399999999999977e+02
1.027399999999999949e+02
-4.792000000000000171e+01
1.827599999999999909e+02
-4.490999999999999659e+01
7.376000000000000512e+01
8.534999999999999432e+01
-1.566899999999999977e+02
-1.891399999999999864e+02
-2.014199999999999875e+02
-5.990000000000000213e+00
8.459000000000000341e+01
-1.189000000000000057e+01
-4.021999999999999886e+01
1.341399999999999864e+02
9.140000000000000568e+00
2.978000000000000114e+01
-3.307000000000000028e+01
-6.929999999999999716e+00
-1.048499999999999943e+02
-8.189999999999999503e+00
1.815200000000000102e+02
8.528000000000000114e+01
-4.000000000000000222e-01
6.537999999999999545e+01
1.304799999999999898e+02
-1.971200000000000045e+02
-1.160999999999999943e+01
-1.677800000000000011e+02
-1.761100000000000136e+02
-5.854999999999999716e+01
2.273499999999999943e+02
3.028899999999999864e+02
4.432999999999999829e+01
-3.032999999999999829e+01
3.425999999999999801e+01
-1.883799999999999955e+02
-7.419999999999999929e+00
-1.441599999999999966e+02
5.065999999999999659e+01
6.745000000000000284e+01
1.034800000000000040e+02
-7.223000000000000398e+01
-1.137999999999999972e+02
-2.067999999999999972e+01
7.151999999999999602e+01
1.173499999999999943e+02
-1.138499999999999943e+02
5.692999999999999972e+01
1.242999999999999972e+01
2.930000000000000071e+01
-1.097800000000000011e+02
-1.850000000000000089e+00
2.135999999999999943e+01
1.530000000000000027e+00
3.527000000000000313e+01
1.034099999999999966e+02
-1.063799999999999955e+02
1.721399999999999864e+02
-1.660900000000000034e+02
6.469999999999999751e+00
-5.782000000000000028e+01
4.895000000000000284e+01
-2.271000000000000085e+01
2.259999999999999787e+00
1.557199999999999989e+02
-2.091699999999999875e+02
3.975999999999999801e+01
2.775000000000000000e+01
2.003999999999999915e+01
-1.440000000000000036e+01
6.254999999999999716e+01
3.835000000000000142e+01
-5.797999999999999687e+01
3.325999999999999801e+01
5.497999999999999687e+01
2.925899999999999750e+02
-1.209599999999999937e+02
-4.971000000000000085e+01
-1.416000000000000014e+01
-2.015800000000000125e+02
-4.179999999999999716e+00
3.067300000000000182e+02
-2.205900000000000034e+02
-8.282999999999999829e+01
1.502299999999999898e+02
6.787999999999999545e+01
-1.784499999999999886e+02
4.448700000000000045e+02
-9.634000000000000341e+01
7.712000000000000455e+01
3.897999999999999687e+01
-2.179699999999999989e+02
-7.800000000000000000e+01
-1.903999999999999915e+01
-2.427899999999999920e+02
1.127399999999999949e+02
1.191899999999999977e+02
7.146999999999999886e+01
-7.601999999999999602e+01
4.382999999999999829e+01
8.317000000000000171e+01
-2.609999999999999876e+00
-1.320000000000000062e+00
2.279799999999999898e+02
1.714900000000000091e+02
-2.986100000000000136e+02
-1.574000000000000057e+02
3.318999999999999773e+01
1.737999999999999901e+01
4.213000000000000256e+01
-5.549999999999999822e+00
-4.072999999999999687e+01
3.046000000000000085e+01
1.000000000000000000e+00
-4.539999999999999858e+01
3.579999999999999716e+01
7.469999999999999751e+00
-2.346999999999999886e+01
3.128000000000000114e+01
1.705999999999999872e+01
-7.940000000000000391e+00
2.137999999999999901e+01
1.789999999999999858e+01
-2.609999999999999876e+00
2.728000000000000114e+01
3.164999999999999858e+01
-2.044999999999999929e+01
-4.120000000000000284e+01
1.832999999999999829e+01
-1.569999999999999929e+01
-8.000000000000000167e-02
2.698000000000000043e+01
9.812000000000000455e+01
-1.641000000000000014e+01
1.937999999999999901e+01
-6.629000000000000625e+01
3.478000000000000114e+01
-1.071500000000000057e+02
9.295000000000000284e+01
-4.429999999999999716e+01
1.001800000000000068e+02
1.635500000000000114e+02
6.632999999999999829e+01
-2.391699999999999875e+02
2.738700000000000045e+02
2.149199999999999875e+02
-2.230000000000000071e+01
-3.617500000000000000e+02
-2.065900000000000034e+02
5.002900000000000205e+02
-8.856999999999999318e+01
-1.085699999999999932e+02
1.846000000000000085e+01
-9.267000000000000171e+01
6.220000000000000284e+01
-2.878100000000000023e+02
3.914000000000000057e+01
2.843000000000000114e+02
-2.375000000000000000e+01
2.424300000000000068e+02
1.298899999999999864e+02
-1.621599999999999966e+02
-2.293700000000000045e+02
-1.273499999999999943e+02
-9.645000000000000284e+01
5.086999999999999744e+01
1.703300000000000125e+02
2.671899999999999977e+02
3.001100000000000136e+02
5.561799999999999500e+02
-4.450000000000000000e+02
-2.297199999999999989e+02
-3.947099999999999795e+02
-1.266599999999999966e+02
-2.781700000000000159e+02
7.728000000000000114e+01
-9.250000000000000000e+00
8.715000000000000568e+01
3.319499999999999886e+02
1.158299999999999955e+03
-1.017429999999999950e+03
-2.978000000000000114e+02
-2.437599999999999909e+02
-5.931000000000000227e+01
4.072999999999999687e+01
-5.011999999999999744e+01
3.150699999999999932e+02
1.733799999999999955e+02
-2.335999999999999943e+02
-1.786399999999999864e+02
1.032000000000000028e+01
-1.265100000000000051e+02
1.153999999999999915e+01
1.603100000000000023e+02
4.107000000000000028e+01
-1.536999999999999922e+01
1.184200000000000017e+02
-1.932999999999999829e+01
7.540000000000000568e+01
1.403600000000000136e+02
8.276999999999999602e+01
2.033199999999999932e+02
6.320000000000000284e+00
-2.301999999999999886e+02
-2.697400000000000091e+02
-1.630800000000000125e+02
1.197099999999999937e+02
1.589300000000000068e+02
-8.725000000000000000e+01
-2.556999999999999886e+02
1.636699999999999875e+02
1.098499999999999943e+02
8.729999999999999716e+01
6.676000000000000512e+01
-1.694199999999999875e+02
6.965999999999999659e+01
6.514000000000000057e+01
1.620500000000000114e+02
-2.136500000000000057e+02
-3.582099999999999795e+02
5.035999999999999943e+01
5.334000000000000341e+01
-1.918400000000000034e+02
-5.145000000000000284e+01
-8.673999999999999488e+01
5.767999999999999972e+01
1.088000000000000078e+01
-3.442999999999999972e+01
-1.002399999999999949e+02
9.628000000000000114e+01
4.403999999999999915e+01
2.703399999999999750e+02
1.765000000000000000e+02
-2.161599999999999966e+02
-4.793899999999999864e+02
-1.519000000000000057e+02
-5.580000000000000071e+00
3.145899999999999750e+02
-4.142999999999999972e+01
5.327000000000000313e+01
-9.499999999999999556e-01
1.143900000000000006e+02
-3.647799999999999727e+02
-1.109699999999999989e+02
4.733100000000000023e+02
6.973000000000000398e+01
-2.322899999999999920e+02
5.911999999999999744e+01
-3.649999999999999911e+00
-3.096999999999999886e+01
6.856000000000000227e+01
-6.170000000000000284e+01
-3.792999999999999972e+01
3.821000000000000085e+01
3.600000000000000000e+01
-2.055000000000000071e+01
-1.775500000000000114e+02
2.720299999999999727e+02
-3.213000000000000256e+01
-8.557999999999999829e+01
7.876999999999999602e+01
1.140000000000000036e+01
-7.519999999999999574e+00
6.056000000000000227e+01
1.187500000000000000e+02
2.925600000000000023e+02
-3.439800000000000182e+02
-8.220000000000000284e+01
-1.079599999999999937e+02
7.540000000000000568e+01
-1.105300000000000011e+02
3.499999999999999778e-01
-9.399999999999999467e-01
-1.964999999999999858e+01
5.913000000000000256e+01
8.123000000000000398e+01
-2.057999999999999829e+01
2.303999999999999915e+01
-2.798999999999999844e+01
8.630000000000000782e+00
1.205199999999999960e+02
-3.292000000000000171e+01
4.932000000000000028e+01
-6.505700000000000500e+02
1.209500000000000028e+02
1.941299999999999955e+02
9.851000000000000512e+01
7.493000000000000682e+01
-3.677000000000000313e+01
-2.398999999999999844e+01
1.164200000000000017e+02
-1.569900000000000091e+02
-4.425999999999999801e+01
-6.769999999999999574e+00
-5.982000000000000028e+01
-1.769499999999999886e+02
7.798999999999999488e+01
8.831000000000000227e+01
5.217000000000000171e+01
4.082000000000000028e+01
1.078299999999999983e+02
1.885000000000000142e+01
-1.071899999999999977e+02
2.290000000000000036e+00
1.391999999999999993e+01
-1.746599999999999966e+02
-2.098000000000000043e+01
7.087999999999999545e+01
9.035999999999999943e+01
-4.427000000000000313e+01
-1.106800000000000068e+02
-4.086999999999999744e+01
-9.899999999999999911e-01
1.587400000000000091e+02
-2.816000000000000014e+01
-6.320000000000000284e+01
5.281000000000000227e+01
9.179000000000000625e+01
-8.729999999999999716e+01
-7.504000000000000625e+01
4.150000000000000000e+01
-3.517000000000000171e+01
-4.932999999999999829e+01
3.775999999999999801e+01
2.142999999999999972e+01
-3.435999999999999943e+01
2.191000000000000014e+01
1.172500000000000000e+02
7.549999999999999822e+00
1.375900000000000034e+02
1.238299999999999983e+02
-1.539499999999999886e+02
-2.318499999999999943e+02
1.019200000000000017e+02
2.112100000000000080e+02
-2.370000000000000107e+00
-2.546100000000000136e+02
-8.428000000000000114e+01
3.609999999999999876e+00
-1.500000000000000000e+00
8.379000000000000625e+01
1.489000000000000057e+02
-1.521299999999999955e+02
-2.012000000000000099e+01
3.160999999999999943e+01
2.882000000000000028e+01
1.449999999999999956e+00
7.715999999999999659e+01
1.262699999999999960e+02
-1.920300000000000011e+02
-1.343499999999999943e+02
4.127000000000000313e+01
-2.101000000000000156e+01
2.998000000000000043e+01
-1.737999999999999901e+01
2.767000000000000171e+01
1.074300000000000068e+02
-7.868999999999999773e+01
-4.675999999999999801e+01
-3.709999999999999964e+00
4.784000000000000341e+01
4.750000000000000000e+01
-2.357000000000000028e+01
-3.599000000000000199e+01
2.646000000000000085e+01
3.300000000000000155e-01
-3.881000000000000227e+01
4.993999999999999773e+01
2.344000000000000128e+01
-8.619999999999999218e+00
6.095000000000000284e+01
-1.425000000000000000e+01
-1.258999999999999986e+01
-2.866000000000000014e+01
-5.110000000000000320e+00
7.599999999999999645e+00
-4.907000000000000028e+01
2.962000000000000099e+01
9.609999999999999432e+00
1.907999999999999829e+01
6.371999999999999886e+01
-3.620000000000000284e+01
4.561999999999999744e+01
-2.367899999999999920e+02
-4.449000000000000199e+01
1.983300000000000125e+02
-2.240800000000000125e+02
1.190799999999999983e+02
-6.286999999999999744e+01
8.210000000000000853e+00
3.639000000000000057e+01
6.359000000000000341e+01
1.075799999999999983e+02
5.046999999999999886e+01
-1.512199999999999989e+02
1.249899999999999949e+02
-1.935000000000000000e+02
1.629499999999999886e+02
1.391500000000000057e+02
-9.423000000000000398e+01
1.868300000000000125e+02
-4.165999999999999659e+01
8.307999999999999829e+01
-2.221299999999999955e+02
-1.305099999999999909e+02
-9.984999999999999432e+01
-1.118199999999999932e+02
1.164800000000000040e+02
5.400999999999999801e+01
-1.593199999999999932e+02
-1.569699999999999989e+02
2.416200000000000045e+02
2.334300000000000068e+02
-1.307199999999999989e+02
-8.787999999999999545e+01
1.882999999999999829e+01
2.531599999999999966e+02
1.032000000000000028e+01
1.075799999999999983e+02
-5.038000000000000256e+01
1.422199999999999989e+02
3.699000000000000199e+01
4.829999999999999716e+01
-2.064699999999999989e+02
-3.430000000000000160e+00
1.308999999999999986e+01
-2.439199999999999875e+02
-4.545000000000000284e+01
1.113700000000000045e+02
2.562200000000000273e+02
-1.037900000000000063e+02
-2.138899999999999864e+02
-2.320399999999999920e+02
7.485999999999999943e+01
5.692000000000000171e+01
-8.580000000000000071e+00
-5.365999999999999659e+01
2.690000000000000000e+02
2.426000000000000156e+01
-1.814099999999999966e+02
3.469800000000000182e+02
-2.520999999999999943e+02
-1.667899999999999920e+02
1.052399999999999949e+02
5.306000000000000227e+01
-1.638499999999999943e+02
1.087300000000000040e+02
-1.135400000000000063e+02
1.644499999999999886e+02
-1.378999999999999915e+01
-1.470999999999999943e+02
5.570000000000000284e+01
-1.060699999999999932e+02
6.743999999999999773e+01
7.407999999999999829e+01
-1.248400000000000034e+02
2.179699999999999989e+02
-1.760099999999999909e+02
-3.893999999999999773e+02
1.634000000000000057e+02
2.220099999999999909e+02
1.010600000000000023e+02
-2.773000000000000043e+01
-1.251700000000000017e+02
-4.179999999999999716e+00
6.131000000000000227e+01
1.826999999999999957e+01
-8.326999999999999602e+01
-4.589999999999999858e+00
8.776999999999999602e+01
-1.195699999999999932e+02
-8.876000000000000512e+01
1.400000000000000133e-01
1.732199999999999989e+02
3.871999999999999886e+01
1.072900000000000063e+02
-5.000000000000000000e+01
-2.885999999999999943e+01
1.771999999999999886e+01
4.675999999999999801e+01
-1.127099999999999937e+02
-3.012999999999999901e+01
3.817999999999999972e+01
4.917999999999999972e+01
2.005999999999999872e+01
7.059999999999999432e+01
3.689999999999999947e+00
-8.330000000000000071e+00
1.374900000000000091e+02
1.974699999999999989e+02
-2.567699999999999818e+02
-2.348899999999999864e+02
3.224000000000000199e+01
1.184899999999999949e+02
3.499499999999999886e+02
-9.515999999999999659e+01
-8.656000000000000227e+01
1.020300000000000011e+02
1.494000000000000057e+02
2.594900000000000091e+02
2.812000000000000099e+01
-3.612500000000000000e+02
-1.846899999999999977e+02
3.296200000000000045e+02
2.816200000000000045e+02
5.477000000000000313e+01
6.870999999999999375e+01
-1.375000000000000000e+01
-4.038199999999999932e+02
-2.344099999999999966e+02
6.543999999999999773e+01
-2.280999999999999872e+01
1.232000000000000028e+02
6.601999999999999602e+01
-1.380399999999999920e+02
1.540099999999999909e+02
7.734999999999999432e+01
-2.228499999999999943e+02
1.433499999999999943e+02
8.085999999999999943e+01
-6.206000000000000227e+01
5.564999999999999858e+01
5.006000000000000227e+01
-2.451999999999999957e+01
9.662999999999999545e+01
1.405300000000000011e+02
-6.879999999999999716e+01
-8.407999999999999829e+01
2.307000000000000028e+01
-1.646999999999999886e+01
-1.311800000000000068e+02
7.520999999999999375e+01
4.000000000000000222e-01
-1.542199999999999989e+02
1.398199999999999932e+02
5.010000000000000142e+01
-5.602000000000000313e+01
7.445999999999999375e+01
3.692000000000000171e+01
-3.214999999999999858e+01
3.039000000000000057e+01
4.179999999999999716e+00
1.679999999999999938e+00
8.406000000000000227e+01
5.436999999999999744e+01
-1.203900000000000006e+02
-6.107000000000000028e+01
5.065999999999999659e+01
4.350999999999999801e+01
6.057000000000000028e+01
1.139399999999999977e+02
-1.706599999999999966e+02
-6.242000000000000171e+01
6.576999999999999602e+01
-8.132999999999999829e+01
-8.117000000000000171e+01
1.552700000000000102e+02
3.759999999999999787e+00
1.042500000000000000e+02
-1.415399999999999920e+02
-2.981100000000000136e+02
1.265300000000000011e+02
2.591000000000000227e+02
-2.925000000000000000e+01
-3.657000000000000028e+01
9.449999999999999289e+00
-2.233999999999999986e+01
5.553000000000000114e+01
-2.798799999999999955e+02
7.015999999999999659e+01
1.687400000000000091e+02
-2.510000000000000142e+01
-8.426999999999999602e+01
5.007000000000000028e+01
-2.690299999999999727e+02
3.254999999999999716e+01
3.081399999999999864e+02
-1.475900000000000034e+02
-9.112999999999999545e+01
2.861499999999999773e+02
-7.057999999999999829e+01
-7.167000000000000171e+01
4.867999999999999972e+01
8.656999999999999318e+01
-5.936999999999999744e+01
-4.719999999999999751e+00
-7.389999999999999680e+00
5.732000000000000028e+01
2.150000000000000000e+01
-4.171700000000000159e+02
-1.702599999999999909e+02
1.551899999999999977e+02
2.409199999999999875e+02
-1.035999999999999943e+01
2.248999999999999844e+01
1.876999999999999957e+01
-2.453000000000000114e+01
2.821999999999999886e+01
2.071999999999999886e+01
5.547999999999999687e+01
-3.254999999999999716e+01
3.460999999999999943e+01
-2.585999999999999943e+01
-3.738000000000000256e+01
4.703999999999999915e+01
5.009000000000000341e+01
-4.938000000000000256e+01
7.898999999999999488e+01
5.418999999999999773e+01
-1.418199999999999932e+02
4.559000000000000341e+01
3.879999999999999893e+00
-8.004000000000000625e+01
-5.299999999999999822e+00
2.278000000000000114e+01
-2.279999999999999805e+00
3.649999999999999911e+00
4.171000000000000085e+01
2.964000000000000057e+01
6.200000000000000178e+00
-7.335999999999999943e+01
-3.553000000000000114e+01
1.030000000000000000e+02
6.471999999999999886e+01
-1.217999999999999972e+01
-2.390200000000000102e+02
4.389999999999999858e+01
1.265000000000000000e+02
-1.299499999999999886e+02
9.904999999999999716e+01
-5.842999999999999972e+01
-1.932999999999999829e+01
-5.986999999999999744e+01
7.917000000000000171e+01
-1.060000000000000053e+00
1.655900000000000034e+02
8.323999999999999488e+01
-2.135999999999999943e+01
-3.241999999999999886e+02
4.670000000000000284e+01
-1.189699999999999989e+02
8.590999999999999659e+01
-3.496000000000000085e+01
9.871999999999999886e+01
7.434999999999999432e+01
7.143000000000000682e+01
1.739399999999999977e+02
-4.289000000000000057e+01
-1.335600000000000023e+02
-1.158599999999999994e+02
6.340999999999999659e+01
-6.745999999999999375e+01
2.892000000000000171e+01
1.136500000000000057e+02
-1.305399999999999920e+02
9.375000000000000000e+01
-1.459300000000000068e+02
-3.094999999999999929e+01
1.623999999999999844e+01
1.335600000000000023e+02
-8.900000000000000355e+00
-1.852500000000000000e+02
1.096599999999999966e+02
-4.211999999999999744e+01
-1.164599999999999937e+02
-1.065000000000000000e+02
8.737999999999999545e+01
1.458400000000000034e+02
-1.842000000000000171e+01
1.634300000000000068e+02
-1.475900000000000034e+02
-7.723000000000000398e+01
-3.509000000000000341e+01
9.492000000000000171e+01
1.922199999999999989e+02
-7.645000000000000284e+01
-6.036999999999999744e+01
-7.737000000000000455e+01
-1.714699999999999989e+02
4.314000000000000057e+01
6.812000000000000455e+01
-5.552000000000000313e+01
2.441000000000000014e+01
3.350999999999999801e+01
2.080000000000000071e+00
-3.257000000000000028e+01
3.179700000000000273e+02
-1.919600000000000080e+02
3.103999999999999915e+01
-1.359000000000000057e+02
-1.155300000000000011e+02
1.353199999999999932e+02
4.960000000000000142e+01
-1.010199999999999960e+02
-1.628000000000000114e+01
-6.537999999999999545e+01
1.004300000000000068e+02
7.620999999999999375e+01
1.140000000000000036e+01
2.935000000000000142e+01
1.844999999999999929e+01
-2.116000000000000014e+01
7.360000000000000320e+00
-2.994000000000000128e+01
3.400000000000000000e+01
-3.076000000000000156e+01
2.292999999999999972e+01
6.669999999999999929e+00
-2.939999999999999858e+01
2.741000000000000014e+01
-2.490000000000000213e+00
-4.459999999999999964e+00
1.912000000000000099e+01
5.200999999999999801e+01
1.113900000000000006e+02
2.992200000000000273e+02
-3.968100000000000023e+02
-1.562100000000000080e+02
-2.071999999999999886e+01
3.632999999999999829e+01
-3.240000000000000213e+00
2.485000000000000142e+01
-4.809999999999999609e+00
-5.171000000000000085e+01
-4.828999999999999915e+01
-3.489000000000000057e+01
-4.139999999999999680e+00
2.076000000000000156e+01
-3.565999999999999659e+01
-3.567000000000000171e+01
5.314000000000000057e+01
1.564000000000000057e+01
-9.210000000000000853e+00
1.698999999999999844e+01
4.040000000000000036e+00
-1.478999999999999915e+01
3.846000000000000085e+01
1.053299999999999983e+02
-1.208999999999999986e+01
-6.018999999999999773e+01
1.367299999999999898e+02
-3.463000000000000256e+01
-1.582800000000000011e+02
-1.013400000000000034e+02
-2.258600000000000136e+02
-2.862000000000000099e+01
1.150400000000000063e+02
-1.536999999999999922e+01
-1.075699999999999932e+02
-3.827000000000000313e+01
4.222999999999999687e+01
3.250000000000000000e+01
1.455000000000000071e+01
1.675000000000000000e+01
2.294999999999999929e+01
-4.799999999999999822e+00
1.533000000000000007e+01
2.955999999999999872e+01
1.250000000000000000e+00
-2.564000000000000057e+01
3.564000000000000057e+01
1.075000000000000000e+01
-2.473999999999999844e+01
2.721000000000000085e+01
1.700000000000000000e+01
-1.359999999999999964e+01
3.379999999999999716e+01
1.376500000000000057e+02
2.614900000000000091e+02
-2.831299999999999955e+02
-5.974000000000000199e+01
1.376299999999999955e+02
-1.143900000000000006e+02
6.519999999999999574e+00
-4.456000000000000227e+01
-3.270000000000000284e+01
6.979999999999999716e+01
-1.126899999999999977e+02
-2.610500000000000114e+02
1.324300000000000068e+02
1.648899999999999864e+02
7.357999999999999829e+01
-6.668000000000000682e+01
6.937000000000000455e+01
-1.556599999999999966e+02
4.339000000000000057e+01
2.281100000000000136e+02
-1.685699999999999932e+02
-2.348999999999999844e+01
1.257600000000000051e+02
-7.678000000000000114e+01
-6.385000000000000142e+01
-2.468199999999999932e+02
1.289300000000000068e+02
2.581299999999999955e+02
5.879999999999999716e+01
-1.518499999999999943e+02
1.345600000000000023e+02
-2.127299999999999898e+02
-9.080000000000000071e+00
5.221999999999999886e+01
2.521800000000000068e+02
-1.263100000000000023e+02
5.992000000000000171e+01
-2.176999999999999957e+01
-2.648500000000000227e+02
6.375999999999999801e+01
1.874199999999999875e+02
1.084099999999999966e+02
5.627000000000000313e+01
-9.698000000000000398e+01
3.743999999999999773e+01
1.740699999999999932e+02
-2.112199999999999989e+02
6.500000000000000000e+00
-9.045999999999999375e+01
1.589000000000000057e+01
1.022500000000000000e+02
3.122300000000000182e+02
-3.660999999999999943e+01
-9.940000000000000568e+01
-2.504900000000000091e+02
6.219999999999999751e+00
2.425000000000000000e+02
-1.464600000000000080e+02
-1.236400000000000006e+02
2.036899999999999977e+02
-9.860999999999999943e+01
-9.465999999999999659e+01
1.424799999999999898e+02
-1.032900000000000063e+02
-3.790000000000000036e+00
1.055100000000000051e+02
-2.253000000000000114e+01
-1.499699999999999989e+02
1.682599999999999909e+02
7.451000000000000512e+01
-1.328100000000000023e+02
5.370000000000000284e+01
2.009799999999999898e+02
-5.292999999999999972e+01
-1.549900000000000091e+02
-1.223400000000000034e+02
5.693999999999999773e+01
1.442199999999999989e+02
1.527899999999999920e+02
-5.224000000000000199e+01
2.959999999999999964e+00
1.576200000000000045e+02
-7.225000000000000000e+01
1.062199999999999989e+02
5.878999999999999915e+01
5.832999999999999829e+01
-9.315000000000000568e+01
5.825000000000000000e+01
-2.991000000000000014e+01
-7.687000000000000455e+01
1.979600000000000080e+02
-1.387500000000000000e+02
-7.903000000000000114e+01
-4.897999999999999687e+01
-3.403000000000000114e+01
1.892700000000000102e+02
-1.335200000000000102e+02
1.299000000000000021e+01
4.231000000000000227e+01
-1.550500000000000114e+02
2.117000000000000171e+01
-3.187999999999999901e+01
2.500000000000000000e-01
3.554999999999999716e+01
1.574000000000000021e+01
-1.047000000000000064e+01
1.764999999999999858e+01
7.650000000000000355e+00
-7.570000000000000284e+00
9.640000000000000568e+00
3.060000000000000053e+00
-8.460000000000000853e+00
9.509999999999999787e+00
1.215000000000000036e+01
-1.530000000000000027e+00
-8.169999999999999929e+00
9.109999999999999432e+00
2.910000000000000142e+00
-1.492999999999999972e+01
1.503999999999999915e+01
7.360000000000000320e+00
-2.569999999999999840e+00
1.365000000000000036e+01
1.870000000000000107e+00
-9.820000000000000284e+00
-9.060000000000000497e+00
8.210000000000000853e+00
-1.590000000000000080e+00
-1.726999999999999957e+01
1.308999999999999986e+01
3.049999999999999822e+00
-2.083999999999999986e+01
1.338000000000000078e+01
2.379999999999999893e+00
-6.200000000000000178e+00
-1.748999999999999844e+01
1.069999999999999929e+01
-1.600000000000000089e+00
-1.081000000000000050e+01
1.405000000000000071e+01
4.150000000000000355e+00
-2.700000000000000178e+00
-2.040000000000000036e+00
1.110999999999999943e+01
-5.099999999999999645e+00
-2.657000000000000028e+01
1.983999999999999986e+01
7.330000000000000071e+00
-1.561999999999999922e+01
6.370000000000000107e+00
8.880000000000000782e+00
-4.599999999999999645e+00
-1.432000000000000028e+01
1.516999999999999993e+01
2.689999999999999947e+00
-1.389000000000000057e+01
2.073999999999999844e+01
-9.799999999999999822e-01
-2.207000000000000028e+01
1.300000000000000044e+00
1.307000000000000028e+01
-9.490000000000000213e+00
-2.198000000000000043e+01
1.536999999999999922e+01
9.230000000000000426e+00
-1.003999999999999915e+01
2.114999999999999858e+01
1.800000000000000044e+00
-1.223000000000000043e+01
6.629999999999999893e+00
9.400000000000000355e+00
-1.351999999999999957e+01
-2.862000000000000099e+01
1.612000000000000099e+01
4.780000000000000249e+00
-5.540000000000000036e+00
2.292999999999999972e+01
1.360000000000000098e+00
-2.470000000000000195e+00
-4.500000000000000111e-01
4.610000000000000142e+01
-1.995699999999999932e+02
6.593999999999999773e+01
8.237999999999999545e+01
-1.245100000000000051e+02
-8.830000000000000071e+00
7.959999999999999964e+00
1.266200000000000045e+02
-2.171200000000000045e+02
-1.457400000000000091e+02
3.895000000000000284e+01
-2.196999999999999886e+01
1.891800000000000068e+02
4.228999999999999915e+01
1.686999999999999886e+02
-1.546999999999999886e+02
-4.137300000000000182e+02
2.206100000000000136e+02
1.773499999999999943e+02
-2.040000000000000036e+00
-2.641000000000000014e+01
-5.704999999999999716e+01
-1.364000000000000057e+01
-4.575999999999999801e+01
-7.684999999999999432e+01
7.926000000000000512e+01
2.529000000000000057e+02
1.825200000000000102e+02
3.396999999999999886e+01
-2.051999999999999957e+01
-6.324000000000000199e+01
-8.499999999999999778e-01
1.408000000000000007e+01
-3.975999999999999801e+01
1.899999999999999911e+00
-3.379999999999999716e+01
-2.656299999999999955e+02
-7.512000000000000455e+01
-1.500099999999999909e+02
3.484499999999999886e+02
3.632000000000000028e+01
1.189800000000000040e+02
6.596000000000000227e+02
-5.135800000000000409e+02
5.000000000000000000e-01
-1.169800000000000040e+02
2.851999999999999957e+01
9.251999999999999602e+01
2.432999999999999829e+01
1.035400000000000063e+02
9.898000000000000398e+01
1.351500000000000057e+02
-8.189999999999999503e+00
-2.890899999999999750e+02
-2.098499999999999943e+02
6.161999999999999744e+01
-1.268999999999999950e+01
-6.459999999999999964e+00
7.779000000000000625e+01
8.246999999999999886e+01
3.604300000000000068e+02
-5.038100000000000023e+02
4.447099999999999795e+02
2.149999999999999911e+00
-7.775000000000000000e+01
-6.893000000000000682e+01
7.039000000000000057e+01
-3.399999999999999911e+00
-5.789000000000000057e+01
4.831000000000000227e+01
-5.830000000000000071e+00
-5.304999999999999716e+01
7.409999999999999432e+01
6.379999999999999893e+00
-7.306999999999999318e+01
3.710999999999999943e+01
-4.120000000000000107e+00
-8.306000000000000227e+01
5.150000000000000000e+01
6.060999999999999943e+01
-3.561999999999999744e+01
-7.331000000000000227e+01
-1.387899999999999920e+02
8.168000000000000682e+01
4.332000000000000028e+01
1.034999999999999964e+01
6.000999999999999801e+01
3.563000000000000256e+01
4.689999999999999858e+01
-1.260000000000000009e+00
-2.901999999999999957e+01
3.306000000000000227e+01
1.217999999999999972e+01
-3.403999999999999915e+01
-3.985999999999999943e+01
4.159000000000000341e+01
1.719000000000000128e+01
-5.802000000000000313e+01
3.847999999999999687e+01
4.706000000000000227e+01
8.250000000000000000e+01
1.930000000000000000e+02
1.145900000000000034e+02
-6.945999999999999375e+01
-5.034100000000000250e+02
-1.374399999999999977e+02
2.475099999999999909e+02
-9.959999999999999432e+01
-9.650000000000000000e+01
2.846000000000000085e+01
-6.870000000000000107e+00
-3.211999999999999744e+01
1.596000000000000085e+01
-4.904999999999999716e+01
5.307999999999999829e+01
-1.141700000000000017e+02
2.236399999999999864e+02
2.517100000000000080e+02
-2.160600000000000023e+02
-1.676699999999999875e+02
-1.210999999999999943e+02
-7.400000000000000000e+01
1.223499999999999943e+02
-9.825000000000000000e+01
6.214000000000000057e+01
4.160000000000000142e+01
-3.485000000000000142e+01
1.760000000000000009e+00
3.550000000000000000e+01
-2.110999999999999943e+01
-7.000000000000000000e+00
3.821999999999999886e+01
-1.771000000000000085e+01
-3.346999999999999886e+01
3.307999999999999829e+01
-3.100000000000000089e+00
-2.300000000000000000e+01
2.719999999999999929e+01
-9.550000000000000711e+00
-2.432999999999999829e+01
3.578999999999999915e+01
8.099999999999999645e+00
-2.757000000000000028e+01
2.567999999999999972e+01
7.589999999999999858e+00
-1.923000000000000043e+01
2.623000000000000043e+01
6.339999999999999858e+00
-1.694999999999999929e+01
1.534999999999999964e+01
1.500999999999999979e+01
-6.330000000000000071e+00
4.570000000000000284e+00
9.939999999999999503e+00
-1.610000000000000098e+00
-1.623000000000000043e+01
8.939999999999999503e+00
-1.709999999999999964e+00
-1.158000000000000007e+01
1.433000000000000007e+01
2.399999999999999911e-01
-1.218999999999999950e+01
2.319999999999999840e+00
2.567999999999999972e+01
6.885999999999999943e+01
2.047700000000000102e+02
-2.420200000000000102e+02
-9.851000000000000512e+01
-1.386999999999999922e+01
2.867000000000000171e+01
1.048000000000000043e+01
2.510999999999999943e+01
9.119999999999999218e+00
2.787999999999999901e+01
-1.254200000000000017e+02
-3.495699999999999932e+02
4.597999999999999687e+01
1.804699999999999989e+02
-6.132000000000000028e+01
8.181000000000000227e+01
-9.675000000000000000e+01
-4.140999999999999659e+01
4.921000000000000085e+01
3.390999999999999659e+01
-3.603999999999999915e+01
1.916000000000000014e+01
1.646000000000000085e+01
-8.299999999999999600e-01
9.289999999999999147e+00
1.188000000000000078e+01
-4.570000000000000284e+00
4.000000000000000000e+00
8.150000000000000355e+00
-1.787999999999999901e+01
6.450000000000000178e+00
7.240000000000000213e+00
-1.149999999999999911e+00
-5.830000000000000071e+00
2.151000000000000156e+01
-3.668999999999999773e+01
2.860000000000000142e+01
1.860000000000000098e+00
4.790000000000000036e+00
-1.621999999999999886e+01
3.157000000000000028e+01
-2.358999999999999986e+01
-3.215999999999999659e+01
2.069000000000000128e+01
2.709999999999999964e+00
-1.676999999999999957e+01
1.653000000000000114e+01
2.370000000000000107e+00
-1.194999999999999929e+01
3.609999999999999876e+00
5.669999999999999929e+00
-5.240000000000000213e+00
3.620000000000000107e+00
4.646999999999999886e+01
1.128499999999999943e+02
1.129399999999999977e+02
-2.479999999999999982e+00
-1.413000000000000078e+01
-1.803400000000000034e+02
-2.908100000000000023e+02
-7.717000000000000171e+01
6.634999999999999432e+01
1.892199999999999989e+02
3.370299999999999727e+02
6.498000000000000398e+01
-1.725099999999999909e+02
-1.215999999999999943e+02
-7.645000000000000284e+01
-1.128199999999999932e+02
-3.321999999999999886e+01
-6.618999999999999773e+01
-5.934000000000000341e+01
4.336999999999999744e+01
2.819000000000000128e+01
-1.367800000000000011e+02
-2.725799999999999841e+02
-1.467999999999999972e+01
2.479099999999999966e+02
1.786100000000000136e+02
-1.612999999999999901e+01
2.891499999999999773e+02
-1.273299999999999983e+02
-1.955500000000000114e+02
8.820000000000000284e+00
3.773700000000000045e+02
-1.652700000000000102e+02
-8.797200000000000273e+02
3.595000000000000000e+02
3.038000000000000114e+02
2.406100000000000136e+02
5.367999999999999972e+01
-1.112399999999999949e+02
2.275000000000000000e+01
7.851999999999999602e+01
-1.570000000000000062e+00
1.263000000000000078e+01
8.073999999999999488e+01
-1.040000000000000036e+00
-1.149000000000000057e+02
6.296000000000000085e+01
9.679999999999999716e+00
-4.438000000000000256e+01
2.476000000000000156e+01
4.692999999999999972e+01
-1.368999999999999950e+01
-2.741000000000000014e+01
9.481000000000000227e+01
-6.299999999999999822e+00
-5.490999999999999659e+01
3.909000000000000341e+01
1.384999999999999964e+01
-2.271999999999999886e+01
-7.523999999999999488e+01
4.575999999999999801e+01
5.310000000000000142e+01
-2.228999999999999915e+01
3.888000000000000256e+01
-2.267000000000000171e+01
-3.846999999999999886e+01
-7.628000000000000114e+01
1.317400000000000091e+02
1.894999999999999929e+01
3.152200000000000273e+02
-1.689900000000000091e+02
8.599999999999999645e+00
1.206500000000000057e+02
1.377700000000000102e+02
-1.302599999999999909e+02
-4.825999999999999801e+01
-6.575700000000000500e+02
-4.314000000000000057e+01
3.709300000000000068e+02
5.492000000000000455e+02
-1.176400000000000006e+02
-7.015999999999999659e+01
7.053000000000000114e+01
1.043299999999999983e+02
-2.576499999999999773e+02
3.198000000000000043e+01
1.675000000000000000e+01
-2.812000000000000099e+01
-7.187999999999999545e+01
1.601200000000000045e+02
3.479999999999999716e+01
2.837999999999999901e+01
-3.784000000000000341e+01
1.098599999999999994e+02
1.400999999999999979e+01
-1.128100000000000023e+02
-3.031999999999999886e+02
2.366800000000000068e+02
9.282999999999999829e+01
7.837000000000000455e+01
-1.384499999999999886e+02
-1.855099999999999909e+02
3.030000000000000071e+01
1.207900000000000063e+02
3.146000000000000085e+01
-7.600000000000000089e-01
-1.760000000000000142e+01
1.989999999999999858e+01
8.157999999999999829e+01
-1.003599999999999994e+02
-8.289000000000000057e+01
-5.632999999999999829e+01
2.941000000000000014e+01
1.452999999999999936e+01
-8.006999999999999318e+01
4.482000000000000028e+01
4.267999999999999972e+01
-3.317999999999999972e+01
4.479999999999999716e+01
4.771000000000000085e+01
-2.498999999999999844e+01
2.035999999999999943e+01
4.079999999999999716e+01
-1.742000000000000171e+01
3.510000000000000142e+01
4.719999999999999751e+00
-3.073000000000000043e+01
3.953999999999999915e+01
2.294999999999999929e+01
-2.387000000000000099e+01
3.182000000000000028e+01
3.960000000000000142e+01
5.117999999999999972e+01
2.878999999999999773e+02
2.173400000000000034e+02
-1.457400000000000091e+02
-7.995299999999999727e+02
-1.820699999999999932e+02
2.089799999999999898e+02
9.076000000000000512e+01
1.125400000000000063e+02
2.757799999999999727e+02
-1.470500000000000114e+02
7.181999999999999318e+01
9.176999999999999602e+01
9.699999999999999734e-01
-1.677199999999999989e+02
-6.157200000000000273e+02
4.648299999999999841e+02
2.538799999999999955e+02
4.300999999999999801e+01
2.360999999999999943e+01
-2.186899999999999977e+02
-4.332999999999999829e+01
-1.604300000000000068e+02
1.297400000000000091e+02
1.621899999999999977e+02
-2.769000000000000128e+01
-8.350000000000000000e+01
-5.160000000000000142e+01
1.620000000000000107e+00
3.317999999999999972e+01
4.586999999999999744e+01
4.453000000000000114e+01
1.326599999999999966e+02
2.661000000000000227e+02
7.906999999999999318e+01
-5.778999999999999915e+01
-1.414600000000000080e+02
5.469999999999999751e+00
4.356000000000000227e+01
1.685600000000000023e+02
1.984399999999999977e+02
-7.034000000000000341e+01
3.026000000000000156e+01
-9.951000000000000512e+01
2.060800000000000125e+02
9.910900000000000318e+02
-6.152000000000000455e+02
-2.943500000000000227e+02
-4.977500000000000000e+02
-3.039999999999999858e+01
8.340999999999999659e+01
-5.072999999999999687e+01
9.634999999999999432e+01
-1.812400000000000091e+02
-4.547999999999999687e+01
6.192999999999999972e+01
9.439999999999999503e+00
5.010999999999999943e+01
3.260000000000000142e+01
-1.442999999999999972e+01
1.310999999999999943e+02
2.163700000000000045e+02
-1.815600000000000023e+02
-1.409600000000000080e+02
-6.759999999999999787e+00
-8.419999999999999929e+00
7.800000000000000000e+01
2.208999999999999986e+01
-6.990999999999999659e+01
5.979999999999999716e+01
1.348000000000000043e+01
-4.336999999999999744e+01
6.968000000000000682e+01
2.223899999999999864e+02
3.727500000000000000e+02
-9.843000000000000682e+01
-3.668199999999999932e+02
8.287000000000000455e+01
-6.968000000000000682e+01
-1.133100000000000023e+02
1.087800000000000011e+02
2.219999999999999929e+01
-2.858199999999999932e+02
1.468700000000000045e+02
-3.224000000000000199e+01
-1.169399999999999977e+02
1.991800000000000068e+02
1.730000000000000071e+01
-1.919000000000000128e+01
3.173000000000000043e+01
-1.504499999999999886e+02
-9.387999999999999545e+01
6.388000000000000256e+01
1.311899999999999977e+02
2.008199999999999932e+02
-1.037000000000000028e+02
2.148000000000000043e+01
-4.360600000000000023e+02
2.065000000000000000e+02
9.470000000000000284e+01
5.593999999999999773e+01
-2.630799999999999841e+02
7.887999999999999545e+01
-3.519700000000000273e+02
6.471999999999999886e+01
1.139000000000000057e+02
2.662699999999999818e+02
1.424000000000000021e+01
-6.160000000000000142e+01
-2.046399999999999864e+02
-2.961600000000000250e+02
1.150400000000000063e+02
-5.896000000000000085e+01
4.103999999999999915e+01
5.356000000000000227e+01
-9.582999999999999829e+01
-4.890999999999999659e+01
5.956000000000000227e+01
5.900000000000000355e+00
3.584000000000000341e+01
4.947999999999999687e+01
-1.839999999999999858e+01
3.678999999999999915e+01
4.592000000000000171e+01
-1.819000000000000128e+01
4.039999999999999858e+01
3.385999999999999943e+01
-6.299999999999999822e+00
2.846999999999999886e+01
1.992999999999999972e+01
-4.870000000000000284e+01
2.858999999999999986e+01
3.560000000000000142e+01
6.330000000000000071e+00
5.411999999999999744e+01
-4.490999999999999659e+01
4.400000000000000022e-01
-6.806999999999999318e+01
3.759999999999999787e+00
2.116200000000000045e+02
4.882799999999999727e+02
-1.935000000000000000e+02
-4.094300000000000068e+02
-2.831899999999999977e+02
2.016899999999999977e+02
3.206000000000000227e+01
-4.857999999999999829e+01
1.075400000000000063e+02
1.588000000000000078e+01
-7.000000000000000000e+01
-3.359999999999999876e+00
1.380000000000000071e+01
4.028999999999999915e+01
5.382000000000000028e+01
2.652799999999999727e+02
1.421800000000000068e+02
-5.047099999999999795e+02
-1.680200000000000102e+02
1.420300000000000011e+02
5.677000000000000313e+01
-6.999999999999999556e-01
6.995999999999999375e+01
2.308999999999999986e+01
-2.400000000000000000e+01
3.772999999999999687e+01
2.612999999999999901e+01
-6.450000000000000178e+00
2.844999999999999929e+01
3.359999999999999876e+00
-5.650000000000000355e+00
1.144999999999999929e+01
1.364000000000000057e+01
-6.769999999999999574e+00
-1.119999999999999929e+01
1.115000000000000036e+01
-2.919999999999999929e+00
-1.502999999999999936e+01
1.691000000000000014e+01
-2.729999999999999982e+00
-1.360999999999999943e+01
2.437000000000000099e+01
-1.944999999999999929e+01
-2.140000000000000124e+00
1.871999999999999886e+01
2.253000000000000114e+01
-3.634000000000000341e+01
-2.594999999999999929e+01
1.311999999999999922e+01
6.799999999999999822e+00
-7.370000000000000107e+00
-9.210000000000000853e+00
2.737999999999999901e+01
9.915999999999999659e+01
1.985500000000000114e+02
2.817000000000000171e+01
1.108100000000000023e+02
-1.509600000000000080e+02
-4.337900000000000205e+02
1.137300000000000040e+02
-4.672300000000000182e+02
1.158999999999999986e+01
3.077400000000000091e+02
2.767000000000000171e+01
2.693299999999999841e+02
1.021800000000000068e+02
1.280000000000000071e+01
-5.669999999999999929e+00
-2.839000000000000057e+01
-1.100699999999999932e+02
-4.581200000000000045e+02
-3.250600000000000023e+02
2.220000000000000195e+00
1.991500000000000057e+02
-1.935000000000000142e+01
3.491700000000000159e+02
-1.965500000000000114e+02
2.657799999999999727e+02
2.885600000000000023e+02
-2.470900000000000034e+02
1.087199999999999989e+02
2.173400000000000034e+02
4.197999999999999687e+01
2.560000000000000142e+01
-1.360900000000000034e+02
-1.131899999999999977e+02
4.528000000000000114e+01
2.435000000000000142e+01
-2.101699999999999875e+02
2.754399999999999977e+02
-3.426999999999999886e+02
-1.409900000000000091e+02
9.348000000000000398e+01
3.988299999999999841e+02
3.378899999999999864e+02
-8.915999999999999659e+01
-2.274300000000000068e+02
-1.021700000000000017e+02
1.879999999999999893e+00
-1.737700000000000102e+02
1.885699999999999932e+02
1.289900000000000091e+02
-5.000999999999999801e+01
7.651999999999999602e+01
-6.780000000000000249e+00
-5.753000000000000114e+01
5.636999999999999744e+01
6.209999999999999964e+00
-2.998000000000000043e+01
3.724000000000000199e+01
1.028199999999999932e+02
2.182700000000000102e+02
-6.484000000000000341e+01
-2.448000000000000043e+01
-1.080199999999999960e+02
-1.587299999999999898e+02
-6.879999999999999716e+01
9.537999999999999545e+01
1.241000000000000014e+01
-3.589000000000000057e+01
4.831000000000000227e+01
1.076299999999999955e+02
2.780199999999999818e+02
-1.764999999999999858e+01
-7.587999999999999545e+01
-5.809000000000000341e+01
-3.069999999999999929e+01
-2.067899999999999920e+02
-6.164600000000000364e+02
6.968999999999999773e+01
2.392700000000000102e+02
2.826000000000000156e+01
1.470600000000000023e+02
1.217099999999999937e+02
1.539099999999999966e+02
1.713799999999999955e+02
-3.338000000000000256e+01
-3.021100000000000136e+02
-1.739699999999999989e+02
-2.326800000000000068e+02
-1.586500000000000057e+02
1.694699999999999989e+02
-3.438700000000000045e+02
1.913199999999999932e+02
-4.132999999999999829e+01
1.789399999999999977e+02
3.428000000000000114e+02
-2.044999999999999929e+01
4.705299999999999727e+02
-3.712599999999999909e+02
-2.160000000000000142e+00
8.160000000000000142e+00
1.054899999999999949e+02
-1.662999999999999901e+01
1.125999999999999979e+01
-1.829900000000000091e+02
-5.175099999999999909e+02
9.500000000000000000e+01
-5.874000000000000199e+01
-1.819999999999999929e+01
-1.482500000000000000e+02
6.009999999999999787e+00
4.364900000000000091e+02
2.000399999999999920e+02
1.154000000000000057e+02
-1.604099999999999966e+02
-6.537100000000000364e+02
-4.847900000000000205e+02
4.197500000000000000e+02
4.214900000000000091e+02
-2.894999999999999929e+01
4.385600000000000023e+02
-1.055799999999999983e+02
-1.147399999999999949e+02
-6.152100000000000364e+02
-7.408600000000000136e+02
1.438400000000000034e+02
1.067000000000000028e+02
2.356500000000000057e+02
3.018100000000000023e+02
3.437400000000000091e+02
2.303999999999999915e+01
-1.350600000000000023e+02
9.398999999999999488e+01
1.265499999999999972e+02
-4.693199999999999932e+02
2.190300000000000011e+02
-1.691899999999999977e+02
-4.646000000000000085e+01
2.180300000000000011e+02
-1.586100000000000136e+02
