1593436174.00
64.000000
-0.00
-0.00
-0.00
-0.00
-0.00
-0.00
-0.00
-0.00
-0.00
-0.00
0.00
0.01
0.01
-0.00
-0.03
-0.05
-0.05
0.00
0.13
0.36
0.66
1.01
1.37
1.72
2.06
2.40
2.79
3.24
3.80
4.42
5.06
5.66
6.20
6.68
7.15
7.68
8.31
9.14
10.09
11.04
11.88
12.56
13.14
13.76
14.65
15.96
17.91
20.32
22.90
25.38
27.58
29.57
31.68
34.32
37.81
42.54
48.15
54.10
59.83
64.97
69.58
74.14
79.34
85.71
93.76
103.00
112.62
121.73
129.77
136.75
143.30
150.75
157.77
166.64
177.95
191.79
206.97
220.57
228.25
225.36
208.53
176.87
132.76
80.05
23.07
-34.94
-92.44
-149.16
-205.23
-260.37
-313.74
-363.87
-409.83
-450.91
-486.50
-515.74
-537.23
-549.22
-549.96
-538.37
-514.21
-478.67
-433.88
-382.45
-327.02
-269.84
-212.63
-156.66
-102.95
-52.37
-5.90
35.58
71.43
101.35
125.50
144.38
158.69
169.15
176.37
180.75
182.57
182.07
179.51
175.23
169.65
163.18
156.15
148.81
141.30
133.69
126.02
118.33
110.69
103.16
95.80
88.68
81.83
75.25
68.95
62.95
57.25
51.86
46.78
42.03
37.59
33.45
29.61
26.07
22.81
19.83
17.11
14.67
12.48
10.54
8.83
7.35
6.07
4.97
4.05
3.27
2.62
2.09
1.65
1.30
1.01
0.79
0.61
0.47
0.37
0.28
0.22
0.19
0.18
0.18
0.18
0.16
0.12
0.06
-0.00
-0.05
-0.07
-0.05
-0.01
0.05
0.09
0.09
0.06
0.01
-0.04
-0.06
-0.04
0.03
0.10
0.14
0.12
0.03
-0.09
-0.18
-0.18
-0.07
0.13
0.32
0.40
0.29
0.01
-0.35
-0.63
-0.69
-0.47
-0.03
0.43
0.70
0.59
0.10
-0.61
-1.24
-1.51
-1.27
-0.59
0.22
0.78
0.77
0.14
-0.90
-1.92
-2.54
-2.48
-1.76
-0.61
0.50
1.09
0.57
-1.62
-5.59
-10.73
-15.52
-17.98
-16.46
-10.55
-1.54
8.11
15.69
19.28
18.38
13.84
7.19
0.16
-5.81
-9.66
-10.81
-9.28
-5.83
-1.77
1.50
2.96
2.42
0.37
-2.41
-5.19
-7.42
-8.68
-8.63
-7.09
-4.31
-1.02
1.86
3.67
4.28
4.05
3.55
3.14
2.80
2.11
0.74
-1.25
-3.32
-4.73
-4.93
-3.86
-1.94
0.04
1.13
0.70
-1.34
-4.46
-7.75
-10.12
-10.66
-8.76
-4.66
0.35
4.45
5.99
4.36
0.05
-5.49
-10.19
-12.05
-10.35
-6.31
-1.87
1.58
4.59
9.11
17.86
33.55
58.04
90.65
127.18
161.63
187.60
200.06
195.63
173.55
136.93
93.26
51.95
21.55
8.88
16.46
41.28
73.47
97.49
96.57
63.87
6.62
-59.75
-119.39
-167.50
-202.93
-225.74
-236.30
-235.04
-223.31
-200.02
-172.18
-149.04
-137.82
-139.85
-150.85
-162.68
-166.24
-147.38
-102.82
-42.54
17.46
64.80
96.27
115.01
125.69
131.17
131.96
126.02
111.94
92.14
72.03
57.11
49.58
47.85
47.78
46.68
43.43
39.39
38.59
45.66
63.52
91.88
127.34
164.19
195.70
214.67
215.47
195.71
156.82
103.48
41.97
-19.98
-72.65
-108.07
-123.01
-119.47
-103.48
-82.78
-63.88
-49.99
-40.43
-32.26
-23.13
-13.62
-7.17
-8.19
-19.11
-37.85
-57.92
-71.08
-71.79
-60.74
-45.04
-34.43
-35.86
-49.34
-67.75
-80.77
-80.54
-65.71
-41.96
-18.44
-3.10
0.45
-6.53
-19.71
-34.10
-45.71
-52.25
-53.36
-50.43
-46.59
-46.04
-52.89
-69.45
-94.94
-125.16
-153.37
-171.94
-174.12
-155.69
-116.80
-63.24
-6.45
38.90
59.63
49.38
12.09
-38.62
-84.40
-108.87
-103.26
-67.85
-9.89
60.36
132.77
198.38
248.62
274.99
270.66
233.47
168.60
88.39
8.76
-55.96
-97.68
-115.89
-115.77
-104.42
-87.34
-67.00
-43.90
-18.56
7.16
30.27
48.59
62.41
74.74
89.42
108.20
128.35
142.56
141.77
119.48
76.08
20.73
-30.86
-62.06
-62.16
-31.31
18.90
69.77
102.72
106.05
78.43
27.71
-33.71
-94.25
-146.51
-187.62
-217.55
-237.30
-247.98
-251.15
-249.15
-244.81
-240.36
-235.94
-229.05
-215.56
-191.78
-156.58
-112.56
-65.71
-23.62
6.67
20.71
18.13
2.91
-17.36
-33.34
-36.52
-21.55
12.71
63.80
127.00
196.39
265.15
325.40
369.00
389.55
385.02
359.27
321.10
280.59
244.70
214.64
186.53
155.07
117.39
74.49
29.69
-14.32
-57.27
-100.40
-143.54
-182.82
-210.82
-219.65
-204.69
-167.28
-114.47
-56.40
-2.79
39.87
68.79
83.94
86.29
76.58
55.01
22.16
-20.36
-69.01
-117.99
-160.22
-188.69
-198.13
-186.48
-155.66
-111.77
-64.00
-22.80
2.95
8.82
-3.43
-26.12
-48.00
-58.16
-50.03
-23.82
13.68
51.98
81.12
95.31
94.42
83.17
68.71
57.93
55.32
62.07
75.98
92.24
105.13
109.47
102.03
82.79
54.68
22.67
-7.88
-32.88
-50.33
-60.11
-63.08
-60.59
-54.50
-47.46
-42.68
-42.86
-48.87
-58.88
-68.71
-73.49
-69.68
-56.53
-36.12
-12.33
10.82
30.50
45.43
55.66
61.86
64.90
65.66
65.06
64.00
63.08
62.30
60.99
58.20
53.29
46.35
38.33
30.58
24.21
19.55
16.09
12.80
8.62
2.86
-4.62
-13.52
-23.21
-32.77
-41.03
-46.80
-49.26
-48.46
-45.43
-41.98
-39.98
-40.57
-43.79
-48.60
-53.48
-57.21
-59.34
-60.28
-61.00
-62.56
-65.61
-70.11
-75.20
-79.39
-81.14
-79.44
-74.51
-67.90
-61.86
-58.27
-57.57
-58.11
-56.63
-49.10
-32.00
-3.21
37.40
87.45
141.59
191.67
228.05
242.57
232.14
201.27
161.70
128.75
115.60
128.12
162.64
207.73
248.62
272.42
271.67
245.69
199.56
141.96
82.64
30.27
-9.23
-33.52
-43.60
-42.79
-35.24
-24.69
-13.96
-4.93
1.09
3.28
1.41
-3.90
-11.39
-19.51
-27.10
-33.67
-39.34
-44.46
-49.22
-53.49
-56.83
-58.75
-58.81
-56.71
-52.25
-45.52
-36.99
-27.65
-18.82
-11.69
-6.73
-3.31
0.13
5.41
13.74
24.81
36.74
46.45
50.76
47.60
36.90
20.69
2.38
-14.41
-27.02
-34.52
-37.93
-40.10
-45.41
-59.01
-85.41
-126.41
-179.30
-236.36
-286.51
-318.66
-325.51
-305.88
-264.25
-208.08
-144.39
-77.71
-10.32
55.97
117.97
170.72
208.79
228.43
229.24
214.47
189.77
161.13
133.14
107.83
84.81
62.36
38.93
14.51
-8.87
-27.88
-39.25
-41.51
-36.04
-26.57
-17.78
-13.33
-14.47
-19.91
-26.96
-32.83
-35.62
-34.58
-29.58
-20.99
-10.18
-0.14
4.46
-1.07
-18.45
-43.80
-67.05
-74.98
-56.68
-8.81
62.21
142.48
216.07
270.60
299.97
303.47
282.90
240.46
179.25
105.31
29.20
-35.52
-76.56
-88.05
-73.07
-42.10
-8.33
17.87
32.07
35.57
32.66
27.56
22.63
18.48
15.22
13.23
13.32
15.97
20.62
25.72
29.19
29.39
25.81
19.25
11.37
3.98
-1.66
-5.19
-6.89
-7.24
-6.48
-4.49
-1.06
3.63
8.76
13.06
15.35
15.10
12.64
8.91
4.92
1.17
-2.50
-6.69
-11.93
-18.29
-25.21
-31.83
-37.37
-41.49
-44.49
-47.00
-49.64
-52.60
-55.52
-57.59
-57.97
-56.19
-52.46
-47.55
-42.45
-37.90
-34.14
-30.93
-27.85
-24.74
-21.84
-19.69
-18.78
-19.20
-20.58
-22.25
-23.71
-24.89
-26.21
-28.28
-31.44
-35.45
-39.47
-42.42
-43.46
-42.39
-39.76
-36.56
-33.80
-32.11
-31.53
-31.69
-32.11
-32.48
-32.89
-33.71
-35.38
-38.12
-41.79
-45.92
-49.98
-53.64
-56.94
-60.18
-63.50
-66.60
-68.66
-68.59
-65.59
-59.67
-51.84
-43.74
-37.08
-32.84
-31.02
-30.64
-30.23
-28.40
-24.32
-17.86
-9.48
-0.05
9.47
18.24
25.65
31.35
35.14
37.03
37.16
35.94
33.88
31.59
29.54
27.85
26.22
23.98
20.46
15.23
8.37
0.42
-7.96
-16.32
-24.66
-33.38
-42.86
-53.07
-63.31
-72.24
-78.35
-80.53
-78.53
-72.98
-64.93
-55.35
-44.67
-32.83
-19.67
-5.46
8.68
21.06
29.85
33.89
33.04
28.25
21.07
13.00
5.09
-2.14
-8.46
-13.58
-16.93
-17.74
-15.47
-10.11
-2.44
6.19
14.32
20.89
25.53
28.44
30.14
30.84
30.36
28.24
24.15
18.31
11.51
4.85
-0.76
-4.98
-8.14
-10.82
-13.38
-15.61
-16.78
-15.99
-12.69
-7.09
-0.13
6.80
12.55
16.58
19.10
20.78
22.29
23.77
24.65
24.01
20.99
15.48
8.28
0.95
-4.82
-7.94
-8.32
-6.77
-4.49
-2.46
-0.98
0.29
1.87
3.89
5.79
6.53
5.16
1.43
-3.93
-9.48
-13.79
-16.09
-16.55
-16.09
-15.72
-16.03
-16.95
-18.03
-18.78
-19.11
-19.21
-19.28
-19.21
-18.43
-16.16
-11.91
-5.84
1.13
7.56
12.15
14.16
13.64
11.23
7.62
3.21
-2.16
-8.90
-17.17
-26.43
-35.35
-42.19
-45.44
-44.44
-39.62
-32.21
-23.68
-15.22
-7.45
-0.58
5.39
10.33
13.90
15.58
14.94
11.91
6.93
0.90
-5.00
-9.71
-12.71
-14.25
-15.28
-17.14
-20.98
-27.48
-36.58
-47.61
-59.45
-70.85
-80.52
-87.38
-90.77
-90.66
-87.73
-83.21
-78.47
-74.36
-70.88
-67.10
-61.65
-53.38
-41.99
-28.17
-13.24
1.52
15.37
28.23
40.30
51.58
61.59
69.50
74.66
77.05
77.39
76.85
76.31
75.91
74.99
72.44
67.35
59.52
49.54
38.57
27.86
18.32
10.21
3.13
-3.88
-12.04
-22.52
-36.10
-52.89
-72.02
-91.55
-108.61
-120.06
-123.26
-117.03
-102.04
-80.56
-55.65
-29.93
-5.06
18.37
40.17
59.66
75.29
84.99
87.00
80.77
67.44
49.67
31.11
15.41
5.54
3.25
8.79
20.88
37.08
54.23
69.17
79.36
83.31
80.79
72.76
61.11
48.33
36.94
29.06
26.04
28.29
35.40
46.43
60.16
75.23
90.17
103.53
113.99
120.54
122.82
121.16
116.73
111.19
106.28
103.34
102.70
103.50
103.90
101.80
95.78
85.88
73.75
62.12
53.78
50.63
53.14
60.42
70.74
82.16
92.94
101.86
108.14
111.44
111.86
109.95
106.53
102.41
97.88
92.60
85.76
76.44
63.94
48.20
29.92
10.35
-9.04
-27.04
-42.95
-56.55
-68.26
-78.85
-89.03
-98.74
-106.98
-112.24
-113.31
-110.00
-102.85
-93.38
-83.61
-75.38
-69.74
-67.02
-67.29
-70.57
-76.32
-82.08
-84.75
-82.36
-75.09
-64.91
-54.25
-44.74
-36.37
-27.44
-14.38
4.73
28.02
50.26
65.87
71.59
67.26
55.17
39.53
27.37
25.09
35.82
58.47
88.90
121.48
150.09
169.48
164.11
127.83
69.92
10.55
-33.98
-59.36
-70.35
-73.25
-74.62
-77.28
-79.60
-79.65
-77.75
-76.56
-79.05
-85.26
-93.04
-99.59
-102.42
-98.91
-88.34
-72.60
-55.24
-39.36
-26.13
-15.19
-5.73
3.18
12.94
24.10
35.63
45.18
50.40
50.07
44.29
34.11
21.40
8.56
-2.33
-10.23
-15.11
-17.50
-18.09
-17.66
-17.14
-17.34
-18.75
-21.67
-26.42
-33.21
-41.83
-51.34
-60.16
-66.69
-70.13
-71.08
-71.45
-73.71
-79.65
-89.43
-101.38
-112.36
-118.80
-117.57
-106.92
-86.87
-59.42
-28.13
2.65
28.99
48.33
60.11
65.47
66.46
65.26
63.55
62.40
62.39
63.68
65.99
68.55
70.25
69.90
66.63
60.20
51.08
40.24
28.86
18.06
8.82
2.00
-1.78
-2.31
-0.05
3.72
7.15
8.33
5.98
-0.17
-9.41
-20.50
-32.30
-44.04
-55.26
-65.41
-73.59
-78.65
-79.71
-76.64
-70.29
-62.17
-53.86
-46.43
-40.11
-34.52
-28.99
-23.06
-16.65
-10.11
-3.91
1.52
6.00
9.62
12.65
15.43
18.27
21.34
24.70
28.26
31.84
35.22
38.26
40.91
43.21
45.22
46.91
48.08
48.44
47.72
45.81
42.87
39.21
35.09
30.64
25.77
20.40
14.58
8.60
2.96
-1.90
-5.70
-8.50
-10.57
-12.22
-13.69
-15.04
-16.30
-17.42
-18.41
-19.29
-20.03
-20.51
-20.68
-20.56
-20.33
-20.28
-20.79
-22.11
-24.33
-27.32
-30.73
-34.13
-37.02
-38.93
-39.43
-38.18
-34.96
-29.75
-22.86
-14.89
-6.76
0.63
6.60
10.89
13.77
15.83
17.71
19.76
21.77
23.13
23.01
20.82
16.57
10.96
5.21
0.61
-2.07
-2.93
-2.89
-3.36
-5.52
-9.73
-15.18
-20.08
-22.07
-18.95
-9.25
7.21
28.97
53.05
75.35
91.82
99.68
98.69
91.26
81.73
74.41
71.67
72.81
74.32
71.80
62.24
45.78
25.87
7.83
-3.46
-5.55
0.98
13.34
28.17
43.14
57.64
72.46
88.93
108.26
131.35
158.77
190.59
225.92
262.37
296.02
322.35
337.72
340.63
332.25
315.69
294.61
271.90
249.05
226.28
203.30
179.78
155.59
130.61
104.62
77.13
47.82
16.65
-15.96
-49.28
-82.54
-115.45
-148.39
-182.17
-217.54
-254.32
-291.19
-325.89
-356.08
-380.13
-397.55
-408.63
-413.83
-413.21
-406.60
-394.12
-376.85
-356.90
-336.73
-318.20
-301.83
-286.75
-271.36
-254.06
-233.83
-210.36
-183.82
-154.64
-123.33
-90.35
-56.04
-20.71
15.29
51.29
86.23
118.71
147.47
172.05
193.20
212.91
233.86
258.35
287.13
318.58
348.74
372.32
384.45
382.51
367.28
342.54
313.38
284.13
256.44
229.09
199.04
163.25
120.13
70.36
17.09
-34.59
-78.70
-110.14
-126.78
-131.22
-130.71
-134.90
-151.87
-184.13
-226.81
-269.14
-298.63
-305.93
-288.14
-249.18
-197.49
-142.74
-92.90
-52.94
-24.76
-8.06
-1.24
-2.17
-8.54
-17.80
-27.06
-33.02
-32.41
-23.07
-5.22
17.49
38.46
49.89
45.42
22.25
-18.41
-72.14
-132.81
-193.53
-247.29
-287.64
-309.93
-313.08
-300.64
-280.02
-259.73
-246.01
-240.60
-241.34
-244.81
-249.29
-255.83
-266.74
-282.83
-301.38
-316.42
-321.37
-312.17
-289.21
-256.69
-220.49
-185.36
-153.16
-122.80
-91.72
-57.71
-19.99
20.66
62.70
104.54
144.88
182.47
215.77
242.98
262.52
273.66
276.90
273.83
266.56
257.06
246.81
236.77
227.57
219.50
212.57
206.34
200.14
193.24
185.25
176.35
167.18
158.56
151.18
145.33
140.85
137.30
134.17
131.07
127.84
124.49
121.23
118.34
116.18
115.25
116.17
119.76
127.06
139.52
158.87
186.51
222.41
263.96
305.60
339.74
359.06
359.11
340.18
307.08
267.24
227.60
192.09
160.75
130.75
98.54
61.97
21.38
-20.73
-60.93
-96.52
-126.50
-151.59
-173.55
-194.48
-216.37
-240.88
-268.60
-298.04
-324.49
-340.30
-337.16
-310.11
-260.96
-199.23
-139.38
-95.43
-75.94
-81.35
-104.86
-135.74
-162.97
-177.96
-176.39
-159.12
-132.03
-104.42
-85.41
-79.83
-85.87
-96.15
-101.74
-97.03
-82.17
-61.61
-40.34
-20.53
-1.27
18.72
37.77
50.39
49.95
33.45
5.01
-24.58
-42.39
-39.35
-14.93
22.36
58.29
78.67
74.80
46.46
1.57
-46.94
-85.94
-106.55
-106.80
-91.74
-70.76
-53.80
-47.65
-54.01
-70.04
-90.80
-111.77
-130.15
-144.60
-154.04
-157.08
-152.44
-140.25
-123.13
-105.80
-93.43
-89.32
-93.45
-102.47
-111.52
-116.43
-115.57
-109.97
-102.11
-93.99
-85.63
-74.91
-58.54
-34.09
-1.37
36.92
76.12
111.38
139.43
159.39
172.32
179.98
183.51
183.07
178.38
169.61
158.01
145.73
134.93
126.65
120.45
114.63
107.40
97.81
86.37
74.61
64.19
55.95
49.51
43.58
36.71
28.09
17.79
6.64
-4.24
-14.14
-22.98
-31.37
-40.14
-50.00
-61.07
-72.78
-83.93
-92.98
-98.47
-99.25
-94.76
-85.11
-71.04
-53.75
-34.73
-15.45
2.87
19.36
33.59
45.43
54.93
62.24
67.54
71.06
73.03
73.66
73.22
71.94
70.09
68.03
66.13
64.69
63.96
64.09
65.02
66.43
67.65
67.65
65.44
60.42
52.78
43.50
34.09
25.80
19.20
13.97
9.28
4.31
-1.20
-6.95
-12.37
-17.05
-21.13
-25.18
-29.96
-35.99
-43.41
-51.88
-60.53
-68.21
-73.55
-75.26
-72.30
-64.22
-51.24
-34.14
-14.08
7.72
30.16
52.25
73.12
92.03
108.38
122.02
133.36
143.13
152.11
160.61
168.22
174.21
178.45
182.27
188.66
201.02
220.99
246.53
271.65
288.04
288.33
269.13
231.94
181.75
124.49
65.17
7.71
-44.07
-85.79
-113.47
-125.68
-125.38
-119.53
-116.19
-120.46
-131.89
-145.23
-153.60
-152.49
-141.94
-125.79
-108.85
-94.24
-82.44
-72.40
-63.56
-57.24
-56.35
-63.75
-80.01
-101.82
-122.46
-134.12
-131.13
-112.72
-83.73
-52.89
-29.18
-18.16
-19.73
-28.66
-37.37
-39.56
-32.85
-19.29
-3.71
8.99
16.01
17.46
15.61
13.32
12.47
13.28
14.52
14.42
11.69
6.17
-1.22
-8.98
-15.76
-20.82
-24.12
-26.07
-27.09
-27.34
-26.62
-24.58
-21.08
-16.49
-11.80
-8.45
-7.84
-10.87
-17.64
-27.41
-38.94
-50.92
-62.20
-71.89
-79.21
-83.53
-84.50
-82.15
-76.98
-69.79
-61.43
-52.70
-44.44
-37.55
-33.00
-31.53
-33.26
-37.44
-42.61
-47.10
-49.77
-50.58
-50.51
-50.96
-52.90
-56.18
-59.54
-61.16
-59.41
-53.63
-44.35
-32.97
-21.15
-10.03
0.07
9.67
19.74
31.04
43.70
57.09
69.97
80.80
88.23
91.42
90.21
85.04
76.70
66.27
55.13
45.11
38.22
36.19
39.60
47.36
56.87
64.92
69.04
68.44
64.26
58.69
53.81
50.73
49.24
48.50
47.70
46.75
46.19
46.75
48.80
52.12
56.01
59.77
63.11
66.30
70.07
75.05
81.40
88.62
95.72
101.69
105.93
108.40
109.54
109.82
109.44
108.20
105.80
102.26
98.18
94.74
93.14
94.00
96.95
100.92
104.63
107.35
109.09
110.35
111.52
112.42
112.29
110.21
105.55
98.11
87.88
74.61
57.63
36.17
10.00
-19.84
-50.78
-79.13
-101.03
-113.65
-116.10
-109.63
-97.22
-82.58
-69.02
-58.65
-52.22
-49.41
-49.42
-51.40
-54.53
-57.76
-59.84
-59.39
-55.42
-47.79
-37.36
-25.79
-14.99
-6.49
-0.99
1.76
2.92
4.15
7.12
13.06
22.42
34.79
48.86
62.50
72.79
76.40
70.32
52.99
25.35
-8.90
-44.09
-74.46
-96.15
-108.42
-113.42
-114.97
-116.70
-120.84
-127.87
-136.86
-146.15
-153.87
-158.23
-157.45
-149.82
-133.77
-108.18
-72.99
-29.68
18.32
66.04
108.06
140.14
160.73
171.46
176.46
180.50
187.20
197.77
211.04
224.50
235.49
242.06
243.11
238.20
227.20
210.41
188.84
164.48
140.11
118.48
101.13
87.34
74.02
56.82
32.05
-1.38
-41.00
-81.58
-117.05
-142.88
-157.45
-162.07
-159.72
-153.39
-145.14
-136.32
-128.34
-123.06
-122.33
-126.79
-134.95
-143.37
-148.18
-147.07
-140.59
-131.78
-124.34
-120.48
-119.46
-118.16
-112.77
-100.94
-82.70
-59.97
-35.29
-10.58
13.10
34.96
53.78
67.79
75.36
76.08
71.53
64.89
59.74
58.53
61.74
68.12
75.74
83.02
89.09
93.41
95.20
93.33
86.72
75.12
59.54
42.08
25.08
10.27
-1.73
-11.21
-18.94
-25.60
-31.67
-37.52
-43.50
-49.96
-57.10
-64.91
-73.22
-81.88
-90.87
-100.15
-109.51
-118.53
-126.66
-133.30
-137.89
-139.84
-138.37
-132.52
-121.58
-105.60
-85.80
-64.48
-44.37
-27.71
-15.37
-6.80
-0.48
5.08
10.67
16.25
21.30
25.53
29.12
32.49
35.78
38.44
39.31
37.24
31.71
23.23
13.09
2.86
-6.25
-13.60
-19.02
-22.58
-24.37
-24.51
-23.33
-21.37
-19.33
-17.81
-17.21
-17.69
-19.20
-21.66
-24.90
-28.55
-32.17
-35.33
-38.00
-40.63
-43.95
-48.51
-54.00
-59.10
-61.75
-60.00
-52.86
-40.81
-25.55
-9.38
5.76
18.76
29.43
38.09
45.08
50.43
53.94
55.41
54.88
52.72
49.49
45.65
41.53
37.38
33.42
30.02
27.36
25.36
23.35
20.34
15.40
8.30
-0.17
-8.49
-15.06
-19.15
-21.32
-23.29
-27.12
-34.22
-44.57
-56.71
-68.28
-76.89
-80.92
-79.89
-74.82
-68.30
-64.53
-68.51
-84.26
-112.55
-149.25
-185.57
-210.64
-215.48
-196.71
-157.97
-108.29
-58.30
-16.36
13.70
32.26
41.99
45.66
45.06
41.22
35.29
29.01
24.35
22.74
24.44
28.72
34.36
40.51
46.88
53.43
59.73
64.64
66.63
64.60
58.49
49.37
39.01
29.00
20.15
12.48
5.61
-0.75
-6.58
-11.63
-15.87
-19.75
-24.35
-31.00
-40.83
-54.25
-70.62
-88.53
-106.24
-122.14
-135.17
-144.73
-150.44
-151.94
-148.85
-141.05
-128.92
-113.25
-95.03
-75.11
-54.12
-32.62
-11.45
8.36
25.91
41.01
54.48
67.85
82.66
99.60
118.17
136.90
154.15
168.69
180.04
188.23
193.38
195.57
194.78
191.15
185.11
177.20
167.89
157.43
145.92
133.42
120.16
106.47
92.66
78.96
65.46
52.29
39.72
28.12
17.72
8.27
-1.16
-12.03
-25.74
-42.89
-62.67
-82.73
-99.71
-110.21
-111.88
-103.95
-87.28
-63.92
-36.58
-8.54
16.52
35.19
45.40
47.76
45.69
44.21
47.41
56.26
68.06
77.91
81.53
77.48
67.60
55.50
44.31
35.10
26.85
17.74
6.94
-4.61
-14.44
-19.78
-18.46
-10.12
3.21
17.78
29.44
35.47
35.77
32.62
29.40
28.83
31.23
34.39
34.93
30.51
21.48
9.87
-2.22
-14.20
-26.01
-37.57
-47.77
-54.47
-55.31
-48.17
-33.89
-16.42
-1.91
6.50
9.01
8.58
8.65
11.54
19.85
33.43
49.25
61.21
67.64
70.02
72.09
76.93
85.80
101.02
121.18
141.20
152.12
152.85
147.65
143.37
144.69
152.94
171.35
199.67
233.87
263.78
285.91
299.17
303.67
298.96
255.41
164.75
45.28
-43.35
-91.22
-104.89
-103.40
-97.73
-94.87
-97.40
-99.94
-98.26
-93.12
-93.59
-102.67
-119.23
-138.65
-156.54
-169.59
-172.59
-163.83
-146.10
-127.97
-112.57
-99.88
-87.87
-75.56
-62.99
-48.82
-33.04
-17.34
-6.10
0.25
3.22
5.31
7.97
11.73
17.50
25.35
34.19
41.32
45.65
47.04
46.07
43.38
39.73
36.21
33.40
30.91
27.05
20.08
8.19
-10.22
-36.39
-70.64
-111.89
-157.47
-203.40
-245.16
-278.63
-301.10
-311.65
-311.06
-301.34
-285.00
-264.58
-242.27
-219.71
-197.84
-176.86
-156.18
-134.70
-111.16
-84.70
-55.12
-23.06
10.03
42.20
71.41
95.94
114.70
127.47
134.77
137.70
137.51
135.31
131.80
127.23
121.51
114.37
105.64
95.34
83.74
71.16
57.92
44.16
29.87
14.97
-0.50
-16.29
-31.78
-45.99
-57.71
-65.77
-69.48
-68.97
-65.22
-59.64
-53.50
-47.42
-41.30
-34.71
-27.41
-19.86
-13.09
-8.27
-6.25
-7.16
-10.69
-16.18
-22.69
-28.63
-31.59
-28.81
-18.36
-0.57
21.45
42.52
57.45
63.19
59.99
50.95
40.19
30.93
24.40
20.20
17.44
15.83
15.90
18.48
23.78
30.98
38.38
44.12
46.99
46.80
44.30
40.71
37.01
33.64
30.39
26.69
22.03
16.28
9.67
2.71
-4.19
-10.91
-17.61
-24.63
-32.22
-40.44
-49.06
-57.63
-65.47
-71.82
-75.89
-77.09
-75.17
-70.34
-63.23
-54.64
-45.33
-35.80
-26.30
-16.96
-7.98
0.33
7.55
13.42
17.86
21.08
23.42
25.14
26.37
27.06
27.11
26.51
25.40
24.06
22.78
21.71
20.82
19.96
18.91
17.51
15.67
13.40
10.67
7.46
3.80
-0.29
-4.61
-8.92
-12.92
-16.40
-19.25
-21.55
-23.46
-25.26
-27.28
-29.91
-33.49
-38.20
-43.98
-50.34
-56.51
-61.59
-64.72
-65.36
-63.40
-59.10
-53.00
-45.71
-37.83
-29.77
-21.81
-14.09
-6.62
0.62
7.63
14.28
20.37
25.64
29.90
33.13
35.55
37.52
39.50
41.88
44.83
48.30
52.07
55.81
59.20
62.01
64.00
64.98
64.71
62.99
59.69
54.87
48.81
41.96
34.82
27.73
20.83
14.03
7.15
0.05
-7.24
-14.59
-21.74
-28.45
-34.46
-39.40
-42.80
-44.12
-42.96
-39.21
-33.27
-25.92
-18.23
-11.19
-5.53
-1.56
0.90
2.37
3.55
5.03
7.08
9.57
12.01
13.85
14.64
14.33
13.19
11.72
10.47
9.84
9.97
10.78
12.10
13.64
15.12
16.24
16.64
16.01
14.35
12.23
10.76
11.15
14.08
19.13
24.73
28.77
29.52
26.42
20.25
12.67
5.29
-0.93
-5.90
-10.02
-13.69
-16.95
-19.47
-20.80
-20.62
-18.93
-15.95
-12.03
-7.50
-2.58
2.68
8.24
13.96
19.52
24.45
28.29
30.74
31.80
31.68
30.70
29.11
27.04
24.52
21.60
18.42
15.19
12.17
9.58
7.54
6.05
5.02
4.28
3.60
2.80
1.81
0.69
-0.39
-1.24
-1.82
-2.19
-2.57
-3.23
-4.37
-6.05
-8.18
-10.62
-13.19
-15.75
-18.21
-20.44
-22.31
-23.71
-24.60
-25.06
-25.29
-25.58
-26.17
-27.10
-28.16
-28.92
-28.79
-27.31
-24.23
-19.62
-13.82
-7.36
-0.81
5.32
10.62
14.90
18.05
20.21
21.59
22.55
23.36
24.20
25.04
25.72
25.99
25.71
24.83
23.45
21.77
19.97
18.22
16.62
15.20
13.98
12.90
11.89
10.81
9.54
8.04
6.32
4.52
2.80
1.26
-0.09
-1.39
-2.83
-4.59
-6.71
-9.09
-11.47
-13.56
-15.17
-16.24
-16.85
-17.22
-17.53
-17.94
-18.45
-19.04
-19.66
-20.27
-20.87
-21.39
-21.70
-21.45
-20.21
-17.62
-13.48
-7.98
-1.55
5.19
11.67
17.50
22.46
26.41
29.22
30.76
30.97
29.96
27.98
25.38
22.47
19.42
16.28
13.02
9.73
6.56
3.77
1.60
0.21
-0.48
-0.66
-0.62
-0.64
-0.87
-1.34
-1.92
-2.46
-2.80
-2.91
-2.83
-2.75
-2.90
-3.48
-4.63
-6.33
-8.39
-10.56
-12.57
-14.22
-15.50
-16.45
-17.22
-17.83
-18.31
-18.61
-18.67
-18.43
-17.74
-16.36
-14.06
-10.70
-6.42
-1.67
3.03
7.29
11.01
14.36
17.57
20.70
23.53
25.65
26.69
26.50
25.19
22.95
19.98
16.37
12.25
7.87
3.68
0.21
-2.10
-3.09
-2.91
-1.92
-0.57
0.76
1.83
2.52
2.76
2.53
1.82
0.70
-0.76
-2.46
-4.31
-6.31
-8.45
-10.76
-13.18
-15.58
-17.74
-19.42
-20.48
-20.84
-20.60
-19.92
-19.09
-18.40
-18.11
-18.30
-18.77
-19.07
-18.52
-16.58
-12.99
-8.01
-2.29
3.30
8.04
11.57
13.94
15.51
16.64
17.62
18.48
19.13
19.40
19.24
18.67
17.85
16.94
16.03
15.12
14.14
13.01
11.73
10.42
9.22
8.25
7.47
6.70
5.71
4.30
2.47
0.39
-1.63
-3.33
-4.55
-5.33
-5.86
-6.35
-6.93
-7.62
-8.37
-9.06
-9.68
-10.28
-11.00
-11.93
-13.10
-14.45
-15.84
-17.18
-18.44
-19.67
-20.82
-21.70
-21.94
-21.02
-18.56
-14.45
-9.02
-2.97
2.84
7.72
11.26
13.50
14.75
15.36
15.63
15.63
15.33
14.66
13.70
12.64
11.71
11.02
10.56
10.18
9.70
9.06
8.32
7.61
7.06
6.75
6.62
6.60
6.62
6.65
6.70
6.76
6.79
6.76
6.60
6.31
5.88
5.35
4.75
4.11
3.43
2.68
1.83
0.83
-0.29
-1.53
-2.82
-4.12
-5.40
-6.72
-8.13
-9.65
-11.14
-12.35
-12.87
-12.38
-10.71
-7.98
-4.53
-0.85
2.60
5.54
7.90
9.81
11.49
13.07
14.57
15.83
16.56
16.45
15.27
12.93
9.57
5.53
1.26
-2.77
-6.22
-8.90
-10.84
-12.11
-12.85
-13.10
-12.85
-12.06
-10.74
-8.99
-6.96
-4.87
-2.86
-1.02
0.61
2.04
3.31
4.48
5.62
6.78
7.85
8.57
8.52
7.27
4.59
0.60
-4.17
-8.99
-13.18
-16.32
-18.32
-19.33
-19.52
-18.94
-17.50
-15.12
-11.88
-8.11
-4.24
-0.67
2.46
5.25
7.94
10.63
13.06
14.79
15.27
14.26
12.01
9.27
6.97
5.90
6.49
8.75
12.29
16.40
20.00
21.66
19.87
13.46
2.21
-12.85
-29.59
-45.50
-58.55
-67.78
-73.30
-75.70
-75.30
-71.88
-64.88
-54.15
-40.57
-26.00
-12.62
-1.84
6.54
14.44
24.66
39.42
59.09
81.74
103.64
120.88
130.99
133.82
131.49
127.10
123.23
120.94
119.68
117.96
114.40
108.41
100.16
90.27
79.28
67.58
55.58
44.06
34.16
27.00
23.08
21.97
22.33
22.44
20.78
16.58
9.87
1.29
-8.34
-18.36
-28.32
-37.82
-46.37
-53.31
-58.05
-60.37
-60.60
-59.45
-57.75
-55.98
-54.16
-52.04
-49.38
-46.22
-42.91
-39.89
-37.43
-35.54
-34.13
-33.08
-32.32
-31.63
-30.58
-28.46
-24.67
-19.05
-12.17
-5.13
0.89
5.21
7.96
9.87
11.79
14.09
16.42
17.89
17.61
15.24
11.14
6.28
1.73
-1.84
-4.34
-6.15
-7.88
-9.94
-12.45
-15.23
-18.00
-20.55
-22.82
-24.95
-27.16
-29.67
-32.57
-35.73
-38.79
-41.19
-42.41
-42.20
-40.73
-38.60
-36.55
-35.19
-34.69
-34.82
-35.09
-35.01
-34.38
-33.26
-31.81
-30.14
-28.14
-25.58
-22.17
-17.84
-12.70
-7.08
-1.37
4.06
8.88
12.90
15.93
17.92
18.90
19.04
18.59
17.81
16.89
15.87
14.73
13.44
12.11
10.98
10.34
10.40
11.17
12.40
13.74
14.82
15.48
15.72
15.63
15.33
14.76
13.80
12.31
10.27
7.87
5.44
3.33
1.71
0.51
-0.51
-1.61
-2.83
-3.99
-4.79
-4.99
-4.62
-4.01
-3.58
-3.60
-4.04
-4.43
-4.08
-2.33
1.21
6.56
13.35
21.17
29.67
38.80
48.67
59.34
70.60
81.89
92.47
101.60
108.74
113.37
114.86
112.47
105.62
94.32
79.49
62.79
46.06
30.69
17.22
5.37
-5.44
-15.73
-25.72
-35.41
-44.84
-54.06
-63.06
-71.59
-79.15
-85.16
-89.23
-91.27
-91.47
-90.20
-87.90
-85.03
-81.98
-79.01
-76.20
-73.38
-70.26
-66.54
-62.12
-57.27
-52.59
-48.98
-47.29
-48.07
-51.18
-55.62
-59.73
-61.58
-59.60
-53.19
-42.85
-29.90
-15.93
-2.27
10.36
21.74
31.88
40.70
47.83
52.82
55.22
54.85
51.82
46.50
39.41
31.08
21.99
12.62
3.33
-5.45
-13.33
-19.97
-25.19
-28.96
-31.46
-32.97
-33.72
-33.89
-33.52
-32.73
-31.67
-30.59
-29.80
-29.54
-29.95
-30.97
-32.43
-34.00
-35.31
-35.98
-35.69
-34.36
-32.14
-29.41
-26.63
-24.19
-22.25
-20.78
-19.61
-18.53
-17.34
-15.86
-13.85
-10.99
-7.00
-1.75
4.58
11.50
18.36
24.61
30.04
34.86
39.61
44.83
50.80
57.38
64.12
70.42
75.78
79.84
82.33
82.92
81.16
76.60
68.97
58.41
45.49
31.09
16.25
1.87
-11.32
-22.84
-32.32
-39.48
-44.13
-46.29
-46.31
-44.82
-42.61
-40.35
-38.35
-36.59
-34.87
-33.11
-31.48
-30.44
-30.51
-31.95
-34.67
-38.23
-42.03
-45.45
-48.04
-49.46
-49.47
-47.98
-44.99
-40.64
-35.16
-28.82
-21.84
-14.50
-7.08
0.07
6.56
12.05
16.29
19.19
20.78
21.19
20.60
19.37
17.90
16.64
15.93
15.88
16.32
16.91
17.32
17.34
16.99
16.42
15.80
15.11
14.23
12.96
11.22
9.12
6.92
4.94
3.38
2.24
1.35
0.42
-0.80
-2.45
-4.51
-6.79
-9.01
-10.92
-12.42
-13.66
-14.97
-16.73
-19.18
-22.24
-25.48
-28.28
-29.99
-30.26
-29.04
-26.59
-23.32
-19.54
-15.39
-10.84
-5.83
-0.41
5.16
10.47
15.07
18.66
21.14
22.66
23.47
23.83
24.01
24.16
24.34
24.55
24.66
24.50
23.93
22.91
21.54
20.07
18.72
17.62
16.69
15.80
14.80
13.62
12.31
10.98
9.74
8.62
7.58
6.53
5.41
4.16
2.79
1.30
-0.29
-2.01
-3.91
-6.00
-8.29
-10.71
-13.16
-15.53
-17.78
-19.95
-22.09
-24.19
-26.01
-27.06
-26.72
-24.42
-19.91
-13.40
-5.59
2.54
10.03
16.24
21.05
24.84
28.24
31.76
35.47
38.92
41.27
41.77
40.23
37.28
34.30
32.87
34.17
38.56
45.52
53.98
62.84
71.12
78.01
82.88
85.49
86.47
87.64
91.63
100.74
115.59
134.10
151.86
163.71
166.10
158.68
144.34
127.63
112.34
99.77
88.39
75.15
57.35
34.11
6.78
-21.96
-49.40
-73.97
-95.55
-114.97
-133.07
-149.77
-163.90
-173.63
-177.32
-174.36
-165.49
-152.53
-137.60
-122.32
-107.37
-92.75
-78.32
-64.44
-52.14
-42.82
-37.50
-36.36
-38.56
-42.56
-46.83
-50.34
-52.81
-54.48
-55.77
-56.86
-57.56
-57.41
-55.88
-52.67
-47.85
-41.78
-35.05
-28.23
-21.69
-15.62
-10.02
-4.84
-0.08
4.15
7.66
10.23
11.73
12.16
11.56
10.10
7.94
5.32
2.50
-0.23
-2.75
-5.16
-7.78
-11.00
-15.00
-19.56
-24.09
-27.65
-29.40
-28.75
-25.56
-20.20
-13.52
-6.59
-0.46
4.26
7.58
10.22
13.16
17.23
22.63
28.80
34.64
38.95
40.82
39.88
36.30
30.65
23.73
16.48
9.82
4.49
0.84
-1.15
-1.84
-1.67
-0.94
0.17
1.54
2.94
4.03
4.48
4.07
2.86
1.11
-0.85
-2.83
-4.81
-6.89
-9.15
-11.41
-13.36
-14.70
-15.26
-15.14
-14.68
-14.25
-14.19
-14.67
-15.76
-17.43
-19.56
-21.88
-23.91
-25.03
-24.64
-22.36
-18.19
-12.59
-6.25
0.12
6.04
11.37
16.22
20.73
24.89
28.51
31.28
32.97
33.55
33.30
32.62
31.91
31.41
31.18
31.14
31.13
31.04
30.79
30.32
29.56
28.53
27.24
25.79
24.30
22.81
21.32
19.74
17.99
16.04
13.99
11.89
9.79
7.61
5.21
2.50
-0.44
-3.36
-5.97
-8.05
-9.61
-10.85
-12.01
-13.24
-14.56
-15.91
-17.26
-18.66
-20.20
-21.87
-23.45
-24.54
-24.67
-23.49
-20.93
-17.20
-12.68
-7.79
-2.82
2.09
6.86
11.38
15.46
18.80
21.14
22.38
22.60
22.09
21.20
20.20
19.24
18.30
17.32
16.27
15.20
14.24
13.45
12.87
12.36
11.75
10.91
9.82
8.62
7.52
6.71
6.26
6.03
5.77
5.23
4.25
2.84
1.19
-0.44
-1.81
-2.82
-3.51
-4.15
-5.01
-6.38
-8.42
-11.11
-14.30
-17.74
-21.23
-24.59
-27.63
-30.10
-31.72
-32.19
-31.31
-29.09
-25.72
-21.47
-16.68
-11.59
-6.42
-1.43
3.05
6.71
9.30
10.76
11.26
11.12
10.67
10.12
9.52
8.82
8.02
7.26
6.78
6.87
7.65
9.01
10.59
11.98
12.88
13.24
13.21
13.00
12.68
12.09
10.97
9.08
6.36
3.04
-0.52
-4.00
-7.15
-9.94
-12.40
-14.58
-16.51
-18.27
-19.99
-21.87
-24.02
-26.30
-28.21
-29.04
-28.12
-25.13
-20.33
-14.41
-8.21
-2.38
2.79
7.35
11.47
15.28
18.81
22.09
25.29
28.68
32.45
36.45
40.09
42.37
42.33
39.48
34.08
27.15
20.12
14.33
10.60
9.07
9.30
10.54
12.05
13.26
13.83
13.60
12.54
10.70
8.12
4.75
0.33
-5.52
-13.17
-22.61
-33.18
-43.54
-51.90
-56.49
-56.25
-51.27
-43.00
-33.98
-27.21
-25.20
-29.09
-38.25
-50.41
-62.47
-71.53
-75.82
-75.09
-70.24
-62.75
-53.93
-44.54
-34.97
-25.44
-16.37
-8.27
-1.65
3.28
6.69
8.95
10.42
11.27
11.48
11.18
10.80
11.18
13.30
17.87
24.87
33.42
41.88
48.36
51.46
50.85
47.52
43.48
40.89
41.18
44.32
48.94
52.85
54.19
52.19
47.39
41.19
35.07
29.82
25.47
21.60
17.87
14.43
11.80
10.45
10.38
10.97
11.18
10.15
7.82
5.07
3.48
4.54
8.89
15.94
24.14
31.67
37.20
40.53
42.76
45.81
51.78
62.07
77.09
96.21
117.97
140.23
160.52
176.44
186.26
189.48
187.03
181.49
176.62
176.26
182.67
195.61
212.13
227.45
236.59
235.23
221.91
198.64
169.87
140.15
112.15
86.01
59.79
31.10
-2.92
-42.74
-85.50
-126.09
-160.20
-186.07
-204.45
-218.16
-230.46
-246.55
-269.84
-299.92
-332.56
-362.29
-384.19
-394.10
-389.50
-369.60
-339.80
-308.24
-282.67
-267.97
-266.35
-276.79
-294.21
-311.47
-301.16
-248.23
-160.42
-62.49
24.77
94.06
145.88
187.26
219.42
240.14
243.92
229.04
198.00
160.55
127.73
106.97
100.46
104.74
113.93
119.97
118.21
109.97
101.65
99.31
104.63
114.25
120.97
118.02
100.80
70.72
35.40
5.76
-9.81
-9.12
3.89
21.43
36.29
43.78
43.49
38.38
32.66
28.75
26.24
22.90
16.62
7.33
-2.91
-10.81
-13.69
-11.08
-5.64
-2.26
-5.61
-17.92
-37.49
-59.37
-77.51
-87.22
-86.97
-78.57
-65.93
-53.16
-43.07
-36.77
-34.05
-34.29
-37.02
-41.99
-48.85
-56.86
-64.84
-71.46
-75.66
-77.03
-75.95
-73.49
-71.06
-69.81
-70.16
-71.65
-73.04
-72.92
-70.32
-65.09
-57.76
-48.98
-39.04
-27.73
-14.88
-1.12
11.65
20.64
23.25
18.48
7.60
-6.04
-18.21
-25.26
-25.15
-17.88
-5.07
10.66
26.55
40.33
50.61
57.07
60.35
61.75
62.72
64.53
67.84
72.63
78.21
83.43
87.06
88.15
86.25
81.45
74.24
65.28
55.21
44.63
34.06
23.79
13.70
3.13
-8.91
-23.24
-40.05
-58.59
-77.28
-94.16
-107.42
-115.82
-118.81
-116.49
-109.53
-99.04
-86.37
-72.77
-59.20
-46.02
-33.12
-20.23
-7.35
5.06
16.25
25.44
32.38
37.33
40.95
43.79
45.92
47.01
46.55
44.31
40.57
35.96
31.07
26.32
21.98
18.40
16.07
15.37
16.22
17.71
18.41
16.98
12.91
6.77
-0.06
-6.13
-10.56
-13.27
-14.82
-15.85
-16.79
-17.79
-18.90
-20.20
-21.95
-24.63
-28.76
-34.68
-42.20
-50.41
-57.62
-61.90
-61.73
-56.77
-48.05
-37.65
-27.76
-19.78
-13.81
-8.72
-2.89
5.13
16.02
29.63
45.23
61.80
78.31
93.86
107.68
119.14
127.85
133.74
137.18
138.87
139.70
140.44
141.48
142.74
143.64
143.25
140.44
134.36
124.78
112.40
98.76
85.69
74.55
65.67
58.34
51.29
43.51
34.67
25.13
15.46
6.05
-2.97
-11.36
-18.39
-22.77
-23.16
-18.82
-10.01
2.14
16.07
30.14
42.75
52.11
56.24
53.26
42.15
23.44
-0.53
-26.16
-49.58
-67.73
-79.17
-84.06
-83.86
-80.65
-76.59
-73.61
-73.33
-77.04
-85.56
-98.91
-115.91
-134.16
-150.43
-161.56
-165.50
-161.83
-151.69
-137.11
-120.28
-103.11
-87.15
-73.78
-64.01
-58.27
-55.98
-55.73
-56.01
-56.07
-56.53
-59.00
-65.01
-74.81
-86.84
-98.23
-105.93
-107.91
-103.74
-94.31
-81.25
-66.17
-50.24
-34.00
-17.48
-0.42
17.45
36.17
55.40
74.36
91.99
107.08
118.52
125.47
127.55
125.08
119.06
111.03
102.57
94.62
87.00
78.45
67.38
52.83
35.34
17.01
0.93
-9.88
-13.45
-9.29
1.57
17.02
34.39
51.01
64.63
73.89
78.41
78.78
76.12
71.60
66.08
60.09
54.13
48.86
45.11
43.63
44.61
47.58
51.55
55.57
59.17
62.56
66.35
71.04
76.68
82.68
88.19
92.45
95.30
97.23
99.15
101.86
105.61
109.74
112.76
112.85
108.50
99.02
84.71
66.67
46.29
24.99
3.99
-15.55
-32.40
-45.42
-53.79
-57.46
-57.25
-54.69
-51.44
-48.79
-47.22
-46.45
-45.72
-44.27
-41.53
-37.33
-31.84
-25.48
-18.88
-12.80
-8.00
-5.07
-4.28
-5.55
-8.56
-12.88
-18.09
-23.71
-29.05
-33.26
-35.37
-34.66
-30.92
-24.55
-16.42
-7.53
1.28
9.45
16.69
22.83
27.66
30.86
32.17
31.40
28.59
23.96
17.84
10.51
2.27
-6.59
-15.64
-24.15
-31.21
-35.92
-37.80
-37.03
-34.54
-31.67
-29.69
-29.26
-30.39
-32.60
-35.26
-37.99
-40.68
-43.37
-45.95
-48.14
-49.63
-50.27
-50.34
-50.45
-51.22
-52.96
-55.43
-57.98
-59.86
-60.56
-60.02
-58.54
-56.49
-54.07
-51.16
-47.46
-42.69
-36.91
-30.46
-23.92
-17.87
-12.63
-8.18
-4.17
-0.08
4.58
9.98
15.82
21.20
24.81
25.34
22.02
15.07
5.77
-3.85
-11.77
-16.62
-18.20
-17.31
-15.26
-13.24
-11.89
-11.36
-11.55
-12.45
-14.27
-17.20
-21.23
-25.92
-30.44
-33.82
-35.34
-34.72
-32.33
-28.95
-25.53
-22.83
-21.14
-20.27
-19.69
-18.91
-17.64
-16.00
-14.29
-12.77
-11.39
-9.88
-7.95
-5.57
-3.14
-1.26
-0.32
-0.25
-0.47
-0.18
1.27
4.03
7.63
11.34
14.36
16.17
16.49
15.23
12.38
8.05
2.70
-2.78
-7.07
-8.88
-7.44
-2.89
3.62
10.41
15.80
18.84
19.53
18.75
17.64
17.06
17.08
16.98
15.64
12.10
6.15
-1.52
-9.48
-16.12
-20.20
-21.29
-19.83
-16.92
-13.89
-11.85
-11.42
-12.50
-14.48
-16.44
-17.58
-17.55
-16.49
-14.95
-13.41
-11.98
-10.24
-7.46
-3.09
2.93
10.03
17.33
24.03
29.74
34.57
38.90
43.12
47.74
53.61
62.11
74.77
92.39
113.93
136.03
153.72
161.99
157.67
140.36
111.93
74.80
30.29
-21.66
-80.91
-144.98
-207.64
-259.80
-292.51
-300.24
-282.85
-245.02
-194.02
-137.08
-80.19
-27.82
16.44
49.74
70.42
78.58
76.22
66.42
52.28
36.08
19.26
2.72
-13.13
-28.44
-43.91
-60.09
-76.24
-89.50
-95.27
-89.06
-68.89
-36.88
1.27
38.44
69.01
90.80
105.01
114.58
121.94
127.61
130.26
128.12
120.39
107.99
93.06
77.51
61.79
44.33
22.37
-6.65
-43.60
-87.06
-133.43
-177.77
-214.78
-239.79
-249.83
-244.42
-226.01
-199.36
-170.24
-143.38
-120.85
-101.58
-82.24
-58.98
-29.15
7.77
50.20
95.18
139.41
179.80
214.09
241.01
260.32
272.74
279.59
282.28
281.73
278.10
270.79
258.86
241.61
219.01
191.88
161.67
130.10
98.71
68.53
39.98
12.98
-12.64
-36.88
-59.29
-79.00
-95.08
-107.04
-115.23
-121.04
-126.48
-133.44
-142.87
-154.25
-165.78
-175.14
-180.60
-181.64
-178.96
-173.79
-166.94
-158.37
-147.22
-132.63
-114.50
-93.97
-73.14
-54.47
-40.10
-31.37
-28.75
-31.91
-39.78
-50.44
-61.13
-68.51
-69.51
-62.35
-47.38
-27.23
-5.98
12.44
25.69
33.90
39.16
44.17
50.68
58.59
66.26
71.67
73.81
73.30
71.97
71.78
73.66
77.22
81.21
84.52
86.88
89.05
92.23
97.26
104.01
111.36
117.55
120.98
120.90
117.84
113.25
108.79
105.22
101.72
96.01
85.45
68.49
45.83
20.41
-3.67
-22.97
-36.17
-44.39
-50.35
-56.64
-64.30
-72.35
-78.59
-80.92
-78.69
-72.96
-65.95
-59.94
-56.28
-55.22
-56.31
-59.09
-63.41
-69.21
-75.94
-82.24
-86.09
-85.54
-79.36
-67.53
-51.17
-32.30
-13.30
3.67
17.42
28.25
37.98
49.14
63.48
80.70
98.14
111.57
116.91
111.85
96.70
74.11
48.04
22.56
0.95
-14.76
-24.05
-27.73
-27.78
-26.59
-26.37
-28.53
-33.63
-41.44
-51.23
-61.94
-72.27
-80.88
-86.71
-89.39
-89.53
-88.45
-87.75
-88.71
-92.04
-97.91
-106.51
-118.37
-134.41
-155.53
-181.85
-211.96
-242.74
-269.77
-288.22
-294.29
-286.17
-264.41
-231.68
-191.50
-146.95
-99.59
-49.44
3.88
59.59
114.71
164.32
203.17
227.68
237.08
232.87
217.41
192.55
159.63
121.20
82.80
53.15
41.80
54.83
91.40
143.10
197.13
241.38
268.94
279.62
278.16
270.90
262.39
254.40
246.59
238.22
229.47
221.58
216.01
213.36
212.71
211.63
207.10
196.71
179.68
157.25
132.20
107.37
84.38
63.01
41.73
19.09
-5.18
-29.90
-53.33
-74.42
-93.48
-111.88
-130.87
-150.47
-169.02
-183.69
-191.59
-190.76
-180.80
-163.07
-140.30
-116.07
-94.18
-78.03
-70.15
-71.83
-82.84
-101.29
-123.52
-144.38
-158.16
-160.25
-148.89
-126.21
-97.75
-70.64
-50.85
-41.09
-40.16
-44.13
-48.32
-49.39
-46.31
-40.16
-33.29
-28.13
-26.39
-28.74
-34.80
-43.28
-52.28
-59.74
-64.04
-64.57
-62.03
-58.24
-55.36
-55.04
-57.54
-61.51
-64.37
-63.32
-56.40
-43.52
-26.51
-8.56
6.96
17.64
22.83
23.66
22.30
20.89
20.55
21.21
22.15
22.85
23.68
25.81
30.49
38.34
48.75
60.22
71.16
80.57
88.30
94.85
100.71
105.92
110.13
113.01
114.96
117.44
122.72
132.92
148.92
169.29
190.06
205.66
210.61
201.30
177.09
140.40
95.82
49.12
5.89
-29.43
-54.53
-69.64
-77.53
-82.32
-87.73
-95.32
-103.73
-109.35
-108.18
-97.95
-79.55
-57.39
-38.34
-29.51
-35.55
-56.33
-86.42
-116.73
-138.07
-145.07
-138.59
-124.83
-111.78
-104.93
-104.43
-105.23
-100.00
-82.81
-51.88
-9.74
38.49
87.44
133.05
172.73
204.34
225.01
231.08
219.55
190.41
148.22
101.38
59.11
27.70
7.99
-4.27
-15.22
-29.10
-45.94
-62.02
-72.85
-75.99
-72.39
-65.40
-58.51
-53.56
-50.50
-48.44
-46.89
-46.19
-46.83
-48.62
-50.28
-49.91
-46.03
-38.65
-29.52
-21.40
-16.73
-16.44
-19.59
-23.81
-26.51
-26.06
-22.46
-17.25
-12.64
-10.50
-11.49
-14.90
-19.04
-21.91
-21.96
-18.33
-11.04
-0.74
11.41
24.03
35.70
45.31
52.23
56.34
57.98
57.72
56.26
54.30
52.45
51.13
50.44
50.08
49.49
48.06
45.43
41.75
37.55
33.60
30.52
28.51
27.27
26.14
24.34
21.36
17.08
11.77
5.94
0.10
-5.50
-10.82
-16.01
-21.21
-26.38
-31.28
-35.54
-38.86
-41.13
-42.56
-43.60
-44.77
-46.51
-48.94
-51.90
-54.93
-57.37
-58.59
-58.01
-55.29
-50.33
-43.37
-34.83
-25.24
-15.10
-4.84
5.15
14.54
22.94
30.01
35.45
39.17
41.25
42.01
41.85
41.16
40.27
39.30
38.35
37.37
36.41
35.49
34.69
34.02
33.40
32.65
31.53
29.91
27.75
25.15
22.25
19.14
15.90
12.61
9.44
6.57
4.14
2.04
-0.05
-2.57
-5.84
-9.85
-14.20
-18.24
-21.43
-23.55
-24.85
-25.86
-27.18
-29.22
-31.98
-35.09
-37.82
-39.34
-38.82
-35.67
-29.63
-20.93
-10.19
1.65
13.65
25.02
35.36
44.51
52.42
58.86
63.32
65.14
63.64
58.57
50.10
38.85
25.71
11.62
-2.56
-16.13
-28.53
-39.49
-49.02
-57.46
-65.22
-72.61
-79.61
-85.88
-91.01
-94.73
-97.12
-98.50
-99.33
-99.96
-100.56
-101.09
-101.41
-101.36
-100.78
-99.68
-98.11
-96.26
-94.37
-92.66
-91.36
-90.68
-90.89
-92.21
-94.69
-97.93
-101.00
-102.64
-101.59
-97.11
-89.29
-79.00
-67.58
-56.32
-46.08
-37.11
-29.18
-21.89
-14.95
-8.32
-2.13
3.38
8.10
12.10
15.71
19.45
23.95
29.76
37.03
45.27
53.38
59.93
63.78
64.56
62.92
60.28
58.06
57.16
57.69
59.16
61.00
62.90
64.84
66.84
68.65
69.59
68.90
66.17
61.72
56.64
52.31
49.74
48.93
48.63
46.74
41.18
30.83
16.00
-1.54
-19.27
-34.58
-45.52
-51.01
-50.82
-45.31
-35.23
-21.63
-5.82
10.69
26.38
39.97
50.72
58.51
63.67
66.77
68.32
68.53
67.42
64.94
61.24
56.76
52.21
48.24
45.30
43.43
42.48
42.17
42.27
42.55
42.70
42.37
41.15
38.80
35.34
31.06
26.47
22.10
18.34
15.31
12.99
11.23
9.98
9.24
9.16
10.00
12.02
15.36
19.92
25.24
30.42
34.38
35.97
34.42
29.66
22.49
14.45
7.46
3.25
2.88
6.49
13.36
22.20
31.60
40.29
47.39
52.38
55.19
55.99
55.13
52.89
49.33
44.36
37.83
29.84
20.97
12.10
4.26
-1.85
-6.00
-8.43
-9.62
-10.05
-10.00
-9.60
-8.92
-8.08
-7.23
-6.55
-6.10
-5.81
-5.60
-5.36
-5.05
-4.68
-4.37
-4.21
-4.28
-4.56
-5.00
-5.55
-6.28
-7.36
-9.07
-11.58
-14.82
-18.36
-21.43
-23.13
-22.77
-20.11
-15.45
-9.50
-3.07
3.24
9.18
14.79
20.16
25.19
29.50
32.49
33.62
32.78
30.44
27.47
24.80
22.87
21.39
19.39
15.73
9.60
0.90
-9.84
-21.71
-33.65
-44.50
-52.92
-57.63
-58.10
-55.45
-52.72
-54.07
-62.87
-79.84
-102.13
-124.24
-140.16
-145.48
-138.67
-120.86
-94.76
-63.52
-30.19
2.35
31.46
55.14
72.73
85.27
95.22
105.43
117.80
132.40
147.61
161.02
170.62
175.78
177.18
176.19
173.90
170.60
166.03
160.17
154.12
149.95
149.90
154.91
163.65
172.74
177.75
174.86
161.92
138.72
106.70
68.33
26.70
-14.70
-52.35
-83.28
-105.61
-118.98
-124.61
-124.64
-121.49
-117.34
-113.86
-112.16
-112.81
-115.62
-119.47
-122.47
-122.48
-118.02
-109.04
-97.11
-84.84
-74.95
-69.08
-67.51
-69.36
-73.19
-77.68
-81.79
-84.78
-86.16
-85.77
-83.96
-81.40
-78.61
-75.18
-69.53
-59.47
-43.45
-21.92
2.23
24.65
41.44
51.10
55.12
56.99
60.06
65.62
72.33
77.27
77.90
73.84
67.33
62.10
61.60
67.50
79.15
94.17
109.41
121.58
127.30
123.19
106.18
74.50
28.82
-27.17
-87.51
-145.80
-197.42
-240.64
-276.10
-305.21
-328.25
-343.61
-348.56
-340.90
-320.33
-288.75
-249.45
-206.24
-162.87
-123.24
-91.49
-71.63
-66.18
-74.56
-92.24
-111.53
-124.02
-123.62
-108.73
-82.49
-51.15
-21.42
1.82
16.49
22.95
22.79
17.81
9.62
-0.17
-9.58
-16.18
-17.79
-13.49
-4.27
7.10
17.30
23.87
26.64
28.08
32.74
45.40
68.99
102.90
142.61
180.80
209.59
222.91
218.04
195.96
160.36
116.43
69.65
25.17
-12.57
-40.28
-56.36
-61.23
-57.25
-47.94
-36.80
-26.27
-17.24
-9.21
-0.70
10.08
24.51
42.93
64.05
84.91
101.59
110.73
111.29
105.53
98.49
95.74
100.65
112.67
127.73
140.45
147.02
147.01
143.15
139.24
137.74
138.45
138.99
136.86
131.54
125.41
122.68
127.28
140.73
161.22
184.32
204.39
216.10
215.55
200.67
171.34
129.43
78.45
22.69
-33.75
-87.86
-137.98
-183.04
-221.49
-250.56
-266.65
-266.41
-248.31
-213.69
-166.94
-114.74
-64.63
-23.28
5.14
19.95
23.88
21.76
18.38
16.49
16.06
15.02
10.97
2.59
-10.00
-25.86
-43.93
-63.17
-82.11
-98.44
-109.42
-113.21
-110.11
-102.75
-94.98
-89.97
-88.49
-88.86
-87.96
-83.16
-73.61
-60.40
-45.67
-31.48
-19.08
-8.95
-1.29
3.55
5.09
3.07
-2.11
-9.27
-16.77
-23.19
-27.83
-30.95
-33.38
-35.85
-38.47
-40.50
-40.70
-38.04
-32.29
-24.18
-15.13
-6.59
0.57
6.31
11.27
16.23
21.60
27.14
32.05
35.46
36.87
36.43
34.97
33.59
33.27
34.52
37.25
40.83
44.30
46.72
47.47
46.61
44.92
43.73
44.37
47.50
52.63
58.16
62.00
62.63
59.92
55.51
52.00
51.81
55.96
63.33
71.10
75.89
74.95
67.01
52.49
33.58
13.96
-1.65
-8.56
-3.73
12.66
36.69
61.74
81.14
91.07
91.97
87.89
83.70
82.05
81.58
77.79
65.59
42.29
9.43
-27.29
-59.65
-79.67
-82.47
-68.37
-43.19
-16.52
1.69
4.74
-8.57
-34.07
-64.83
-94.39
-119.18
-138.65
-153.68
-164.52
-169.95
-168.10
-158.31
-142.63
-125.45
-111.76
-105.01
-105.49
-110.33
-114.91
-115.13
-109.30
-98.85
-87.62
-80.07
-78.95
-83.66
-89.72
-89.91
-76.81
-45.95
1.76
59.30
115.26
157.58
177.63
173.17
148.76
113.79
79.22
54.51
45.59
54.02
76.80
106.90
135.06
152.84
155.82
145.29
127.15
108.26
92.13
76.53
54.75
19.93
-29.90
-89.19
-146.46
-189.13
-208.89
-204.45
-180.64
-144.99
-104.48
-64.47
-29.35
-3.72
7.71
2.26
-18.00
-45.04
-67.00
-73.33
-60.21
-32.90
-3.42
15.35
15.78
-1.38
-28.19
-53.98
-70.21
-73.56
-66.09
-52.86
-39.17
-28.33
-21.05
-15.88
-10.49
-2.85
7.77
20.42
32.81
42.55
48.43
51.15
52.95
56.08
61.29
67.06
70.57
69.50
63.70
55.53
48.38
44.63
44.09
44.28
42.19
36.37
28.01
20.20
16.04
16.96
21.88
28.07
32.60
33.76
31.56
27.44
23.27
20.40
19.13
18.80
18.33
16.89
14.26
10.88
7.45
4.50
2.01
-0.45
-3.45
-7.24
-11.48
-15.32
-17.78
-18.13
-16.24
-12.56
-7.82
-2.68
2.59
8.22
14.66
22.08
30.01
37.36
42.75
45.26
44.91
42.86
40.99
41.10
44.07
49.41
55.40
59.82
60.94
58.25
52.90
47.41
44.71
47.03
54.64
65.22
74.30
76.51
67.40
44.98
10.46
-31.86
-75.64
-113.87
-140.59
-152.26
-148.66
-133.10
-111.54
-90.70
-75.64
-67.74
-64.38
-60.48
-51.49
-36.10
-17.10
-0.08
9.53
9.19
0.46
-11.93
-22.41
-27.04
-24.85
-17.53
-8.36
-0.92
1.74
-2.36
-13.43
-29.30
-45.29
-55.34
-54.36
-40.98
-18.94
3.67
17.72
17.13
1.72
-22.76
-47.33
-63.84
-67.86
-59.39
-41.38
-17.64
8.72
35.37
60.06
80.12
92.80
96.43
91.63
81.44
70.36
62.59
60.38
63.28
68.64
72.91
73.30
68.84
60.65
51.22
43.23
38.31
36.41
36.12
35.48
32.92
27.83
20.58
12.15
3.69
-3.70
-9.03
-11.52
-10.74
-6.88
-0.88
5.79
11.69
15.95
18.53
20.13
21.71
24.00
27.21
31.06
34.88
37.91
39.52
39.37
37.48
34.05
29.34
23.51
16.70
9.21
1.76
-4.46
-8.17
-8.70
-6.59
-3.63
-2.24
-4.28
-10.30
-19.44
-30.09
-40.85
-51.08
-60.93
-70.88
-81.33
-92.33
-103.57
-114.22
-122.75
-126.86
-123.86
-111.76
-90.27
-61.39
-28.90
2.89
30.40
51.47
65.05
70.81
68.90
60.37
47.61
34.28
24.26
20.52
23.99
33.47
46.48
60.36
73.10
83.54
91.06
95.15
95.43
91.79
84.64
75.00
64.06
52.72
41.27
29.32
16.12
1.17
-15.16
-31.30
-44.67
-52.47
-52.73
-45.37
-32.52
-18.17
-6.86
-2.11
-5.03
-14.00
-25.51
-35.80
-42.53
-45.66
-47.16
-49.70
-55.30
-64.33
-75.40
-86.07
-93.68
-96.13
-92.31
-82.19
-66.87
-48.33
-29.02
-11.01
4.62
18.10
30.36
42.09
52.86
61.10
64.92
63.31
56.94
48.01
39.05
31.67
25.98
21.01
16.10
11.89
10.59
14.79
25.80
42.47
61.11
76.79
85.13
83.77
72.78
54.38
32.07
9.86
-8.36
-19.59
-22.47
-17.95
-9.00
0.70
8.69
14.93
21.42
30.49
42.75
56.18
66.93
71.44
68.35
58.95
46.31
33.73
23.73
17.84
16.84
20.45
26.93
32.65
32.97
24.34
6.56
-16.56
-38.87
-55.06
-63.48
-66.85
-70.39
-78.62
-92.78
-110.41
-127.15
-139.40
-146.21
-149.28
-151.64
-155.76
-162.31
-170.39
-178.62
-186.50
-195.06
-206.26
-221.66
-240.87
-260.87
-276.38
-281.40
-271.05
-243.35
-199.88
-145.52
-87.21
-32.42
12.28
42.11
54.56
49.76
30.71
2.93
-26.72
-51.99
-69.13
-77.85
-80.56
-80.33
-78.75
-75.19
-67.86
-56.06
-41.50
-27.76
-17.82
-11.64
-5.67
4.95
22.76
45.55
66.86
79.42
79.58
69.94
58.63
55.78
68.92
99.74
143.72
192.26
236.27
269.17
288.46
295.41
293.51
286.40
276.21
263.03
245.54
222.19
192.55
157.97
121.31
86.25
56.61
36.08
28.06
34.98
56.92
90.45
128.01
159.11
173.29
163.82
130.55
80.19
23.60
-28.39
-68.88
-96.22
-112.75
-121.93
-125.99
-125.39
-119.98
-110.89
-101.14
-94.52
-93.36
-96.95
-101.34
-101.51
-94.18
-79.71
-62.12
-47.36
-41.00
-46.24
-62.65
-85.97
-109.29
-125.04
-127.80
-116.84
-96.88
-76.72
-65.38
-68.01
-83.42
-104.43
-121.09
-125.05
-112.96
-87.28
-54.56
-22.17
4.39
22.81
33.25
36.99
35.13
28.36
17.59
4.81
-6.76
-13.64
-13.62
-7.07
2.88
11.52
14.55
9.85
-1.81
-17.22
-32.18
-42.88
-46.93
-43.94
-35.26
-23.35
-11.01
-0.52
6.83
10.84
12.15
11.56
9.65
6.43
1.47
-5.81
-15.63
-27.54
-40.29
-52.01
-60.87
-65.57
-65.89
-62.67
-57.47
-51.88
-46.90
-42.64
-38.45
-33.34
-26.58
-17.92
-7.68
3.50
14.93
26.03
36.32
45.38
52.77
58.20
61.64
63.46
64.31
64.99
66.10
67.84
69.93
71.85
73.06
73.28
72.56
71.13
69.29
67.25
65.16
63.21
61.59
60.42
59.44
57.93
54.76
48.77
39.25
26.35
11.16
-4.57
-19.00
-30.67
-38.66
-42.65
-42.63
-38.80
-31.56
-21.50
-9.56
3.17
15.59
26.84
36.39
44.07
49.89
53.93
56.34
57.31
57.14
56.23
55.03
53.82
52.75
51.78
50.75
49.49
47.91
45.89
43.37
40.28
36.54
32.16
27.24
21.99
16.72
11.62
6.73
1.84
-3.37
-9.16
-15.51
-22.15
-28.75
-35.12
-41.36
-47.68
-54.13
-60.30
-65.31
-68.07
-67.71
-64.02
-57.42
-48.83
-39.16
-29.05
-18.76
-8.26
2.60
13.96
25.97
38.63
51.65
64.35
75.61
84.10
88.74
89.08
85.50
79.07
71.15
63.01
55.56
49.30
44.47
41.15
39.30
38.74
39.18
40.21
41.43
42.54
43.40
44.02
44.56
45.16
45.84
46.35
46.12
44.40
40.48
34.00
25.16
14.68
3.61
-7.00
-16.23
-23.43
-28.14
-30.07
-29.18
-25.70
-20.14
-13.06
-4.89
4.30
14.67
26.43
39.53
53.46
67.24
79.64
89.41
95.61
97.75
96.00
91.12
84.29
76.61
68.74
60.60
51.52
40.71
27.74
12.85
-3.13
-19.10
-34.14
-47.62
-59.20
-68.63
-75.58
-79.80
-81.23
-80.26
-77.64
-74.31
-70.92
-67.67
-64.14
-59.58
-53.34
-45.28
-36.03
-26.82
-19.11
-14.10
-12.30
-13.46
-16.65
-20.60
-24.09
-26.19
-26.36
-24.44
-20.51
-14.77
-7.42
1.26
10.92
21.04
30.99
40.02
47.40
52.56
55.13
55.13
52.91
49.13
44.70
40.50
37.25
35.25
34.35
34.08
33.78
32.86
30.98
28.12
24.54
20.63
16.78
13.24
10.03
6.89
3.46
-0.51
-5.04
-9.83
-14.39
-18.25
-21.14
-23.12
-24.56
-25.93
-27.72
-30.24
-33.57
-37.44
-41.32
-44.47
-46.12
-45.69
-42.97
-38.20
-31.91
-24.79
-17.47
-10.36
-3.66
2.59
8.42
13.83
18.71
22.88
26.16
28.42
29.68
30.11
29.98
29.60
29.15
28.67
28.07
27.25
26.13
24.79
23.38
22.06
20.85
19.66
18.29
16.62
14.66
12.60
10.66
8.96
7.44
5.85
3.94
1.51
-1.42
-4.72
-8.17
-11.63
-14.91
-17.93
-20.60
-22.86
-24.77
-26.47
-28.18
-30.13
-32.37
-34.83
-37.24
-39.19
-40.24
-39.96
-38.05
-34.44
-29.28
-22.98
-16.12
-9.33
-3.09
2.29
6.75
10.39
13.39
15.81
17.65
18.82
19.30
19.23
18.92
18.71
18.91
19.59
20.66
21.90
23.12
24.22
25.19
26.04
26.78
27.46
28.19
29.14
30.56
32.54
34.98
37.55
39.85
41.56
42.71
43.65
44.92
46.93
49.72
52.79
55.30
56.35
55.40
52.56
48.48
44.23
40.90
39.30
39.81
42.23
45.82
49.46
51.83
51.75
48.51
41.98
32.68
21.48
9.31
-3.09
-15.31
-27.14
-38.56
-49.51
-59.95
-69.81
-78.99
-87.31
-94.48
-100.04
-103.46
-104.25
-102.16
-97.31
-90.36
-82.32
-74.41
-67.70
-62.83
-59.82
-58.22
-57.26
-56.25
-54.79
-52.94
-51.13
-49.96
-49.82
-50.71
-52.10
-53.11
-52.83
-50.71
-46.71
-41.45
-35.80
-30.65
-26.55
-23.65
-21.80
-20.79
-20.45
-20.75
-21.62
-22.87
-24.19
-25.20
-25.58
-25.17
-23.98
-22.12
-19.80
-17.28
-14.84
-12.78
-11.34
-10.58
-10.39
-10.53
-10.75
-10.79
-10.48
-9.71
-8.38
-6.48
-4.14
-1.68
0.48
1.95
2.57
2.38
1.63
0.58
-0.65
-2.10
-3.88
-6.10
-8.73
-11.60
-14.46
-17.06
-19.16
-20.60
-21.25
-21.08
-20.21
-18.94
-17.74
-17.12
-17.48
-18.93
-21.30
-24.15
-27.00
-29.38
-30.96
-31.45
-30.60
-28.24
-24.30
-18.97
-12.70
-6.16
-0.06
5.09
9.10
12.09
14.40
16.36
18.18
19.89
21.39
22.57
23.33
23.62
23.43
22.86
22.02
21.07
20.25
19.72
19.57
19.72
20.02
20.23
20.21
19.92
19.47
19.06
18.84
18.85
18.98
19.05
18.84
18.28
17.41
16.43
15.58
15.03
14.82
14.82
14.83
14.70
14.44
14.27
14.64
15.99
18.59
22.53
27.73
34.08
41.53
50.16
60.22
71.99
85.70
101.14
117.71
134.38
149.90
163.01
172.70
178.51
180.59
179.72
176.91
173.34
170.04
167.43
165.12
161.92
156.42
147.49
134.61
117.14
94.77
67.35
34.92
-2.14
-42.86
-85.36
-127.33
-166.30
-201.69
-233.34
-261.05
-284.32
-302.63
-316.01
-324.68
-329.53
-331.13
-331.70
-332.49
-333.32
-333.03
-330.56
-325.97
-319.42
-311.44
-301.20
-289.15
-274.27
-254.63
-228.97
-198.75
-168.68
-143.94
-128.88
-106.27
-65.01
-4.87
62.34
122.29
167.34
193.49
208.94
219.88
228.86
232.10
224.87
205.91
177.99
148.36
125.76
117.76
126.59
149.67
178.95
206.15
225.98
237.11
240.74
237.92
229.03
212.78
188.46
155.88
117.34
77.24
40.36
9.88
-14.17
-33.59
-50.77
-65.98
-77.05
-79.32
-67.43
-38.05
7.82
63.39
117.14
155.36
166.70
146.58
99.91
40.29
-14.78
-50.74
-62.08
-54.22
-40.41
-34.77
-45.36
-71.03
-103.23
-131.44
-148.87
-155.13
-154.84
-153.66
-154.51
-156.04
-154.40
-146.52
-132.58
-116.52
-104.01
-99.28
-102.78
-110.62
-116.34
-113.94
-100.64
-78.01
-51.21
-26.61
-9.05
-0.16
1.74
0.36
-0.33
2.46
9.63
20.30
32.30
42.88
49.57
51.21
48.50
43.86
40.45
40.59
44.52
50.26
54.73
55.54
52.39
47.28
43.18
42.29
44.83
48.98
52.20
52.79
50.74
47.53
45.02
44.28
45.07
46.23
46.57
45.67
44.01
42.46
41.64
41.39
41.01
39.64
36.88
32.90
28.28
23.66
19.43
15.75
12.64
10.19
8.51
7.59
7.05
6.21
4.34
1.12
-2.99
-6.90
-9.32
-9.45
-7.46
-4.45
-1.95
-1.14
-2.28
-4.56
-6.58
-6.96
-4.95
-0.67
4.95
10.67
15.30
18.04
18.67
17.54
15.36
12.88
10.63
8.74
7.04
5.28
3.39
1.57
0.13
-0.86
-1.66
-2.73
-4.39
-6.50
-8.34
-9.05
-8.08
-5.59
-2.48
0.04
1.01
0.07
-2.51
-6.10
-10.05
-13.96
-17.69
-21.23
-24.44
-26.92
-28.06
-27.29
-24.27
-19.13
-12.48
-5.08
2.40
9.66
16.72
23.75
30.74
37.38
43.15
47.58
50.51
51.98
52.18
51.23
49.25
46.62
44.15
42.99
43.92
46.74
50.00
51.59
50.10
45.85
41.03
38.68
41.17
49.19
61.85
77.45
94.13
109.85
121.72
125.79
117.86
95.57
60.21
17.21
-25.54
-60.52
-83.21
-93.06
-92.57
-85.60
-75.72
-65.66
-57.36
-52.15
-50.55
-51.71
-53.44
-52.80
-47.31
-36.30
-21.34
-5.80
6.58
13.10
12.92
7.20
-1.69
-11.07
-18.81
-23.85
-26.15
-26.68
-27.12
-29.56
-35.79
-46.48
-60.34
-73.92
-82.42
-81.52
-69.34
-48.05
-23.83
-5.27
-0.49
-14.15
-45.20
-86.39
-126.35
-153.55
-161.00
-149.28
-126.15
-102.72
-87.45
-81.91
-80.32
-73.55
-54.73
-23.10
16.43
56.74
92.81
123.78
151.61
177.65
200.27
215.20
218.45
209.57
192.25
171.96
152.46
133.31
110.98
82.50
48.76
15.15
-11.49
-27.32
-34.14
-38.39
-47.25
-64.45
-88.72
-115.94
-142.54
-167.85
-193.17
-218.82
-241.55
-254.89
-251.77
-227.89
-183.58
-123.19
-53.24
18.94
85.66
138.79
170.65
176.37
156.22
116.60
68.37
22.76
-12.57
-35.71
-49.86
-60.34
-71.02
-82.39
-91.83
-95.77
-92.13
-81.75
-68.00
-55.35
-47.52
-46.29
-51.60
-62.31
-76.87
-93.54
-110.17
-123.97
-131.78
-130.93
-120.22
-100.62
-75.33
-48.89
-25.96
-9.98
-2.21
-1.72
-6.03
-12.04
-16.91
-18.73
-16.95
-12.30
-6.21
0.02
5.91
11.91
18.82
26.97
35.55
42.82
46.88
46.81
43.25
38.06
33.29
29.96
27.71
25.28
21.70
17.16
13.00
10.92
12.01
16.38
23.20
31.20
39.29
46.86
53.73
59.89
65.23
69.43
72.02
72.57
70.91
67.24
62.19
56.63
51.42
47.21
44.21
42.19
40.56
38.67
36.15
33.02
29.67
26.65
24.29
22.57
21.11
19.33
16.80
13.43
9.45
5.28
1.23
-2.64
-6.57
-10.94
-16.01
-21.83
-28.16
-34.61
-40.78
-46.39
-51.23
-55.12
-57.80
-58.98
-58.44
-56.11
-52.11
-46.72
-40.26
-33.05
-25.41
-17.80
-10.80
-5.07
-1.14
0.81
1.08
0.56
0.56
2.60
7.98
17.29
30.04
44.58
58.57
69.74
76.71
79.43
78.97
76.85
74.16
71.22
67.67
63.04
57.39
51.40
46.13
42.33
40.05
38.58
36.88
34.05
29.67
23.84
16.95
9.43
1.67
-5.88
-12.69
-17.97
-20.96
-21.05
-18.02
-12.08
-3.79
6.04
16.47
26.42
34.86
40.90
44.06
44.35
42.26
38.55
33.96
29.06
24.21
19.65
15.61
12.34
10.03
8.78
8.63
9.64
12.01
16.06
22.05
29.82
38.45
46.22
50.97
50.81
44.84
33.51
18.45
1.84
-14.35
-28.79
-40.92
-50.62
-57.87
-62.57
-64.60
-64.00
-61.13
-56.58
-50.97
-44.70
-37.90
-30.46
-22.27
-13.34
-3.93
5.46
14.17
21.56
27.15
30.69
32.24
32.12
30.89
29.22
27.84
27.37
28.24
30.62
34.43
39.33
44.76
49.93
53.95
55.95
55.33
51.99
46.35
39.34
32.14
25.82
21.15
18.41
17.45
17.74
18.49
18.77
17.69
14.54
9.07
1.58
-7.10
-15.81
-23.38
-29.00
-32.35
-33.48
-32.67
-30.10
-25.80
-19.73
-11.91
-2.73
7.06
16.36
23.92
28.49
29.05
25.05
16.64
4.86
-8.49
-21.08
-30.73
-35.98
-36.45
-32.92
-26.88
-20.02
-13.71
-8.76
-5.39
-3.40
-2.46
-2.20
-2.31
-2.53
-2.64
-2.49
-2.10
-1.62
-1.37
-1.70
-2.89
-5.06
-8.15
-12.04
-16.49
-21.28
-26.10
-30.53
-34.09
-36.25
-36.62
-34.96
-31.28
-25.80
-18.81
-10.69
-1.87
7.18
15.92
23.78
30.24
34.87
37.49
38.22
37.41
35.59
33.32
31.08
29.16
27.62
26.42
25.45
24.60
23.77
22.88
21.89
20.80
19.65
18.55
17.60
16.89
16.40
15.99
15.48
14.63
13.36
11.69
9.77
7.78
5.82
3.89
1.80
-0.67
-3.69
-7.36
-11.60
-16.21
-20.88
-25.19
-28.71
-31.04
-31.86
-31.05
-28.67
-24.92
-20.15
-14.72
-8.95
-3.16
2.41
7.55
12.13
16.01
19.11
21.38
22.81
23.48
23.56
23.24
22.71
22.10
21.47
20.86
20.23
19.56
18.77
17.75
16.37
14.55
12.28
9.58
6.47
2.96
-0.92
-5.11
-9.40
-13.45
-16.90
-19.45
-20.96
-21.49
-21.19
-20.28
-19.02
-17.71
-16.75
-16.64
-17.86
-20.84
-25.73
-32.41
-40.41
-48.98
-57.18
-64.06
-68.85
-71.08
-70.70
-67.98
-63.37
-57.34
-50.24
-42.33
-33.86
-25.13
-16.58
-8.70
-1.91
3.50
7.51
10.32
12.40
14.31
16.74
20.31
25.46
32.29
40.54
49.47
58.09
65.28
70.21
72.41
71.92
69.09
64.43
58.35
51.14
43.09
34.54
25.99
17.88
10.48
3.69
-2.88
-9.56
-16.46
-23.21
-29.13
-33.48
-35.73
-35.73
-33.66
-29.84
-24.64
-18.36
-11.31
-3.81
3.76
10.97
17.47
22.99
27.31
30.25
31.66
31.47
29.70
26.58
22.51
17.93
13.19
8.42
3.53
-1.70
-7.50
-14.00
-21.10
-28.48
-35.62
-41.89
-46.67
-49.56
-50.57
-50.07
-48.73
-47.26
-46.22
-45.91
-46.53
-48.23
-51.14
-55.24
-60.19
-65.27
-69.60
-72.40
-73.28
-72.24
-69.55
-65.54
-60.42
-54.37
-47.62
-40.49
-33.33
-26.40
-19.77
-13.35
-7.01
-0.69
5.56
11.71
17.81
24.13
31.07
39.04
48.13
58.04
67.92
76.59
82.82
85.76
85.26
81.99
77.30
72.89
70.18
69.97
72.17
75.97
80.18
83.63
85.45
85.13
82.40
77.21
69.69
60.36
50.12
40.16
31.48
24.54
18.95
13.70
7.69
0.30
-8.18
-16.75
-24.15
-29.43
-32.43
-33.67
-34.06
-34.31
-34.68
-34.98
-34.84
-34.14
-33.20
-32.76
-33.62
-36.23
-40.41
-45.44
-50.33
-54.17
-56.43
-56.97
-55.88
-53.29
-49.28
-44.01
-37.88
-31.78
-26.97
-24.73
-25.82
-29.92
-35.58
-40.68
-43.24
-42.27
-38.08
-32.05
-25.84
-20.55
-16.36
-12.70
-8.83
-4.43
0.09
3.92
6.32
7.13
6.88
6.62
7.44
10.17
15.20
22.47
31.59
41.78
51.91
60.70
66.93
69.83
69.36
66.20
61.51
56.61
52.60
50.18
49.61
50.73
53.01
55.60
57.47
57.68
55.67
51.46
45.56
38.81
32.03
25.76
20.20
15.23
10.54
5.83
0.95
-4.13
-9.31
-14.58
-20.04
-25.94
-32.50
-39.79
-47.59
-55.47
-62.85
-69.33
-74.74
-79.12
-82.66
-85.46
-87.44
-88.35
-87.80
-85.41
-80.95
-74.38
-65.95
-56.21
-45.86
-35.65
-26.07
-17.20
-8.63
0.37
10.48
21.96
34.27
46.26
56.45
63.80
68.19
70.67
73.11
77.53
85.28
96.46
109.81
123.01
133.38
138.77
138.40
133.38
126.63
122.21
123.86
133.40
149.51
167.67
181.14
183.13
169.19
139.03
96.86
50.02
6.43
-28.23
-52.26
-67.92
-79.69
-91.82
-106.33
-122.47
-137.73
-149.55
-156.67
-159.38
-158.82
-155.88
-150.57
-142.35
-130.96
-117.21
-103.03
-90.80
-82.38
-78.12
-76.81
-76.10
-73.59
-67.71
-58.28
-46.37
-33.72
-21.95
-11.99
-3.91
2.85
9.04
15.13
21.15
26.70
31.26
34.46
36.23
36.84
36.77
36.57
36.65
37.18
38.02
38.76
38.81
37.70
35.27
31.75
27.78
24.06
21.16
19.24
18.03
16.93
15.27
12.48
8.27
2.68
-4.00
-11.31
-18.76
-25.85
-32.12
-37.16
-40.59
-42.21
-42.14
-40.96
-39.52
-38.64
-38.66
-39.26
-39.62
-38.92
-36.89
-34.08
-31.69
-30.89
-32.29
-35.54
-39.58
-43.11
-45.21
-45.68
-44.90
-43.69
-42.86
-43.11
-45.04
-49.00
-55.00
-62.46
-69.97
-75.36
-76.05
-69.87
-55.78
-34.40
-7.95
20.33
47.16
70.08
87.99
101.08
110.50
117.70
124.05
130.57
137.88
146.12
154.99
163.63
171.02
176.57
180.73
185.22
192.67
205.57
224.86
249.05
273.94
293.55
301.85
294.41
269.49
228.12
173.61
110.66
44.63
-19.08
-75.45
-120.41
-151.50
-168.26
-172.41
-167.35
-157.07
-145.07
-133.51
-123.33
-114.66
-107.89
-103.89
-103.81
-108.15
-115.94
-124.56
-130.65
-131.54
-126.68
-118.09
-109.21
-103.32
-102.15
-105.37
-111.17
-117.16
-120.78
-119.15
-108.96
-87.00
-51.79
-5.42
45.72
92.26
124.94
138.06
131.49
110.18
81.49
51.86
24.64
0.05
-23.18
-45.70
-66.43
-83.00
-93.43
-97.62
-97.87
-97.85
-100.70
-107.43
-116.30
-123.78
-126.36
-122.20
-111.87
-97.78
-82.77
-68.72
-55.85
-43.16
-29.42
-14.20
1.64
16.09
26.98
32.88
33.77
31.10
27.26
24.65
24.90
28.36
34.25
41.22
47.95
53.55
57.71
60.48
62.17
63.23
64.26
65.87
68.29
70.89
72.11
69.83
62.39
49.66
33.54
17.47
5.03
-1.62
-2.64
-0.14
3.10
5.11
5.59
5.65
6.74
9.43
12.89
15.27
14.62
9.96
1.64
-8.85
-19.69
-29.43
-37.54
-44.38
-50.88
-58.01
-66.37
-75.97
-86.30
-96.52
-105.68
-112.92
-117.63
-119.39
-118.05
-113.82
-107.28
-99.37
-91.07
-82.90
-74.59
-65.12
-53.27
-38.40
-21.02
-2.73
14.50
29.42
42.15
54.26
67.91
84.73
104.87
126.70
147.23
163.04
171.20
170.20
160.47
144.55
126.34
109.87
97.69
89.79
83.68
75.64
62.69
44.07
21.46
-2.06
-23.69
-42.01
-56.91
-68.72
-77.10
-80.91
-78.97
-71.23
-59.47
-46.84
-36.52
-30.26
-27.76
-27.07
-25.81
-22.43
-16.78
-9.88
-3.10
2.54
6.71
9.55
11.31
12.10
12.02
11.38
10.86
11.27
13.08
15.95
18.60
19.34
16.80
10.81
2.59
-5.73
-12.04
-15.21
-15.46
-14.10
-12.70
-12.35
-13.30
-15.03
-16.64
-17.18
-15.81
-11.74
-4.17
7.48
23.43
43.27
65.81
89.31
111.67
130.60
143.89
149.53
145.98
132.60
109.89
79.85
46.01
12.99
-14.39
-32.18
-38.44
-33.66
-20.53
-3.01
14.84
29.80
39.78
43.64
40.89
31.48
15.93
-4.44
-27.41
-50.16
-69.83
-84.02
-91.33
-91.60
-86.22
-78.00
-70.70
-67.75
-70.67
-77.73
-84.06
-83.22
-69.96
-42.60
-3.65
41.52
87.34
130.21
169.01
203.89
234.33
258.14
272.08
273.60
262.58
241.75
215.36
186.98
158.00
127.54
94.00
57.05
18.75
-16.77
-44.95
-62.74
-69.68
-67.72
-60.04
-49.60
-38.18
-26.30
-13.91
-0.99
12.02
24.34
35.13
43.81
50.00
53.34
53.23
48.72
38.78
22.70
0.71
-25.66
-53.76
-80.47
-103.26
-121.05
-134.33
-144.70
-153.85
-162.76
-171.30
-178.56
-183.51
-185.56
-184.91
-182.40
-179.11
-175.97
-173.53
-171.87
-170.61
-169.03
-166.17
-161.05
-152.94
-141.56
-127.25
-110.89
-93.74
-77.07
-61.79
-48.11
-35.50
-23.01
-9.63
5.17
21.40
38.57
56.00
73.02
89.02
103.36
115.49
125.02
132.10
137.46
142.21
147.38
153.34
159.48
164.38
166.19
163.29
154.77
140.55
121.32
98.16
72.26
44.78
16.81
-10.65
-36.71
-60.60
-81.71
-99.53
-113.72
-123.98
-130.05
-131.71
-128.86
-121.72
-110.90
-97.54
-83.11
-69.15
-56.97
-47.29
-40.30
-35.75
-33.27
-32.48
-32.78
-33.08
-31.63
-26.38
-15.75
0.67
21.84
45.62
69.33
90.21
105.50
112.41
108.45
92.43
65.55
31.93
-2.13
-30.10
-47.45
-52.98
-48.64
-38.14
-25.11
-11.96
0.22
11.08
20.28
27.24
31.39
32.57
31.32
28.77
26.18
24.46
23.87
24.04
24.34
24.37
24.13
24.02
24.35
24.84
24.25
20.41
10.75
-6.98
-34.03
-70.18
-113.87
-162.38
-212.15
-259.09
-298.79
-326.79
-339.31
-334.16
-311.68
-275.39
-231.62
-188.25
-152.54
-128.99
-118.05
-116.29
-117.98
-117.31
-110.10
-94.43
-70.25
-38.56
-1.11
39.44
79.21
113.42
137.63
149.30
149.07
140.53
128.85
118.67
112.51
110.32
110.18
109.69
107.14
101.98
94.71
86.28
77.70
69.69
62.77
57.25
53.28
50.71
48.86
46.56
42.42
35.43
25.50
13.47
0.66
-11.90
-24.13
-36.80
-50.83
-66.23
-81.46
-93.63
-99.45
-96.51
-84.17
-63.76
-37.96
-10.02
17.13
41.18
60.49
73.95
80.94
81.43
76.01
65.80
52.17
36.24
18.72
-0.08
-19.72
-39.19
-56.71
-70.15
-77.64
-78.43
-73.02
-62.72
-48.89
-32.39
-13.62
6.83
27.57
46.16
59.68
65.69
63.03
52.16
34.80
13.38
-9.40
-30.69
-47.57
-57.18
-57.32
-47.24
-28.26
-3.64
22.33
45.67
64.12
77.86
89.09
100.82
115.15
132.05
149.29
163.24
170.60
169.78
161.28
147.23
130.25
112.28
93.85
74.07
51.24
23.59
-9.53
-46.81
-84.52
-116.72
-136.31
-136.94
-115.21
-72.46
-15.08
46.87
102.54
143.50
166.11
172.02
166.91
157.86
150.73
148.42
150.80
155.82
161.27
165.71
168.49
168.91
165.05
153.53
130.63
94.35
46.41
-7.24
-57.66
-96.29
-118.11
-123.25
-116.34
-103.72
-90.65
-79.82
-71.89
-66.89
-65.37
-68.18
-75.07
-83.75
-90.41
-91.82
-87.72
-81.32
-77.41
-79.09
-85.12
-89.95
-86.50
-70.07
-41.07
-4.81
31.09
60.09
78.92
87.83
89.31
86.12
79.96
71.28
59.56
44.03
24.21
0.02
-28.48
-61.33
-98.69
-140.21
-184.40
-228.50
-269.04
-302.85
-327.93
-343.47
-349.19
-344.77
-329.66
-303.93
-269.32
-229.55
-189.37
-152.90
-122.01
-95.97
-72.28
-48.28
-22.54
4.65
31.49
55.38
73.55
84.27
87.64
85.88
82.86
82.71
88.30
100.20
116.67
134.55
150.48
162.16
169.22
173.69
179.66
192.13
215.18
249.90
293.04
337.37
373.58
392.91
389.61
362.23
313.98
252.29
187.79
132.47
97.12
88.29
105.86
142.66
186.51
224.04
244.73
243.45
220.87
182.13
134.48
85.22
40.04
2.09
-28.35
-53.71
-77.94
-104.85
-136.45
-172.43
-210.63
-248.26
-283.03
-313.53
-339.07
-359.38
-374.46
-384.87
-391.64
-395.72
-397.01
-393.74
-382.85
-361.34
-328.00
-284.48
-234.94
-184.18
-135.66
-90.06
-45.27
2.61
57.34
120.72
191.11
263.03
328.24
378.04
406.14
410.73
394.82
364.56
326.43
284.84
241.19
194.82
144.93
92.18
39.21
-10.13
-52.14
-84.24
-105.31
-115.42
-115.23
-105.69
-87.86
-63.24
-34.15
-3.75
24.30
46.64
61.08
67.27
66.66
61.83
55.40
49.14
43.50
37.87
30.97
21.48
8.28
-9.47
-32.47
-61.26
-96.04
-136.19
-180.02
-224.68
-266.53
-301.79
-327.16
-340.21
-339.53
-324.69
-296.34
-256.36
-207.86
-155.01
-102.40
-54.22
-13.41
18.77
42.54
59.01
69.41
74.74
75.74
73.14
68.00
61.82
56.21
52.41
50.87
51.12
52.15
52.99
53.16
52.91
52.90
53.56
54.65
55.04
52.99
46.68
34.77
16.78
-6.68
-33.84
-61.89
-87.64
-108.35
-122.68
-131.09
-135.60
-138.88
-143.28
-150.04
-159.05
-169.05
-178.06
-183.71
-183.56
-175.57
-158.54
-132.49
-98.90
-60.36
-20.09
18.82
53.78
83.02
105.51
120.99
129.89
133.11
131.78
127.04
119.86
111.08
101.49
91.87
82.96
75.35
69.38
65.24
63.11
63.19
65.51
69.56
74.02
76.87
75.92
69.77
58.50
43.97
29.19
17.24
10.00
7.56
8.22
9.37
8.67
5.01
-1.02
-7.49
-11.89
-12.25
-7.89
0.42
10.88
21.48
30.71
37.76
42.32
44.13
42.64
37.15
27.13
12.60
-5.68
-26.50
-48.51
-70.58
-91.83
-111.46
-128.47
-141.60
-149.47
-150.90
-145.23
-132.47
-113.16
-87.94
-57.32
-21.67
18.21
60.37
101.43
137.01
162.94
176.81
179.02
172.56
161.93
151.29
143.07
137.48
133.05
127.87
120.67
111.22
100.16
88.48
76.94
65.97
55.78
46.53
38.56
32.32
28.17
26.13
25.81
26.42
27.07
27.10
26.34
25.21
24.49
24.94
26.84
29.86
33.01
35.17
35.40
33.34
29.23
23.72
17.65
11.72
6.43
1.90
-2.01
-5.62
-9.21
-12.79
-16.08
-18.52
-19.56
-18.87
-16.59
-13.24
-9.54
-6.19
-3.64
-2.10
-1.54
-1.90
-3.10
-5.13
-8.03
-11.73
-16.05
-20.60
-24.88
-28.41
-30.89
-32.24
-32.50
-31.66
-29.59
-26.09
-21.06
-14.79
-7.81
-0.80
5.88
12.26
18.65
25.15
31.27
35.86
37.52
35.41
29.70
21.65
13.03
5.38
-0.60
-4.99
-8.30
-10.85
-12.58
-13.12
-12.23
-10.11
-7.39
-4.86
-3.03
-1.91
-1.10
-0.10
1.31
2.85
3.83
3.54
1.54
-1.97
-6.27
-10.35
-13.35
-14.95
-15.51
-15.97
-17.36
-20.39
-25.00
-30.29
-34.79
-36.87
-35.23
-29.38
-19.90
-8.38
2.89
11.63
16.22
16.27
12.70
7.37
2.35
-0.84
-1.71
-0.76
0.96
2.54
3.75
5.30
8.55
14.95
25.32
39.37
55.68
72.09
86.34
96.56
101.47
100.28
92.53
78.12
57.65
32.66
5.75
-19.94
-41.56
-57.37
-67.11
-71.77
-72.90
-71.88
-69.48
-65.82
-60.75
-54.16
-46.25
-37.50
-28.53
-19.98
-12.35
-5.90
-0.51
4.39
9.75
16.55
25.47
36.49
48.91
61.51
72.92
81.87
87.36
88.65
85.34
77.55
66.11
52.57
38.88
26.79
17.34
10.58
5.88
2.42
-0.18
-1.71
-1.62
0.40
4.05
8.30
11.82
13.49
12.82
9.93
5.19
-1.16
-9.20
-19.14
-30.81
-43.38
-55.50
-65.69
-73.03
-77.52
-79.98
-81.66
-83.70
-86.75
-90.93
-95.85
-100.82
-104.93
-107.18
-106.57
-102.33
-94.13
-82.23
-67.41
-50.80
-33.60
-16.83
-1.21
12.82
25.06
35.44
43.95
50.60
55.39
58.30
59.39
58.88
57.16
54.77
52.30
50.21
48.77
47.91
47.25
46.12
43.73
39.45
33.06
25.02
16.43
8.83
3.61
1.57
2.67
6.10
10.65
15.20
18.88
21.25
22.09
21.27
18.76
14.70
9.53
3.96
-1.21
-5.38
-8.44
-10.92
-13.80
-18.15
-24.60
-32.96
-41.98
-49.63
-53.68
-52.40
-45.21
-33.14
-18.82
-5.76
2.76
5.11
2.11
-3.27
-7.15
-6.54
-0.78
8.26
17.00
21.90
20.75
13.47
2.14
-9.83
-18.53
-20.35
-12.68
5.20
31.50
61.58
88.89
106.83
111.07
100.96
79.78
53.24
27.17
5.53
-10.43
-21.61
-29.82
-36.52
-42.27
-47.03
-50.67
-53.40
-55.60
-57.32
-58.12
-57.19
-53.85
-47.87
-39.82
-30.92
-22.62
-16.23
-12.45
-11.27
-12.02
-13.60
-14.96
-15.36
-14.62
-13.03
-11.21
-9.73
-8.96
-8.98
-9.57
-10.35
-10.94
-11.05
-10.50
-9.25
-7.41
-5.16
-2.73
-0.33
1.85
3.59
4.59
4.47
3.04
0.62
-1.74
-2.47
-0.14
5.72
14.14
22.88
29.34
31.65
29.41
23.73
16.48
9.37
3.30
-1.67
-5.89
-9.64
-12.89
-15.40
-16.97
-17.66
-17.69
-17.22
-16.30
-14.80
-12.53
-9.45
-5.81
-2.05
1.31
3.83
5.34
5.90
5.80
5.31
4.64
3.88
3.02
1.93
0.48
-1.57
-4.53
-8.47
-13.00
-17.01
-18.88
-17.03
-10.67
-0.37
12.02
23.94
33.09
38.23
39.40
37.47
33.58
28.53
22.73
16.41
9.88
3.65
-1.69
-5.76
-8.58
-10.50
-12.04
-13.73
-15.78
-18.15
-20.62
-22.93
-24.86
-26.26
-27.02
-27.01
-26.11
-24.22
-21.34
-17.61
-13.27
-8.68
-4.18
-0.09
3.38
6.09
8.04
9.35
10.19
10.69
10.85
10.53
9.50
7.68
5.23
2.64
0.58
-0.32
0.33
2.52
5.90
9.95
14.04
17.63
20.26
21.56
21.29
19.41
16.09
11.79
7.05
2.44
-1.66
-5.05
-7.75
-9.88
-11.58
-13.02
-14.34
-15.73
-17.41
-19.57
-22.29
-25.54
-29.06
-32.46
-35.31
-37.30
-38.26
-38.24
-37.40
-35.86
-33.56
-30.27
-25.70
-19.74
-12.64
-5.09
2.05
8.03
12.50
15.55
17.59
19.05
20.22
21.15
21.84
22.29
22.64
23.04
23.59
24.20
24.66
24.71
24.24
23.33
22.25
21.34
20.85
20.86
21.20
21.60
21.74
21.41
20.60
19.48
18.27
17.14
16.11
15.08
13.93
12.57
11.01
9.34
7.55
5.56
3.10
-0.05
-4.00
-8.61
-13.50
-18.20
-22.34
-25.76
-28.44
-30.44
-31.78
-32.31
-31.87
-30.32
-27.67
-24.10
-19.91
-15.42
-10.92
-6.66
-2.82
0.41
2.83
4.29
4.69
4.08
2.65
0.78
-1.09
-2.56
-3.36
-3.46
-3.08
-2.50
-1.96
-1.49
-0.90
0.08
1.70
3.97
6.62
9.19
11.25
12.52
12.96
12.74
12.06
11.06
9.77
8.09
5.99
3.54
0.94
-1.53
-3.61
-5.21
-6.33
-7.10
-7.68
-8.18
-8.69
-9.27
-10.02
-11.02
-12.37
-14.02
-15.75
-17.14
-17.67
-16.91
-14.68
-11.10
-6.54
-1.50
3.59
8.41
12.77
16.59
19.79
22.29
23.99
24.80
24.64
23.50
21.45
18.69
15.55
12.45
9.76
7.73
6.38
5.61
5.23
5.02
4.89
4.81
4.82
4.92
5.06
5.11
4.90
4.26
3.19
1.84
0.53
-0.30
-0.33
0.52
1.95
3.32
3.89
3.05
0.71
-2.64
-6.03
-8.44
-9.18
-8.31
-6.65
-5.45
-5.84
-8.28
-12.35
-16.89
-20.51
-22.10
-21.29
-18.55
-15.01
-12.22
-11.96
-16.00
-25.66
-41.19
-60.84
-80.66
-95.33
-100.13
-93.01
-75.83
-53.84
-33.79
-21.62
-20.53
-30.37
-48.19
-69.38
-89.02
-102.68
-106.98
-99.75
-80.45
-50.26
-11.94
30.55
72.99
111.90
145.19
172.53
195.14
215.03
234.01
252.55
269.01
279.88
281.12
270.36
248.87
221.92
196.86
179.59
170.85
165.12
152.80
125.23
79.63
21.28
-38.59
-87.79
-118.24
-128.42
-122.00
-104.31
-79.11
-47.60
-9.56
34.52
82.22
129.59
172.64
209.06
238.85
263.55
284.67
302.26
314.51
318.63
312.59
296.77
274.33
250.20
228.83
212.30
199.40
186.57
169.64
145.77
114.47
77.56
38.39
1.03
-30.35
-52.12
-62.05
-60.25
-49.58
-35.09
-22.48
-16.17
-18.05
-27.51
-42.35
-60.03
-78.67
-97.14
-114.86
-131.58
-147.52
-163.62
-181.90
-205.17
-236.04
-275.43
-321.11
-367.35
-405.88
-428.28
-428.79
-406.48
-365.59
-313.99
-260.57
-212.85
-175.13
-148.24
-130.52
-119.25
-111.53
-104.62
-95.96
-83.46
-66.27
-44.81
-20.72
3.59
25.40
42.51
53.91
59.94
61.99
61.23
59.09
57.19
57.11
59.84
65.63
74.33
85.93
100.69
116.77
132.76
148.41
164.30
180.36
195.06
205.80
210.04
205.99
188.70
156.54
113.02
65.67
21.68
-15.48
-46.21
-73.03
-98.82
-133.08
-181.33
-242.23
-308.60
-372.91
-430.96
-481.61
-524.89
-561.37
-601.46
-652.28
-713.32
-776.89
-834.65
-882.57
-920.79
-950.55
-911.89
-771.20
-538.17
-262.25
4.57
232.28
409.88
535.58
614.40
656.23
657.65
617.97
545.11
455.32
366.24
290.81
236.16
207.07
203.41
212.88
223.37
228.51
229.34
231.00
239.06
258.18
291.47
338.16
388.27
429.90
453.27
453.61
431.17
390.16
337.95
283.20
232.38
185.70
140.43
93.08
41.22
-16.53
-80.60
-149.91
-221.00
-288.12
-344.67
-383.71
-400.04
-392.04
-362.36
-317.18
-264.23
-210.79
-162.84
-124.45
-97.63
-82.15
-75.63
-73.95
-72.35
-66.78
-55.01
-37.11
-15.15
7.44
26.49
38.03
39.00
28.15
6.77
-21.19
-49.72
-71.99
-81.86
-75.50
-52.30
-15.18
30.37
77.83
121.46
157.55
184.79
203.52
214.68
219.03
217.07
209.40
197.23
182.22
165.86
148.76
130.35
109.43
85.21
58.12
29.86
2.75
-21.19
-40.77
-55.66
-66.47
-74.52
-81.60
-89.60
-100.11
-113.97
-130.91
-149.79
-168.66
-185.77
-199.81
-209.63
-214.04
-212.01
-203.17
-188.16
-168.36
-144.26
-115.84
-82.49
-43.49
1.13
49.69
98.81
144.17
181.79
210.15
228.82
238.10
239.28
235.04
229.40
226.68
229.94
239.63
254.54
270.24
280.75
281.05
269.32
247.29
218.92
188.63
150.37
104.61
57.42
17.04
-11.40
-27.69
-35.24
-39.23
-44.92
-56.37
-72.88
-91.00
-105.97
-113.60
-111.95
-102.70
-91.53
-86.83
-94.43
-118.58
-160.37
-217.27
-283.71
-352.18
-414.52
-463.33
-492.95
-500.25
-484.82
-449.78
-401.24
-346.62
-292.40
-242.51
-198.06
-158.10
-120.77
-84.28
-47.45
-9.83
28.51
67.22
105.56
142.50
176.92
208.14
236.09
261.08
282.83
299.53
307.87
304.18
286.48
256.26
218.83
181.75
152.40
135.45
131.75
138.84
152.37
167.50
179.61
184.58
179.02
161.07
131.18
92.40
49.81
9.06
-25.23
-50.39
-65.53
-70.82
-66.84
-54.68
-36.45
-15.46
4.39
20.11
31.24
40.45
52.41
71.16
97.51
127.64
154.02
168.30
164.60
141.45
101.77
51.35
-2.94
-54.63
-98.76
-132.77
-157.29
-175.94
-193.66
-214.33
-238.29
-261.54
-277.28
-279.64
-267.22
-244.29
-218.90
-198.58
-187.02
-182.86
-181.24
-176.84
-166.65
-151.22
-134.33
-122.00
-120.05
-132.82
-161.31
-201.81
-245.95
-282.79
-302.67
-300.39
-276.92
-236.67
-186.27
-131.86
-77.33
-24.15
27.23
75.35
118.01
153.12
183.63
214.15
248.63
288.39
332.01
375.87
414.95
446.01
468.08
487.31
508.77
532.63
553.84
566.36
567.23
557.43
542.71
528.98
525.44
534.47
550.36
562.89
564.43
553.60
532.98
508.22
444.93
330.11
178.23
22.85
-107.92
-202.86
-258.88
-290.40
-308.18
-320.53
-327.89
-331.82
-334.54
-339.95
-349.39
-360.00
-367.43
-366.46
-355.50
-332.20
-298.74
-261.23
-227.27
-201.64
-185.03
-176.23
-172.48
-172.22
-171.86
-169.08
-163.36
-155.95
-148.28
-141.32
-136.05
-132.46
-130.44
-127.87
-122.62
-113.32
-99.87
-82.89
-63.33
-42.74
-22.53
-4.16
11.73
24.94
35.46
43.30
48.64
51.82
53.18
53.19
52.30
50.89
49.27
47.68
46.15
44.63
43.08
41.53
40.10
38.89
37.91
36.92
35.55
33.42
30.22
25.92
20.73
14.95
8.96
3.00
-2.75
-8.25
-13.51
-18.55
-23.47
-28.42
-33.64
-39.37
-45.74
-52.67
-59.67
-65.82
-69.87
-70.56
-66.97
-58.88
-46.86
-32.11
-16.08
-0.06
15.01
28.67
40.64
50.71
58.58
63.94
66.63
66.77
64.80
61.35
57.13
52.68
48.41
44.46
40.82
37.36
33.94
30.42
26.73
22.87
18.86
14.71
10.28
5.41
-0.04
-6.04
-12.30
-18.33
-23.70
-28.17
-31.78
-34.77
-37.39
-39.81
-42.03
-44.07
-46.13
-48.63
-52.08
-56.85
-62.98
-69.95
-76.79
-82.26
-85.09
-84.32
-79.48
-70.69
-58.62
-44.30
-28.82
-13.21
1.72
15.35
27.19
36.81
43.92
48.43
50.50
50.55
49.10
46.68
43.68
40.38
36.94
33.50
30.14
26.92
23.85
20.96
18.23
15.70
13.37
11.20
9.04
6.70
4.03
0.96
-2.41
-5.87
-9.25
-12.46
-15.55
-18.60
-21.69
-24.79
-27.77
-30.52
-33.02
-35.43
-38.03
-41.14
-44.86
-49.03
-53.06
-56.12
-57.25
-55.74
-51.24
-43.87
-34.15
-22.85
-10.77
1.30
12.71
22.91
31.49
38.18
42.87
45.58
46.50
45.92
44.15
41.51
38.23
34.44
30.29
25.89
21.46
17.28
13.61
10.63
8.36
6.61
5.12
3.58
1.79
-0.33
-2.68
-5.10
-7.41
-9.50
-11.38
-13.18
-15.08
-17.25
-19.75
-22.54
-25.45
-28.28
-30.86
-33.07
-34.93
-36.59
-38.30
-40.36
-43.04
-46.38
-50.14
-53.71
-56.23
-56.79
-54.68
-49.61
-41.84
-32.04
-21.05
-9.70
1.38
11.81
21.31
29.68
36.68
42.13
45.87
47.87
48.23
47.23
45.23
42.62
39.81
37.05
34.54
32.36
30.55
29.10
27.95
26.96
25.89
24.45
22.34
19.45
15.89
11.95
8.07
4.59
1.69
-0.71
-2.89
-5.25
-8.07
-11.45
-15.22
-19.03
-22.58
-25.76
-28.73
-31.81
-35.35
-39.51
-44.20
-49.02
-53.38
-56.57
-57.89
-56.88
-53.30
-47.28
-39.21
-29.67
-19.26
-8.56
1.91
11.71
20.38
27.59
33.18
37.16
39.67
40.89
40.97
39.97
38.04
35.38
32.29
29.10
26.11
23.48
21.26
19.52
18.25
17.40
16.82
16.21
15.23
13.59
11.20
8.22
4.98
1.89
-0.73
-2.80
-4.45
-6.03
-7.95
-10.45
-13.53
-16.92
-20.26
-23.21
-25.68
-27.81
-29.87
-32.13
-34.69
-37.48
-40.25
-42.70
-44.43
-45.01
-43.92
-40.72
-35.14
-27.33
-17.79
-7.36
3.02
12.63
21.06
28.21
34.11
38.71
41.82
43.26
42.97
41.18
38.44
35.39
32.55
30.19
28.27
26.61
25.01
23.37
21.69
19.95
18.11
16.06
13.72
11.12
8.35
5.59
3.01
0.68
-1.38
-3.31
-5.27
-7.45
-9.93
-12.67
-15.52
-18.30
-20.86
-23.09
-25.05
-26.80
-28.47
-30.16
-31.95
-33.90
-36.05
-38.42
-40.91
-43.30
-45.23
-46.25
-45.84
-43.62
-39.35
-33.08
-25.09
-15.86
-5.98
3.99
13.56
22.34
29.99
36.15
40.53
43.00
43.61
42.72
40.87
38.61
36.32
34.12
31.94
29.66
27.25
24.82
22.61
20.74
19.24
17.92
16.57
14.97
13.06
10.87
8.50
6.06
3.62
1.19
-1.24
-3.72
-6.30
-9.05
-11.93
-14.84
-17.54
-19.80
-21.48
-22.62
-23.46
-24.33
-25.57
-27.42
-29.93
-32.97
-36.27
-39.35
-41.71
-42.81
-42.18
-39.53
-34.79
-28.12
-19.90
-10.64
-0.94
8.66
17.62
25.51
32.00
36.87
40.05
41.59
41.70
40.67
38.84
36.57
34.18
31.89
29.88
28.22
26.89
25.74
24.58
23.21
21.50
19.46
17.17
14.77
12.34
9.98
7.68
5.41
3.06
0.48
-2.47
-5.79
-9.30
-12.70
-15.64
-17.90
-19.54
-20.85
-22.31
-24.37
-27.22
-30.74
-34.49
-37.87
-40.28
-41.28
-40.68
-38.46
-34.75
-29.76
-23.73
-16.95
-9.73
-2.39
4.81
11.65
17.91
23.30
27.44
30.00
30.75
29.82
27.63
24.85
22.16
19.98
18.45
17.40
16.62
15.97
15.43
15.12
15.12
15.39
15.78
16.07
16.02
15.43
14.17
12.19
9.52
6.29
2.71
-0.94
-4.42
-7.56
-10.29
-12.65
-14.71
-16.55
-18.29
-20.04
-21.91
-23.99
-26.33
-28.86
-31.42
-33.76
-35.58
-36.56
-36.37
-34.76
-31.57
-26.76
-20.45
-12.90
-4.55
4.07
12.37
19.74
25.64
29.72
31.93
32.51
31.93
30.73
29.35
27.98
26.54
24.84
22.71
20.21
17.62
15.28
13.40
11.95
10.67
9.27
7.60
5.73
3.85
2.15
0.62
-0.89
-2.63
-4.74
-7.21
-9.90
-12.68
-15.53
-18.50
-21.65
-24.93
-28.21
-31.36
-34.42
-37.61
-41.23
-45.36
-49.80
-54.01
-57.23
-58.74
-58.03
-54.88
-49.34
-41.68
-32.33
-21.87
-10.92
-0.08
10.11
19.28
27.17
33.61
38.46
41.69
43.35
43.63
42.83
41.28
39.27
36.99
34.60
32.13
29.71
27.45
25.46
23.75
22.16
20.43
18.32
15.73
12.76
9.73
6.93
4.46
2.19
-0.23
-3.11
-6.60
-10.57
-14.78
-18.94
-22.94
-26.78
-30.55
-34.38
-38.40
-42.66
-47.20
-51.93
-56.60
-60.79
-63.91
-65.38
-64.69
-61.59
-56.12
-48.61
-39.58
-29.57
-19.06
-8.44
2.00
11.93
21.01
28.92
35.45
40.57
44.40
47.11
48.89
49.89
50.27
50.25
50.03
49.70
49.15
48.08
46.23
43.50
40.04
36.18
32.23
28.30
24.29
20.00
15.22
9.93
4.26
-1.53
-7.18
-12.43
-17.14
-21.28
-24.96
-28.37
-31.77
-35.37
-39.32
-43.65
-48.24
-52.80
-56.81
-59.61
-60.48
-58.85
-54.40
-47.20
-37.66
-26.42
-14.24
-1.83
10.20
21.38
31.35
39.81
46.52
51.32
54.23
55.46
55.46
54.71
53.63
52.45
51.22
49.88
48.37
46.73
45.02
43.28
41.50
39.65
37.69
35.65
33.57
31.43
29.15
26.58
23.60
20.15
16.29
12.19
7.99
3.86
-0.11
-3.85
-7.36
-10.68
-13.99
-17.54
-21.63
-26.51
-32.18
-38.38
-44.54
-49.93
-53.80
-55.56
-54.89
-51.72
-46.22
-38.71
-29.56
-19.24
-8.27
2.66
12.89
21.85
29.18
34.78
38.81
41.56
43.33
44.34
44.73
44.63
44.17
43.56
43.00
42.62
42.45
42.38
42.27
41.93
41.28
40.26
38.85
37.04
34.81
32.11
28.98
25.44
21.56
17.37
12.83
7.86
2.37
-3.70
-10.37
-17.66
-25.58
-34.13
-43.23
-52.62
-61.75
-69.80
-75.81
-78.91
-78.56
-74.75
-67.91
-58.77
-48.19
-36.92
-25.53
-14.42
-3.90
5.76
14.32
21.55
27.36
31.76
34.94
37.18
38.72
39.71
40.22
40.25
39.79
38.92
37.75
36.45
35.09
33.68
32.06
30.07
27.56
24.51
21.02
17.33
13.71
10.39
7.46
4.85
2.34
-0.27
-3.12
-6.22
-9.53
-13.02
-16.76
-20.89
-25.58
-30.97
-37.02
-43.50
-49.98
-55.80
-60.17
-62.27
-61.45
-57.36
-50.11
-40.16
-28.25
-15.23
-1.87
11.21
23.54
34.77
44.63
52.87
59.23
63.49
65.52
65.31
63.01
58.99
53.73
47.76
41.58
35.57
29.94
24.63
19.49
14.15
8.28
1.66
-5.65
-13.32
-20.72
-27.10
-31.83
-34.54
-35.33
-34.65
-33.18
-31.58
-30.33
-29.60
-29.32
-29.35
-29.62
-30.25
-31.51
-33.72
-37.09
-41.55
-46.69
-51.74
-55.71
-57.62
-56.71
-52.63
-45.51
-35.92
-24.62
-12.44
-0.09
11.89
23.12
33.28
42.14
49.50
55.19
59.10
61.25
61.83
61.16
59.68
57.78
55.77
53.80
51.80
49.67
47.28
44.55
41.51
38.18
34.62
30.84
26.82
22.58
18.15
13.61
9.02
4.48
0.01
-4.42
-8.86
-13.37
-17.96
-22.56
-27.09
-31.45
-35.59
-39.52
-43.32
-47.14
-51.16
-55.52
-60.28
-65.23
-69.91
-73.60
-75.50
-74.90
-71.30
-64.57
-54.86
-42.52
-28.09
-12.27
4.08
19.99
34.41
46.45
55.46
61.28
64.20
64.88
64.06
62.32
59.93
56.91
53.19
48.90
44.41
40.25
36.84
34.25
32.16
30.02
27.38
24.15
20.63
17.38
14.89
13.36
12.56
12.07
11.40
10.30
8.80
7.10
5.45
3.93
2.45
0.80
-1.27
-4.01
-7.59
-12.11
-17.60
-23.95
-30.94
-38.11
-44.97
-50.95
-55.54
-58.31
-58.92
-57.21
-53.18
-47.11
-39.43
-30.72
-21.52
-12.30
-3.46
4.56
11.34
16.46
19.68
21.01
20.75
19.41
17.54
15.62
13.92
12.56
11.53
10.76
10.16
9.64
9.08
8.37
7.47
6.40
5.30
4.35
3.67
3.13
2.43
1.08
-1.41
-5.16
-9.92
-15.07
-19.94
-24.05
-27.36
-30.20
-33.04
-36.25
-39.99
-44.22
-48.79
-53.49
-58.09
-62.19
-65.27
-66.71
-65.98
-62.75
-57.06
-49.23
-39.88
-29.64
-19.13
-8.78
1.07
10.17
18.27
25.11
30.52
34.47
37.17
39.00
40.41
41.72
43.04
44.34
45.50
46.45
47.16
47.58
47.57
46.89
45.26
42.53
38.73
34.14
29.16
24.21
19.58
15.43
11.78
8.54
5.62
2.87
0.19
-2.51
-5.40
-8.65
-12.47
-17.10
-22.71
-29.32
-36.78
-44.64
-52.21
-58.61
-62.88
-64.13
-61.84
-55.95
-46.96
-35.74
-23.33
-10.69
1.50
12.82
23.12
32.28
40.22
46.84
52.00
55.62
57.70
58.38
57.94
56.86
55.73
55.10
55.41
56.74
58.82
60.98
62.33
61.89
58.91
53.12
44.88
35.19
25.44
17.05
11.03
7.70
6.64
6.95
7.60
7.83
7.35
6.38
5.36
4.69
4.44
4.32
3.76
2.12
-0.99
-5.62
-11.46
-17.93
-24.34
-29.98
-34.21
-36.44
-36.26
-33.47
-28.16
-20.73
-11.88
-2.40
6.97
15.72
23.61
30.64
36.93
42.56
47.59
51.99
55.81
59.15
62.24
65.22
67.99
70.01
70.38
68.16
62.71
54.07
42.93
30.40
17.59
5.23
-6.36
-17.13
-26.96
-35.47
-42.03
-46.07
-47.51
-46.90
-45.42
-44.36
-44.74
-46.89
-50.46
-54.71
-58.90
-62.68
-66.09
-69.38
-72.74
-76.07
-78.84
-80.38
-79.98
-77.17
-71.76
-63.85
-53.66
-41.49
-27.65
-12.52
3.31
18.97
33.31
45.11
53.41
57.84
58.70
56.84
53.32
48.97
44.21
39.10
33.58
27.77
22.10
17.12
13.32
10.79
9.17
7.83
6.12
3.67
0.49
-3.13
-6.83
-10.34
-13.60
-16.71
-19.82
-23.05
-26.44
-30.00
-33.71
-37.57
-41.52
-45.45
-49.12
-52.30
-54.92
-57.14
-59.37
-62.02
-65.30
-68.94
-72.27
-74.39
-74.47
-72.03
-67.00
-59.63
-50.31
-39.46
-27.48
-14.82
-2.08
10.08
21.06
30.39
37.83
43.36
47.03
48.92
49.11
47.78
45.26
42.01
38.54
35.27
32.40
29.93
27.68
25.49
23.22
20.84
18.34
15.71
12.90
9.90
6.81
3.84
1.16
-1.17
-3.33
-5.59
-8.18
-11.12
-14.25
-17.31
-20.19
-23.00
-26.09
-29.82
-34.35
-39.59
-45.20
-50.78
-55.92
-60.20
-63.18
-64.35
-63.19
-59.32
-52.64
-43.40
-32.18
-19.80
-7.17
4.84
15.59
24.75
32.26
38.21
42.77
46.04
48.09
48.92
48.67
47.55
45.85
43.78
41.51
39.10
36.60
34.12
31.82
29.87
28.28
26.83
25.10
22.67
19.29
15.11
10.62
6.43
2.94
0.15
-2.35
-5.12
-8.57
-12.74
-17.29
-21.73
-25.68
-29.04
-32.05
-35.08
-38.51
-42.59
-47.36
-52.65
-58.00
-62.74
-66.00
-66.92
-64.90
-59.72
-51.69
-41.49
-30.04
-18.15
-6.47
4.63
14.94
24.23
32.22
38.59
43.07
45.62
46.47
46.02
44.81
43.24
41.56
39.89
38.26
36.74
35.39
34.15
32.88
31.33
29.30
26.73
23.78
20.69
17.69
14.93
12.36
9.86
7.27
4.47
1.38
-1.99
-5.60
-9.32
-13.01
-16.51
-19.76
-22.79
-25.74
-28.89
-32.47
-36.70
-41.66
-47.19
-52.86
-57.96
-61.67
-63.17
-61.91
-57.65
-50.59
-41.21
-30.20
-18.27
-6.09
5.76
16.80
26.65
34.97
41.55
46.28
49.21
50.52
50.49
49.43
47.63
45.34
42.79
40.23
37.90
35.97
34.44
33.18
31.87
30.21
27.96
25.06
21.61
17.80
13.81
9.80
5.85
1.99
-1.81
-5.62
-9.54
-13.62
-17.89
-22.26
-26.69
-31.16
-35.74
-40.57
-45.79
-51.43
-57.39
-63.37
-68.92
-73.41
-76.10
-76.30
-73.48
-67.51
-58.62
-47.41
-34.72
-21.36
-8.07
4.57
16.14
26.31
34.86
41.68
46.81
50.35
52.49
53.46
53.51
52.88
51.81
50.49
49.06
47.60
46.14
44.70
43.22
41.67
39.95
37.97
35.68
33.05
30.16
27.12
24.03
20.96
17.89
14.73
11.32
7.51
3.26
-1.34
-6.06
-10.63
-14.83
-18.63
-22.23
-25.91
-30.03
-34.79
-40.26
-46.32
-52.67
-58.88
-64.36
-68.49
-70.62
-70.23
-67.05
-61.04
-52.49
-41.91
-29.96
-17.38
-4.87
6.99
17.77
27.24
35.22
41.64
46.45
49.63
51.27
51.58
50.91
49.60
47.96
46.18
44.36
42.54
40.73
38.97
37.27
35.62
33.96
32.18
30.07
27.46
24.24
20.51
16.56
12.77
9.48
6.76
4.35
1.77
-1.45
-5.50
-10.21
-15.11
-19.72
-23.76
-27.27
-30.53
-33.96
-37.88
-42.49
-47.84
-53.80
-60.04
-65.93
-70.66
-73.26
-72.97
-69.38
-62.63
-53.27
-42.12
-30.01
-17.60
-5.35
6.38
17.26
26.94
35.04
41.29
45.60
48.11
49.20
49.31
48.88
48.14
47.20
45.98
44.43
42.52
40.41
38.32
36.48
35.01
33.80
32.53
30.82
28.30
24.86
20.68
16.14
11.71
7.70
4.18
0.94
-2.30
-5.79
-9.63
-13.71
-17.82
-21.77
-25.46
-28.90
-32.22
-35.64
-39.40
-43.73
-48.69
-54.02
-59.09
-62.91
-64.44
-62.86
-57.88
-49.92
-39.84
-28.72
-17.47
-6.61
3.66
13.33
22.32
30.45
37.43
42.99
47.00
49.44
50.41
50.07
48.68
46.60
44.25
42.08
40.38
39.21
38.37
37.53
36.40
34.86
32.98
30.92
28.82
26.69
24.44
21.90
19.01
15.81
12.47
9.21
6.15
3.29
0.49
-2.40
-5.48
-8.72
-12.01
-15.20
-18.24
-21.21
-24.27
-27.64
-31.47
-35.88
-40.87
-46.32
-51.95
-57.23
-61.42
-63.69
-63.33
-59.99
-53.75
-45.10
-34.80
-23.67
-12.53
-2.00
7.48
15.72
22.73
28.61
33.48
37.33
40.11
41.70
42.13
41.66
40.69
39.65
38.78
38.08
37.34
36.35
34.98
33.33
31.60
29.96
28.48
27.08
25.60
23.90
21.93
19.71
17.30
14.71
11.92
8.89
5.66
2.33
-0.96
-4.09
-7.05
-9.89
-12.73
-15.62
-18.59
-21.60
-24.59
-27.63
-30.78
-34.25
-38.20
-42.76
-47.86
-53.18
-58.04
-61.47
-62.48
-60.31
-54.73
-46.10
-35.34
-23.55
-11.78
-0.78
9.06
17.65
25.01
31.15
36.06
39.63
41.83
42.67
42.35
41.20
39.59
37.84
36.20
34.77
33.59
32.61
31.82
31.12
30.35
29.29
27.72
25.51
22.70
19.49
16.13
12.82
9.65
6.55
3.42
0.13
-3.38
-7.09
-10.90
-14.67
-18.28
-21.69
-24.94
-28.20
-31.64
-35.43
-39.60
-44.08
-48.78
-53.62
-58.49
-63.13
-67.06
-69.55
-69.79
-67.11
-61.29
-52.64
-41.98
-30.27
-18.45
-7.10
3.54
13.42
22.49
30.58
37.43
42.76
46.53
48.90
50.28
51.07
51.50
51.53
51.01
49.78
47.92
45.69
43.48
41.57
40.02
38.67
37.19
35.31
32.90
29.99
26.74
23.39
20.09
16.90
13.73
10.41
6.85
3.03
-0.87
-4.61
-7.96
-10.85
-13.35
-15.70
-18.16
-20.90
-23.99
-27.40
-31.09
-35.08
-39.44
-44.28
-49.50
-54.80
-59.57
-62.96
-64.14
-62.49
-57.85
-50.61
-41.52
-31.44
-21.05
-10.75
-0.76
8.75
17.49
25.05
31.04
35.26
37.83
39.11
39.60
39.70
39.63
39.38
38.78
37.70
36.12
34.20
32.19
30.34
28.76
27.35
25.85
23.99
21.61
18.77
15.70
12.67
9.93
7.54
5.49
3.59
1.65
-0.55
-3.13
-6.11
-9.38
-12.71
-15.89
-18.75
-21.31
-23.72
-26.26
-29.19
-32.73
-36.99
-41.89
-47.11
-52.04
-55.85
-57.64
-56.77
-53.02
-46.77
-38.78
-29.92
-20.85
-11.88
-3.05
5.61
13.89
21.32
27.33
31.49
33.76
34.51
34.34
33.90
33.59
33.46
33.38
33.11
32.55
31.76
30.85
29.94
29.02
27.93
26.52
24.68
22.45
20.01
17.58
15.31
13.25
11.33
9.34
7.08
4.40
1.26
-2.25
-5.96
-9.73
-13.46
-17.07
-20.48
-23.57
-26.32
-28.82
-31.42
-34.65
-39.00
-44.63
-51.20
-57.83
-63.27
-66.32
-66.17
-62.62
-56.10
-47.47
-37.69
-27.54
-17.52
-7.82
1.55
10.60
19.20
27.09
33.90
39.28
43.02
45.12
45.81
45.56
44.87
44.14
43.59
43.21
42.83
42.28
41.45
40.32
38.93
37.34
35.50
33.34
30.82
27.93
24.75
21.36
17.83
14.20
10.50
6.76
3.07
-0.42
-3.61
-6.43
-8.97
-11.43
-14.04
-17.00
-20.34
-23.97
-27.73
-31.49
-35.29
-39.34
-43.90
-49.12
-54.85
-60.55
-65.36
-68.29
-68.56
-65.84
-60.32
-52.62
-43.52
-33.71
-23.65
-13.57
-3.58
6.13
15.23
23.31
29.98
35.02
38.41
40.34
41.09
40.99
40.38
39.52
38.68
38.02
37.60
37.27
36.72
35.64
33.86
31.48
28.84
26.40
24.45
22.98
21.68
20.11
17.93
15.07
11.73
8.20
4.70
1.31
-2.05
-5.45
-8.92
-12.45
-16.00
-19.60
-23.33
-27.23
-31.32
-35.55
-39.91
-44.43
-49.16
-54.04
-58.73
-62.63
-64.86
-64.66
-61.58
-55.65
-47.43
-37.70
-27.23
-16.62
-6.27
3.57
12.67
20.80
27.80
33.65
38.44
42.29
45.18
46.96
47.44
46.58
44.61
42.00
39.26
36.79
34.74
32.99
31.39
29.77
28.04
26.24
24.34
22.33
20.24
18.12
16.05
14.06
12.12
10.06
7.70
4.93
1.74
-1.76
-5.37
-8.97
-12.52
-16.15
-20.00
-24.09
-28.31
-32.46
-36.31
-39.91
-43.50
-47.44
-51.93
-56.73
-61.19
-64.29
-65.04
-62.73
-57.05
-48.07
-36.13
-21.87
-6.33
8.99
22.35
32.29
38.14
40.29
40.05
39.00
38.32
38.39
38.85
39.11
38.81
38.08
37.36
37.07
37.23
37.48
37.36
36.55
35.13
33.48
31.98
30.87
29.97
28.83
26.96
24.08
20.24
15.79
11.19
6.79
2.68
-1.28
-5.30
-9.52
-13.83
-18.00
-21.75
-24.91
-27.64
-30.33
-33.52
-37.67
-42.92
-49.00
-55.28
-60.94
-65.14
-67.26
-66.93
-64.02
-58.62
-51.00
-41.63
-31.12
-20.23
-9.62
0.19
9.00
16.86
23.91
30.24
35.76
40.25
43.49
45.40
46.13
45.95
45.16
43.92
42.25
40.08
37.40
34.39
31.39
28.88
27.19
26.37
26.10
25.83
24.94
23.04
20.13
16.51
12.66
8.99
5.73
2.85
0.21
-2.31
-4.82
-7.30
-9.79
-12.38
-15.26
-18.59
-22.58
-27.31
-32.70
-38.57
-44.50
-49.92
-54.11
-56.28
-55.79
-52.33
-45.99
-37.31
-27.13
-16.31
-5.67
4.20
12.92
20.26
26.11
30.51
33.59
35.55
36.59
36.77
36.07
34.39
31.70
28.13
24.01
19.76
15.72
12.15
9.10
6.51
4.31
2.48
1.03
-0.03
-0.66
-0.85
-0.58
0.13
1.23
2.50
3.62
4.19
3.82
2.27
-0.48
-4.22
-8.58
-13.19
-17.78
-22.23
-26.62
-31.15
-36.13
-41.75
-47.98
-54.38
-60.20
-64.41
-66.10
-64.65
-59.91
-52.20
-42.14
-30.46
-17.89
-5.12
7.23
18.51
28.18
35.86
41.46
45.17
47.39
48.57
49.06
49.06
48.55
47.39
45.49
42.91
39.94
37.08
34.85
33.56
33.19
33.40
33.63
33.34
32.15
29.94
26.70
22.52
17.54
11.93
6.00
0.07
-5.63
-10.97
-16.06
-21.16
-26.45
-32.05
-37.92
-43.93
-50.04
-56.43
-63.46
-71.48
-80.61
-90.45
-100.00
-107.93
-112.85
-113.83
-110.56
-103.47
-93.40
-81.30
-67.93
-53.79
-39.13
-24.19
-9.29
5.12
18.46
30.24
40.05
47.74
53.31
56.98
59.04
59.88
59.96
59.68
59.39
59.23
59.11
58.72
57.67
55.67
52.70
49.05
45.22
41.66
38.61
36.05
33.70
31.29
28.67
25.90
23.23
20.90
19.10
17.84
17.03
16.50
16.13
15.84
15.63
15.54
15.52
15.43
14.95
13.62
10.93
6.52
0.31
-7.30
-15.52
-23.31
-29.65
-33.76
-35.31
-34.33
-31.07
-25.84
-18.85
-10.23
-0.08
11.40
23.87
36.81
49.57
61.40
71.55
79.46
84.84
87.85
89.06
89.31
89.47
90.15
91.61
93.70
96.13
98.65
101.20
103.96
107.22
111.10
115.30
118.86
120.15
117.11
107.69
90.43
64.99
32.37
-5.16
-44.56
-82.71
-117.01
-145.88
-168.76
-185.87
-197.73
-204.82
-207.39
-205.65
-200.03
-191.51
-181.60
-172.03
-164.29
-159.10
-156.23
-154.66
-152.89
-149.53
-143.57
-134.53
-122.36
-107.32
-89.88
-70.66
-50.50
-30.36
-11.34
5.66
20.02
31.61
40.74
48.01
54.09
59.35
63.83
67.22
69.21
69.70
69.05
68.00
67.44
68.00
69.74
72.23
74.60
76.06
76.07
74.55
71.74
67.97
63.59
58.79
53.73
48.54
43.40
38.41
33.63
28.99
24.40
19.83
15.32
10.94
6.72
2.59
-1.67
-6.31
-11.57
-17.59
-24.39
-31.91
-39.99
-48.36
-56.57
-64.08
-70.21
-74.30
-75.83
-74.42
-69.94
-62.55
-52.70
-41.08
-28.56
-15.99
-4.08
6.68
16.02
23.81
29.97
34.47
37.37
38.84
39.21
38.87
38.15
37.27
36.28
35.10
33.69
32.04
30.26
28.46
26.72
24.97
23.03
20.73
17.99
14.91
11.79
8.89
6.38
4.16
1.93
-0.67
-3.85
-7.61
-11.72
-15.82
-19.61
-22.95
-25.92
-28.74
-31.77
-35.30
-39.53
-44.45
-49.80
-55.03
-59.39
-62.09
-62.48
-60.19
-55.22
-47.94
-38.90
-28.73
-17.99
-7.11
3.56
13.76
23.13
31.32
37.95
42.80
45.81
47.17
47.32
46.76
45.99
45.35
44.94
44.63
44.14
43.24
41.83
40.05
38.14
36.34
34.69
33.04
31.06
28.48
25.23
21.49
17.60
13.88
10.51
7.45
4.52
1.50
-1.79
-5.47
-9.55
-13.95
-18.51
-23.02
-27.31
-31.31
-35.16
-39.06
-43.28
-48.00
-53.21
-58.63
-63.77
-67.97
-70.46
-70.58
-67.94
-62.55
-54.75
-45.18
-34.54
-23.49
-12.50
-1.86
8.26
17.74
26.43
34.13
40.58
45.56
48.96
50.87
51.58
51.54
51.12
50.57
49.92
49.04
47.81
46.18
44.22
42.07
39.90
37.82
35.86
33.95
31.95
29.69
26.97
23.72
20.02
16.09
12.23
8.65
5.39
2.28
-0.89
-4.30
-7.99
-11.86
-15.81
-19.72
-23.58
-27.36
-31.06
-34.68
-38.29
-42.04
-46.17
-50.85
-56.00
-61.19
-65.67
-68.54
-69.00
-66.62
-61.42
-53.84
-44.56
-34.28
-23.58
-12.85
-2.34
7.75
17.15
25.55
32.64
38.21
42.20
44.74
46.08
46.52
46.36
45.77
44.84
43.57
41.96
40.03
37.89
35.70
33.59
31.63
29.71
27.68
25.34
22.60
19.45
16.07
12.63
9.29
6.08
2.93
-0.33
-3.86
-7.68
-11.74
-15.87
-19.92
-23.79
-27.51
-31.15
-34.81
-38.62
-42.70
-47.19
-52.18
-57.57
-62.96
-67.60
-70.54
-70.90
-68.16
-62.35
-53.96
-43.77
-32.62
-21.15
-9.78
1.21
11.61
21.20
29.67
36.73
42.16
45.90
48.05
48.88
48.73
47.91
46.71
45.32
43.86
42.43
41.01
39.58
38.04
36.25
34.14
31.71
29.07
26.33
23.60
20.87
18.07
15.13
12.01
8.75
5.43
2.08
-1.28
-4.69
-8.21
-11.80
-15.41
-18.94
-22.34
-25.58
-28.65
-31.53
-34.24
-36.83
-39.45
-42.34
-45.74
-49.70
-53.90
-57.68
-60.15
-60.45
-58.04
-52.85
-45.23
-35.80
-25.26
-14.20
-3.12
7.58
17.54
26.46
34.11
40.33
45.09
48.45
50.55
51.55
51.66
51.05
49.93
48.45
46.77
44.99
43.20
41.43
39.68
37.95
36.20
34.41
32.56
30.59
28.39
25.85
22.89
19.52
15.91
12.29
8.90
5.86
3.11
0.46
-2.33
-5.39
-8.72
-12.16
-15.50
-18.61
-21.49
-24.27
-27.19
-30.53
-34.46
-39.07
-44.18
-49.38
-54.04
-57.43
-58.87
-57.93
-54.49
-48.73
-41.08
-32.07
-22.30
-12.33
-2.66
6.32
14.35
21.31
27.15
31.87
35.43
37.78
38.96
39.09
38.46
37.40
36.21
35.10
34.15
33.31
32.49
31.58
30.45
29.01
27.18
24.93
22.29
19.32
16.17
12.96
9.82
6.83
4.04
1.38
-1.28
-4.14
-7.40
-11.13
-15.23
-19.42
-23.43
-27.02
-30.22
-33.28
-36.63
-40.66
-45.53
-51.14
-57.08
-62.70
-67.33
-70.39
-71.51
-70.51
-67.44
-62.39
-55.51
-46.94
-36.87
-25.55
-13.35
-0.72
11.72
23.36
33.53
41.67
47.45
50.86
52.25
52.27
51.63
50.88
50.28
49.76
49.13
48.21
46.95
45.49
43.99
42.56
41.14
39.57
37.62
35.18
32.23
28.97
25.63
22.47
19.62
17.03
14.50
11.77
8.62
4.99
0.97
-3.22
-7.37
-11.35
-15.14
-18.83
-22.56
-26.46
-30.66
-35.21
-40.20
-45.61
-51.36
-57.16
-62.49
-66.67
-69.03
-69.04
-66.45
-61.35
-54.07
-45.09
-34.92
-24.02
-12.81
-1.68
8.95
18.67
27.06
33.82
38.82
42.10
43.94
44.67
44.68
44.28
43.70
43.02
42.21
41.19
39.86
38.20
36.33
34.47
32.80
31.38
30.06
28.50
26.41
23.69
20.51
17.23
14.17
11.43
8.83
6.03
2.74
-1.13
-5.44
-9.89
-14.17
-18.09
-21.68
-25.11
-28.65
-32.58
-37.15
-42.44
-48.36
-54.52
-60.27
-64.76
-67.12
-66.72
-63.31
-57.12
-48.75
-38.96
-28.50
-17.92
-7.53
2.44
11.87
20.55
28.24
34.69
39.69
43.13
45.07
45.72
45.45
44.68
43.81
43.08
42.53
42.04
41.37
40.37
38.93
37.12
35.07
32.90
30.67
28.37
25.94
23.31
20.45
17.37
14.13
10.82
7.53
4.33
1.24
-1.81
-4.88
-8.05
-11.37
-14.78
-18.26
-21.77
-25.32
-28.98
-32.86
-37.03
-41.57
-46.50
-51.76
-57.14
-62.22
-66.38
-68.85
-68.93
-66.21
-60.70
-52.83
-43.27
-32.75
-21.81
-10.81
0.03
10.45
20.07
28.40
35.06
39.82
42.79
44.30
44.80
44.65
44.08
43.20
42.07
40.81
39.54
38.38
37.33
36.31
35.21
33.88
32.28
30.32
28.01
25.31
22.23
18.82
15.17
11.39
7.61
3.89
0.30
-3.11
-6.30
-9.25
-12.03
-14.77
-17.66
-20.84
-24.28
-27.82
-31.17
-34.08
-36.43
-38.34
-40.14
-42.29
-45.19
-48.98
-53.50
-58.16
-62.15
-64.60
-64.83
-62.54
-57.89
-51.33
-43.44
-34.74
-25.58
-16.16
-6.58
3.05
12.55
21.66
30.02
37.23
42.91
46.82
48.99
49.77
49.69
49.33
49.04
48.92
48.83
48.56
48.01
47.24
46.36
45.45
44.41
43.07
41.27
38.96
36.25
33.32
30.35
27.42
24.52
21.61
18.68
15.73
12.76
9.71
6.47
2.96
-0.80
-4.73
-8.62
-12.34
-15.87
-19.28
-22.72
-26.35
-30.24
-34.48
-39.15
-44.35
-50.09
-56.11
-61.85
-66.44
-69.04
-69.01
-66.19
-60.84
-53.49
-44.74
-35.07
-24.89
-14.53
-4.40
5.08
13.47
20.49
26.06
30.27
33.33
35.45
36.83
37.63
38.01
38.07
37.90
37.54
37.00
36.31
35.52
34.74
34.01
33.34
32.65
31.82
30.74
29.36
27.70
25.79
23.58
21.03
18.05
14.73
11.20
7.74
4.55
1.67
-1.04
-3.84
-6.94
-10.34
-13.91
-17.38
-20.55
-23.33
-25.77
-28.01
-30.26
-32.69
-35.49
-38.81
-42.77
-47.31
-52.15
-56.69
-60.14
-61.71
-60.80
-57.22
-51.20
-43.36
-34.41
-25.02
-15.65
-6.51
2.26
10.55
18.15
24.82
30.37
34.73
37.92
40.08
41.34
41.80
41.63
41.03
40.24
39.53
39.06
38.93
39.09
39.42
39.72
39.72
39.14
37.83
35.80
33.30
30.73
28.47
26.63
25.04
23.31
21.09
18.26
15.02
11.73
8.69
5.96
3.32
0.47
-2.80
-6.48
-10.33
-14.05
-17.45
-20.52
-23.40
-26.30
-29.36
-32.69
-36.37
-40.46
-44.93
-49.61
-53.98
-57.33
-58.90
-58.12
-54.86
-49.44
-42.44
-34.50
-26.05
-17.34
-8.52
0.21
8.45
15.71
21.57
25.82
28.56
30.11
30.92
31.35
31.61
31.78
31.84
31.75
31.50
31.09
30.55
29.91
29.17
28.35
27.41
26.34
25.17
23.95
22.66
21.25
19.67
17.86
15.87
13.75
11.60
9.48
7.43
5.38
3.26
0.99
-1.47
-4.09
-6.90
-9.86
-12.84
-15.64
-18.13
-20.34
-22.41
-24.62
-27.26
-30.74
-35.19
-40.21
-44.99
-48.66
-50.58
-50.46
-48.41
-44.74
-40.26
-35.50
-30.35
-24.19
-16.78
-8.34
0.32
8.10
14.04
16.91
16.24
12.86
8.48
4.47
1.68
-0.03
-1.73
-5.18
-13.55
-29.81
-54.99
-87.53
-123.86
-158.53
-185.95
-201.97
-199.40
-177.02
-142.53
-108.00
-81.45
-64.09
-52.16
-40.12
-24.10
-1.90
26.74
61.57
102.38
148.96
193.84
229.57
249.96
252.42
239.14
215.33
187.51
161.44
140.32
123.96
110.60
97.85
83.89
68.06
50.14
30.52
10.40
-8.54
-24.98
-37.74
-46.46
-51.57
-53.92
-54.88
-55.86
-57.96
-61.87
-67.80
-75.01
-82.08
-87.11
-88.03
-83.17
-71.47
-52.72
-27.79
1.17
31.06
58.23
79.45
92.99
99.09
99.80
97.87
95.49
93.27
90.27
84.47
73.94
57.60
35.70
9.68
-18.06
-44.62
-66.98
-82.62
-90.05
-89.12
-81.05
-67.96
-52.32
-36.39
-22.08
-10.99
-4.58
-4.05
-10.07
-22.28
-39.13
-58.11
-76.29
-91.01
-100.38
-103.56
-100.86
-93.51
-83.17
-71.30
-58.44
-44.09
-27.10
-6.54
17.36
42.79
66.74
86.01
98.33
103.04
101.08
94.34
84.89
74.35
63.87
54.28
46.39
41.05
38.88
39.94
43.39
47.47
49.93
48.85
43.50
34.79
25.06
17.03
12.66
12.25
14.36
16.59
16.63
13.15
5.86
-4.84
-18.52
-34.91
-53.65
-73.63
-92.62
-107.64
-115.87
-115.83
-107.95
-94.46
-78.42
-62.63
-48.78
-37.28
-27.62
-19.04
-11.02
-3.45
3.54
9.85
15.66
21.38
27.52
34.35
41.73
49.07
55.52
60.45
63.57
65.09
65.29
64.09
60.83
54.34
43.39
27.34
6.43
-18.26
-45.21
-72.98
-100.43
-126.64
-150.59
-171.03
-186.53
-195.86
-198.39
-194.26
-184.26
-169.46
-150.87
-129.36
-105.91
-81.93
-59.31
-40.13
-25.92
-17.12
-12.84
-11.23
-10.27
-8.45
-5.13
-0.40
5.28
11.48
17.98
24.74
31.73
38.79
45.67
51.93
57.00
60.26
61.13
59.33
54.97
48.66
41.32
34.00
27.64
22.89
20.10
19.25
20.00
21.68
23.53
24.93
25.71
26.20
27.01
28.76
31.61
35.12
38.44
40.59
40.89
39.17
35.71
31.11
26.03
21.14
17.04
14.18
12.71
12.43
12.68
12.60
11.45
8.89
5.13
0.88
-2.86
-5.12
-5.20
-2.81
1.92
8.48
16.19
24.37
32.47
40.16
47.19
53.33
58.18
61.32
62.47
61.65
59.32
56.18
52.97
50.16
47.87
45.82
43.60
40.81
37.29
33.13
28.66
24.37
20.67
17.77
15.56
13.65
11.55
8.92
5.84
2.75
0.33
-0.85
-0.61
0.74
2.58
4.23
5.30
5.79
6.03
6.46
7.36
8.62
9.72
9.79
7.99
3.91
-2.10
-8.87
-14.70
-18.00
-17.85
-14.34
-8.46
-1.66
4.82
10.33
15.20
20.80
29.35
43.46
65.22
95.20
131.61
170.31
205.76
232.88
248.79
253.68
250.28
242.12
231.68
219.41
204.08
184.06
158.58
128.15
93.89
56.54
15.87
-28.99
-78.60
-132.31
-188.37
-244.53
-298.62
-348.26
-390.40
-421.20
-437.06
-436.38
-421.03
-396.03
-367.68
-340.71
-316.55
-293.50
-268.77
-240.75
-210.11
-179.13
-150.03
-123.62
-99.22
-75.70
-52.82
-31.72
-14.37
-2.44
3.42
3.99
1.11
-2.98
-6.46
-8.25
-8.18
-6.69
-4.44
-1.91
0.98
4.81
10.29
17.87
27.30
37.56
47.17
54.67
59.16
60.51
59.28
56.36
52.58
48.49
44.35
40.30
36.49
33.16
30.54
28.77
27.74
27.15
26.58
25.71
24.37
22.68
20.89
19.30
18.15
17.49
17.22
17.12
16.98
16.66
16.25
15.98
16.22
17.40
19.79
23.50
28.48
34.54
41.47
49.10
57.23
65.62
73.81
81.23
87.18
91.05
92.41
91.19
87.72
82.60
76.63
70.50
64.65
59.17
53.89
48.45
42.66
36.59
30.59
25.18
20.76
17.39
14.65
11.74
7.77
2.16
-5.06
-13.15
-20.83
-26.73
-29.74
-29.30
-25.46
-18.82
-10.53
-2.09
4.95
9.57
11.77
12.86
14.96
19.88
27.97
37.67
46.12
50.59
50.00
45.38
39.29
34.26
31.50
30.56
30.01
28.69
26.69
25.28
26.16
30.53
38.35
48.48
59.32
69.49
78.32
85.81
92.30
98.01
102.64
105.38
105.19
101.29
93.58
82.78
70.18
57.17
44.79
33.57
23.54
14.54
6.47
-0.68
-6.88
-12.06
-16.04
-18.53
-19.06
-17.25
-13.20
-7.71
-2.27
1.47
2.25
-0.32
-5.69
-12.59
-19.36
-24.17
-25.26
-21.48
-12.91
-1.41
9.83
17.49
20.02
18.86
18.12
22.70
35.78
57.02
82.66
107.27
126.15
137.12
140.86
140.01
137.71
136.65
138.64
144.83
155.90
172.04
192.89
217.50
244.54
272.48
299.54
323.66
342.49
353.71
355.63
347.71
330.77
306.71
277.84
246.25
213.44
180.45
148.06
116.96
87.65
60.02
33.20
5.66
-24.16
-57.07
-92.46
-128.12
-160.94
-187.94
-207.78
-221.50
-232.43
-244.98
-262.95
-288.09
-319.43
-353.90
-387.57
-417.16
-441.08
-459.55
-473.93
-485.67
-495.16
-501.14
-500.83
-491.12
-470.28
-439.51
-403.14
-367.06
-335.97
-311.03
-289.03
-263.93
-229.82
-183.92
-128.30
-69.35
-15.80
23.91
43.91
42.16
20.77
-14.72
-56.77
-97.82
-132.19
-157.15
-172.58
-179.57
-178.73
-169.45
-150.46
-121.34
-83.85
-42.09
-1.34
34.08
62.41
84.94
104.93
125.78
149.30
175.08
200.99
224.40
243.45
257.69
267.71
274.41
278.26
278.99
276.01
269.13
259.18
248.06
238.14
231.37
228.56
229.08
231.22
232.79
231.81
226.94
217.80
204.84
189.05
171.54
153.05
133.69
113.10
90.90
67.26
43.32
20.99
2.40
-10.93
-18.83
-22.78
-25.66
-31.00
-41.89
-59.64
-83.02
-108.16
-129.60
-142.13
-142.78
-131.99
-113.54
-93.04
-75.94
-65.98
-64.40
-70.58
-83.13
-100.82
-123.21
-150.78
-184.72
-226.22
-275.40
-329.94
-384.52
-431.39
-462.47
-472.11
-459.15
-427.06
-382.08
-330.42
-276.21
-221.30
-166.67
-114.27
-67.73
-31.36
-8.07
2.36
3.48
0.64
-1.24
0.60
6.41
14.59
23.32
31.62
39.58
47.89
56.96
66.28
74.47
79.77
80.92
77.74
71.29
63.39
55.89
50.07
46.28
44.05
42.48
40.74
38.36
35.31
31.85
28.30
24.79
21.19
17.16
12.21
5.97
-1.65
-10.26
-18.95
-26.36
-31.07
-32.04
-28.95
-22.36
-13.47
-3.63
6.09
15.23
23.83
32.19
40.47
48.56
56.12
62.75
68.16
72.27
75.14
76.89
77.63
77.48
76.67
75.42
74.01
72.68
71.56
70.68
69.96
69.24
68.31
66.93
64.93
62.26
59.03
55.48
51.86
48.34
44.94
41.62
38.31
35.02
31.82
28.80
25.96
23.20
20.35
17.28
13.99
10.55
7.12
3.77
0.50
-2.83
-6.43
-10.49
-15.10
-20.13
-25.26
-29.95
-33.54
-35.37
-34.92
-31.94
-26.54
-19.18
-10.51
-1.29
7.85
16.48
24.44
31.72
38.35
44.28
49.32
53.29
56.07
57.71
58.40
58.41
57.96
57.15
56.07
54.77
53.37
52.01
50.84
49.91
49.12
48.31
47.23
45.73
43.69
41.19
38.33
35.34
32.38
29.59
26.96
24.44
21.91
19.29
16.56
13.75
10.89
7.94
4.89
1.73
-1.51
-4.72
-7.88
-11.02
-14.31
-17.90
-21.83
-25.83
-29.39
-31.84
-32.61
-31.42
-28.37
-23.84
-18.31
-12.24
-5.94
0.41
6.67
12.72
18.37
23.46
27.86
31.49
34.34
36.42
37.74
38.32
38.20
37.52
36.52
35.49
34.68
34.23
34.09
34.03
33.73
32.90
31.40
29.30
26.82
24.27
21.93
19.93
18.28
16.89
15.57
14.18
12.55
10.56
8.13
5.26
2.01
-1.46
-4.98
-8.36
-11.53
-14.47
-17.21
-19.75
-22.11
-24.29
-26.38
-28.48
-30.67
-32.86
-34.72
-35.68
-35.22
-33.03
-29.22
-24.26
-18.77
-13.32
-8.26
-3.70
0.46
4.33
7.94
11.32
14.39
17.13
19.45
21.33
22.73
23.64
24.12
24.25
24.15
23.90
23.53
23.03
22.35
21.44
20.28
18.91
17.43
15.94
14.52
13.13
11.71
10.15
8.41
6.48
4.47
2.47
0.55
-1.29
-3.06
-4.82
-6.55
-8.18
-9.63
-10.83
-11.81
-12.64
-13.40
-14.17
-15.01
-15.98
-17.21
-18.83
-20.93
-23.35
-25.69
-27.33
-27.71
-26.50
-23.76
-19.91
-15.50
-10.97
-6.59
-2.44
1.44
4.96
7.95
10.30
11.99
13.10
13.75
14.03
14.02
13.79
13.45
13.17
13.08
13.20
13.44
13.60
13.50
13.00
12.11
10.89
9.49
8.04
6.63
5.35
4.19
3.13
2.04
0.83
-0.56
-2.11
-3.78
-5.50
-7.24
-9.01
-10.82
-12.66
-14.50
-16.32
-18.07
-19.78
-21.48
-23.28
-25.23
-27.28
-29.30
-30.95
-31.83
-31.54
-29.80
-26.61
-22.16
-16.88
-11.24
-5.69
-0.59
3.82
7.41
10.14
12.06
13.30
14.03
14.43
14.56
14.48
14.18
13.68
13.04
12.37
11.79
11.38
11.17
11.10
11.10
11.03
10.74
10.08
9.02
7.62
6.09
4.66
3.49
2.58
1.77
0.83
-0.39
-1.90
-3.60
-5.33
-7.00
-8.57
-10.07
-11.49
-12.79
-13.90
-14.81
-15.57
-16.34
-17.31
-18.68
-20.51
-22.66
-24.81
-26.45
-27.07
-26.30
-24.08
-20.61
-16.34
-11.75
-7.25
-3.11
0.50
3.53
5.95
7.79
9.13
10.10
10.83
11.42
11.87
12.13
12.14
11.82
11.20
10.37
9.52
8.86
8.54
8.59
8.88
9.18
9.21
8.75
7.75
6.27
4.53
2.79
1.28
0.12
-0.77
-1.53
-2.38
-3.45
-4.72
-6.00
-7.04
-7.64
-7.81
-7.74
-7.77
-8.20
-9.22
-10.78
-12.58
-14.21
-15.35
-15.90
-16.11
-16.48
-17.51
-19.34
-21.58
-23.32
-23.50
-21.41
-17.14
-11.64
-6.35
-2.62
-1.05
-1.24
-2.02
-1.98
-0.10
3.81
9.05
14.24
17.69
17.66
12.73
2.13
-13.75
-33.00
-52.21
-67.22
-74.48
-72.35
-61.90
-46.47
-30.46
-17.53
-9.50
-6.08
-5.68
-6.65
-8.22
-10.64
-14.55
-20.09
-26.30
-31.34
-33.32
-31.26
-25.67
-18.30
-11.27
-6.11
-3.23
-2.14
-2.29
-3.69
-7.13
-13.75
-24.24
-38.33
-54.67
-71.20
-85.63
-95.78
-99.72
-95.95
-83.75
-63.47
-36.87
-6.75
23.68
51.65
75.37
94.03
107.39
115.31
117.78
115.09
108.23
98.97
89.32
80.83
73.88
67.54
60.15
50.13
36.95
21.43
5.50
-8.42
-18.13
-22.18
-19.93
-11.43
2.76
21.52
43.14
65.34
85.66
102.17
114.18
122.45
128.82
135.21
142.68
150.92
158.50
163.59
164.77
161.55
154.36
144.41
133.39
123.45
116.97
116.17
122.49
136.01
155.29
177.76
200.34
219.98
234.03
240.19
236.71
222.82
199.20
168.13
132.97
97.02
62.44
29.74
-1.86
-33.40
-65.31
-97.03
-127.39
-155.26
-179.97
-201.31
-219.16
-233.03
-242.02
-245.15
-241.81
-232.15
-217.05
-197.70
-175.17
-150.03
-122.46
-92.66
-61.30
-29.65
0.75
28.74
54.07
77.46
99.91
121.73
141.81
157.53
165.51
162.81
148.06
122.01
87.27
47.57
6.73
-32.15
-67.03
-96.93
-121.56
-140.93
-155.06
-163.98
-167.85
-167.20
-162.97
-156.39
-148.70
-140.78
-133.06
-125.50
-117.88
-110.02
-101.91
-93.63
-85.20
-76.38
-66.68
-55.68
-43.28
-29.90
-16.46
-4.16
5.94
13.16
17.41
19.07
18.74
17.06
14.39
10.77
5.97
-0.34
-8.33
-17.78
-28.01
-37.98
-46.65
-53.36
-58.03
-61.13
-63.39
-65.43
-67.46
-69.32
-70.59
-70.93
-70.11
-68.07
-64.80
-60.25
-54.36
-47.19
-39.03
-30.39
-21.88
-14.04
-7.16
-1.31
3.57
7.62
10.94
13.58
15.65
17.28
18.67
19.97
21.24
22.45
23.46
24.12
24.34
24.10
23.43
22.41
21.16
19.76
18.37
17.10
16.02
15.06
14.12
13.02
11.66
10.09
8.41
6.70
4.94
3.04
0.84
-1.70
-4.54
-7.52
-10.44
-13.20
-15.79
-18.30
-20.83
-23.44
-26.11
-28.77
-31.26
-33.39
-34.94
-35.67
-35.41
-34.06
-31.63
-28.27
-24.20
-19.75
-15.24
-10.96
-7.07
-3.62
-0.59
2.00
4.16
5.83
6.97
7.61
7.86
7.85
7.74
7.63
7.59
7.70
8.01
8.59
9.47
10.61
11.84
12.95
13.72
14.04
13.93
13.56
13.16
12.92
12.87
12.89
12.75
12.18
11.05
9.40
7.41
5.29
3.21
1.24
-0.66
-2.56
-4.52
-6.58
-8.77
-11.15
-13.71
-16.34
-18.77
-20.59
-21.42
-21.02
-19.41
-16.80
-13.52
-9.91
-6.24
-2.72
0.47
3.17
5.28
6.74
7.64
8.12
8.40
8.66
9.02
9.44
9.83
10.03
10.00
9.79
9.53
9.35
9.32
9.35
9.33
9.18
8.89
8.51
8.10
7.67
7.18
6.56
5.83
5.01
4.20
3.41
2.61
1.68
0.49
-1.02
-2.79
-4.71
-6.63
-8.46
-10.24
-12.10
-14.25
-16.77
-19.55
-22.19
-24.22
-25.15
-24.76
-23.08
-20.42
-17.17
-13.69
-10.17
-6.67
-3.15
0.42
4.02
7.55
10.80
13.55
15.58
16.76
17.14
16.93
16.44
15.97
15.73
15.75
15.90
15.96
15.78
15.30
14.65
14.00
13.53
13.26
13.07
12.75
12.13
11.14
9.90
8.61
7.45
6.48
5.58
4.59
3.36
1.88
0.26
-1.37
-2.88
-4.31
-5.74
-7.28
-8.96
-10.81
-12.73
-14.66
-16.56
-18.38
-20.04
-21.39
-22.20
-22.20
-21.18
-19.04
-15.81
-11.63
-6.77
-1.52
3.78
8.83
13.36
17.15
20.07
22.07
23.18
23.53
23.29
22.67
21.88
21.12
20.52
20.18
20.11
20.27
20.61
21.04
21.48
21.83
21.99
21.80
21.15
19.96
18.21
15.96
13.30
10.37
7.34
4.38
1.68
-0.60
-2.36
-3.64
-4.62
-5.57
-6.79
-8.48
-10.74
-13.54
-16.79
-20.36
-24.10
-27.89
-31.53
-34.84
-37.54
-39.37
-40.13
-39.72
-38.17
-35.69
-32.56
-29.09
-25.53
-22.03
-18.67
-15.47
-12.51
-9.87
-7.71
-6.10
-5.03
-4.38
-3.94
-3.52
-2.97
-2.22
-1.24
0.00
1.55
3.47
5.85
8.69
11.93
15.40
18.87
22.09
24.81
26.86
28.17
28.70
28.53
27.75
26.46
24.73
22.64
20.24
17.65
14.99
12.45
10.29
8.69
7.79
7.54
7.68
7.79
7.43
6.26
4.22
1.56
-1.25
-3.61
-4.98
-5.05
-3.79
-1.43
1.66
5.03
8.32
11.28
13.78
15.69
16.99
17.66
17.78
17.47
16.99
16.56
16.39
16.55
17.01
17.68
18.43
19.16
19.77
20.18
20.31
20.15
19.75
19.18
18.48
17.63
16.56
15.17
13.53
11.82
10.40
9.58
9.52
10.11
11.08
12.06
12.78
13.14
13.17
12.95
12.54
11.93
11.00
9.61
7.63
4.98
1.69
-2.10
-6.06
-9.73
-12.56
-14.07
-14.01
-12.46
-9.83
-6.79
-4.10
-2.40
-2.08
-3.19
-5.42
-8.20
-10.83
-12.63
-13.14
-12.16
-9.82
-6.48
-2.63
1.20
4.54
7.01
8.36
8.54
7.77
6.45
5.11
4.25
4.16
4.87
6.19
7.76
9.28
10.49
11.32
11.74
11.82
11.60
11.16
10.54
9.84
9.14
8.50
7.86
7.09
6.01
4.46
2.40
-0.06
-2.69
-5.25
-7.55
-9.54
-11.24
-12.75
-14.19
-15.59
-16.91
-18.02
-18.72
-18.85
-18.30
-17.15
-15.62
-14.01
-12.50
-11.18
-9.89
-8.42
-6.59
-4.43
-2.14
-0.02
1.63
2.67
3.07
2.94
2.36
1.43
0.21
-1.22
-2.79
-4.44
-6.12
-7.86
-9.65
-11.45
-13.11
-14.38
-14.96
-14.66
-13.47
-11.63
-9.49
-7.48
-5.90
-4.90
-4.38
-4.17
-4.01
-3.71
-3.19
-2.48
-1.60
-0.63
0.41
1.47
2.43
3.21
3.76
4.19
4.75
5.81
7.73
10.76
14.98
20.27
26.38
32.98
39.72
46.24
52.24
57.53
62.10
66.04
69.60
73.11
76.89
81.22
86.23
91.87
97.89
103.94
109.72
115.00
119.69
123.69
126.81
128.77
129.37
128.63
126.88
124.55
121.94
118.95
115.12
109.99
103.61
96.89
91.54
89.45
91.86
98.59
107.89
116.97
123.02
124.16
119.95
111.11
98.75
83.66
65.96
45.44
22.20
-3.15
-29.77
-57.43
-87.05
-120.35
-158.76
-202.19
-248.48
-293.88
-334.54
-367.94
-393.54
-412.24
-424.89
-430.86
-427.51
-410.96
-377.88
-327.38
-262.09
-187.89
-112.46
-43.18
14.67
58.87
89.97
110.27
122.47
128.94
131.63
132.39
133.44
137.24
145.78
159.60
177.06
194.50
207.53
212.73
209.12
198.49
184.26
169.61
155.82
141.91
125.61
105.12
80.52
53.98
28.78
7.74
-7.94
-18.90
-26.84
-33.47
-39.68
-45.34
-49.81
-52.57
-53.64
-53.59
-53.21
-52.96
-52.75
-51.96
-49.86
-46.08
-40.92
-35.25
-30.09
-26.12
-23.33
-21.12
-18.52
-14.79
-9.71
-3.71
2.25
7.04
9.64
9.44
6.34
0.79
-6.36
-14.08
-21.41
-27.64
-32.35
-35.42
-36.87
-36.90
-35.87
-34.26
-32.68
-31.63
-31.36
-31.76
-32.44
-33.00
-33.23
-33.23
-33.37
-34.02
-35.40
-37.47
-39.93
-42.32
-44.14
-44.88
-44.17
-41.76
-37.67
-32.17
-25.78
-19.16
-12.95
-7.56
-3.15
0.38
3.30
5.87
8.18
10.10
11.39
11.84
11.41
10.30
8.85
7.42
6.24
5.39
4.83
4.50
4.33
4.24
4.14
3.89
3.36
2.50
1.37
0.18
-0.84
-1.50
-1.78
-1.85
-2.07
-2.84
-4.44
-6.92
-10.01
-13.23
-16.10
-18.32
-19.88
-21.11
-22.39
-24.08
-26.29
-28.84
-31.36
-33.30
-34.14
-33.45
-31.06
-27.09
-21.85
-15.75
-9.07
-2.01
5.32
12.70
19.73
25.86
30.59
33.63
35.04
35.20
34.60
33.66
32.55
31.23
29.53
27.36
24.74
21.82
18.87
16.07
13.54
11.20
8.94
6.53
3.74
0.37
-3.74
-8.62
-14.14
-20.02
-25.85
-31.25
-35.88
-39.59
-42.41
-44.49
-46.06
-47.35
-48.47
-49.46
-50.23
-50.74
-51.04
-51.32
-51.81
-52.64
-53.61
-54.19
-53.65
-51.34
-47.00
-40.83
-33.42
-25.48
-17.63
-10.21
-3.37
2.86
8.45
13.29
17.20
19.99
21.60
22.05
21.51
20.24
18.52
16.54
14.41
12.18
9.92
7.79
6.00
4.72
3.98
3.59
3.24
2.64
1.66
0.43
-0.79
-1.80
-2.55
-3.27
-4.30
-5.88
-8.00
-10.33
-12.45
-14.08
-15.27
-16.37
-17.91
-20.31
-23.68
-27.79
-32.15
-36.27
-39.69
-42.09
-43.21
-42.85
-40.92
-37.40
-32.48
-26.46
-19.77
-12.84
-6.06
0.26
5.94
10.90
15.16
18.68
21.36
23.06
23.68
23.30
22.24
20.96
19.87
19.17
18.75
18.30
17.51
16.25
14.61
12.82
11.14
9.69
8.45
7.29
6.06
4.69
3.15
1.56
0.02
-1.35
-2.51
-3.56
-4.70
-6.19
-8.20
-10.76
-13.67
-16.59
-19.19
-21.30
-23.03
-24.68
-26.63
-29.12
-32.11
-35.23
-37.89
-39.46
-39.45
-37.66
-34.11
-29.01
-22.66
-15.43
-7.67
0.17
7.68
14.45
20.13
24.56
27.73
29.79
30.98
31.53
31.65
31.44
30.93
30.12
28.96
27.47
25.70
23.78
21.82
19.87
17.96
16.08
14.24
12.51
10.94
9.62
8.56
7.65
6.75
5.70
4.40
2.82
0.97
-1.07
-3.30
-5.68
-8.17
-10.70
-13.17
-15.50
-17.69
-19.79
-21.88
-24.05
-26.32
-28.70
-31.14
-33.53
-35.75
-37.53
-38.50
-38.22
-36.32
-32.54
-26.93
-19.77
-11.57
-2.97
5.45
13.13
19.67
24.81
28.45
30.65
31.62
31.65
31.08
30.16
29.05
27.83
26.53
25.21
23.93
22.80
21.83
20.96
20.10
19.18
18.25
17.38
16.68
16.09
15.42
14.41
12.85
10.76
8.33
5.84
3.52
1.42
-0.55
-2.53
-4.57
-6.67
-8.71
-10.64
-12.51
-14.47
-16.69
-19.28
-22.27
-25.49
-28.74
-31.81
-34.54
-36.86
-38.66
-39.74
-39.80
-38.38
-35.14
-29.95
-23.07
-15.09
-6.71
1.41
8.80
15.19
20.43
24.39
26.97
28.17
28.12
27.15
25.73
24.30
23.17
22.46
22.04
21.70
21.20
20.41
19.37
18.25
17.24
16.40
15.58
14.47
12.82
10.58
7.99
5.46
3.37
1.86
0.75
-0.32
-1.71
-3.60
-5.91
-8.40
-10.79
-12.91
-14.76
-16.46
-18.23
-20.29
-22.80
-25.82
-29.25
-32.78
-35.95
-38.20
-38.99
-37.94
-34.95
-30.21
-24.11
-17.17
-9.86
-2.52
4.59
11.31
17.44
22.72
26.86
29.63
30.96
31.04
30.24
29.05
27.87
26.96
26.33
25.89
25.45
24.85
24.03
22.96
21.73
20.41
19.13
17.94
16.86
15.85
14.84
13.73
12.49
11.07
9.48
7.73
5.84
3.83
1.70
-0.55
-2.89
-5.32
-7.74
-10.08
-12.29
-14.35
-16.36
-18.46
-20.78
-23.42
-26.39
-29.68
-33.19
-36.76
-40.13
-42.92
-44.65
-44.86
-43.17
-39.43
-33.76
-26.59
-18.49
-10.06
-1.78
6.01
13.14
19.50
24.94
29.28
32.31
33.97
34.38
33.88
32.95
32.00
31.25
30.70
30.20
29.55
28.61
27.33
25.80
24.18
22.66
21.44
20.61
20.15
19.92
19.65
19.08
18.04
16.52
14.66
12.67
10.76
8.99
7.37
5.79
4.13
2.27
0.15
-2.32
-5.14
-8.24
-11.44
-14.42
-16.97
-18.98
-20.64
-22.33
-24.46
-27.23
-30.51
-33.81
-36.52
-38.05
-38.03
-36.30
-32.90
-27.96
-21.68
-14.36
-6.44
1.51
8.89
15.17
19.97
23.07
24.50
24.46
23.42
21.93
20.56
19.69
19.38
19.40
19.38
19.03
18.21
16.99
15.52
13.98
12.44
10.86
9.22
7.45
5.56
3.60
1.66
-0.18
-1.85
-3.42
-4.96
-6.60
-8.42
-10.40
-12.46
-14.52
-16.54
-18.52
-20.46
-22.39
-24.28
-26.17
-28.10
-30.17
-32.42
-34.82
-37.18
-39.12
-40.22
-40.02
-38.13
-34.38
-28.90
-22.17
-14.87
-7.62
-0.83
5.39
11.11
16.36
20.99
24.69
27.14
28.31
28.41
27.93
27.33
26.87
26.57
26.30
25.94
25.46
24.95
24.51
24.16
23.83
23.34
22.51
21.22
19.53
17.59
15.65
13.86
12.22
10.58
8.72
6.48
3.84
1.00
-1.76
-4.14
-6.01
-7.35
-8.34
-9.21
-10.21
-11.53
-13.26
-15.42
-17.92
-20.68
-23.58
-26.42
-28.92
-30.66
-31.18
-30.07
-27.10
-22.36
-16.22
-9.20
-1.94
4.96
10.98
15.61
18.42
19.14
17.80
14.89
11.30
8.16
6.45
6.67
8.68
11.79
15.01
17.44
18.55
18.35
17.30
16.06
15.23
15.16
15.79
16.76
17.61
17.98
17.76
17.05
16.04
14.85
13.37
11.32
8.42
4.65
0.39
-3.59
-6.34
-7.13
-5.79
-2.76
0.97
4.25
6.14
6.12
4.20
0.70
-3.85
-8.83
-13.62
-17.64
-20.35
-21.36
-20.47
-17.76
-13.47
-8.00
-1.88
4.31
9.96
14.54
17.66
19.29
19.66
19.24
18.53
17.87
17.35
16.76
15.83
14.30
12.13
9.48
6.68
4.06
1.91
0.35
-0.60
-1.06
-1.26
-1.43
-1.78
-2.40
-3.23
-4.09
-4.83
-5.44
-6.07
-6.98
-8.35
-10.18
-12.28
-14.39
-16.31
-18.02
-19.73
-21.71
-24.16
-27.12
-30.31
-33.28
-35.43
-36.26
-35.39
-32.77
-28.55
-23.06
-16.70
-9.86
-2.89
3.84
10.04
15.46
19.97
23.57
26.29
28.19
29.29
29.59
29.13
28.02
26.41
24.44
22.21
19.72
16.99
14.04
10.97
7.88
4.87
1.97
-0.82
-3.48
-5.97
-8.15
-9.92
-11.17
-11.91
-12.26
-12.42
-12.62
-12.94
-13.26
-13.30
-12.70
-11.40
-9.73
-8.51
-8.70
-11.02
-15.56
-21.70
-28.42
-34.67
-39.72
-43.29
-45.35
-45.88
-44.79
-42.00
-37.60
-31.92
-25.40
-18.34
-10.76
-2.46
6.64
16.26
25.62
33.72
39.77
43.60
45.76
47.23
49.04
51.79
55.52
59.82
64.02
67.55
70.03
71.26
71.18
69.73
66.81
62.36
56.43
49.23
41.11
32.48
23.71
15.09
6.84
-0.85
-7.73
-13.52
-17.99
-21.04
-22.75
-23.40
-23.38
-23.09
-22.89
-23.09
-23.91
-25.53
-27.99
-31.13
-34.58
-37.75
-40.04
-41.04
-40.59
-38.85
-36.11
-32.65
-28.62
-24.04
-18.97
-13.58
-8.18
-3.12
1.40
5.36
8.88
12.06
14.85
17.00
18.26
18.51
17.89
16.71
15.34
14.02
12.84
11.72
10.49
8.97
7.04
4.57
1.53
-2.01
-5.79
-9.38
-12.16
-13.51
-12.89
-10.13
-5.44
0.52
6.87
12.75
17.65
21.52
24.79
28.00
31.56
35.45
39.30
42.50
44.55
45.19
44.42
42.44
39.37
35.26
29.97
23.36
15.43
6.47
-2.87
-11.66
-18.86
-23.59
-25.33
-24.13
-20.53
-15.46
-9.91
-4.73
-0.44
2.81
5.16
6.81
7.89
8.43
8.40
7.84
6.95
5.98
5.16
4.59
4.18
3.76
3.16
2.32
1.30
0.19
-0.88
-1.83
-2.56
-3.02
-3.15
-3.01
-2.74
-2.57
-2.72
-3.35
-4.54
-6.31
-8.64
-11.42
-14.52
-17.72
-20.80
-23.62
-26.20
-28.66
-31.20
-33.96
-36.97
-40.12
-43.20
-45.94
-48.04
-49.17
-49.04
-47.42
-44.19
-39.36
-33.05
-25.48
-17.00
-8.07
0.72
8.77
15.61
20.94
24.76
27.23
28.62
29.19
29.10
28.53
27.61
26.53
25.45
24.49
23.68
22.97
22.31
21.65
20.97
20.24
19.39
18.28
16.80
14.88
12.57
10.05
7.59
5.40
3.62
2.22
1.00
-0.28
-1.84
-3.77
-6.02
-8.44
-10.81
-12.96
-14.84
-16.56
-18.32
-20.41
-23.09
-26.45
-30.41
-34.64
-38.68
-41.97
-44.05
-44.55
-43.31
-40.29
-35.63
-29.54
-22.36
-14.52
-6.44
1.50
9.03
15.97
22.20
27.54
31.77
34.74
36.45
37.07
36.91
36.32
35.53
34.65
33.73
32.80
31.92
31.11
30.37
29.58
28.58
27.25
25.54
23.53
21.38
19.24
17.22
15.37
13.62
11.89
10.04
7.99
5.72
3.24
0.64
-1.98
-4.46
-6.69
-8.58
-10.14
-11.50
-12.88
-14.48
-16.45
-18.79
-21.45
-24.34
-27.40
-30.58
-33.78
-36.76
-39.09
-40.26
-39.82
-37.54
-33.47
-27.96
-21.54
-14.72
-7.92
-1.40
4.69
10.22
15.03
18.91
21.67
23.24
23.77
23.58
23.01
22.38
21.80
21.23
20.51
19.55
18.34
17.05
15.88
14.98
14.33
13.75
12.97
11.76
10.05
7.97
5.79
3.74
1.97
0.42
-1.03
-2.53
-4.10
-5.66
-7.10
-8.34
-9.42
-10.43
-11.49
-12.69
-14.08
-15.77
-17.89
-20.65
-24.13
-28.15
-32.25
-35.74
-37.87
-38.13
-36.31
-32.60
-27.41
-21.23
-14.55
-7.78
-1.26
4.79
10.22
15.00
19.19
22.83
25.90
28.30
29.90
30.65
30.66
30.13
29.40
28.72
28.24
27.93
27.63
27.08
26.03
24.33
21.94
19.01
15.82
12.65
9.73
7.14
4.88
2.92
1.24
-0.11
-1.09
-1.75
-2.25
-2.91
-4.08
-6.04
-8.86
-12.39
-16.26
-20.01
-23.30
-25.94
-28.00
-29.78
-31.63
-33.83
-36.42
-39.15
-41.51
-42.93
-42.90
-41.23
-38.00
-33.51
-28.09
-22.00
-15.40
-8.40
-1.16
6.09
13.02
19.31
24.67
28.88
31.85
33.59
34.24
34.06
33.36
32.42
31.45
30.49
29.50
28.39
27.08
25.59
23.98
22.37
20.86
19.51
18.30
17.14
15.89
14.42
12.69
10.75
8.71
6.66
4.66
2.71
0.76
-1.21
-3.22
-5.30
-7.47
-9.75
-12.11
-14.46
-16.72
-18.87
-21.07
-23.55
-26.57
-30.20
-34.23
-38.21
-41.53
-43.65
-44.15
-42.86
-39.72
-34.93
-28.77
-21.75
-14.39
-7.17
-0.41
5.82
11.55
16.81
21.48
25.34
28.13
29.75
30.30
30.03
29.27
28.26
27.15
25.96
24.69
23.37
22.10
20.96
20.02
19.22
18.41
17.39
16.04
14.37
12.54
10.75
9.20
7.93
6.90
5.92
4.80
3.41
1.66
-0.41
-2.77
-5.31
-7.95
-10.65
-13.35
-16.08
-18.87
-21.79
-24.90
-28.31
-32.04
-35.99
-39.78
-42.78
-44.25
-43.56
-40.49
-35.29
-28.60
-21.20
-13.74
-6.59
0.14
6.40
12.12
17.11
21.13
24.02
25.78
26.52
26.47
25.83
24.77
23.41
21.87
20.28
18.85
17.72
16.98
16.52
16.11
15.42
14.21
12.43
10.20
7.80
5.50
3.49
1.81
0.41
-0.86
-2.13
-3.51
-5.13
-7.05
-9.21
-11.45
-13.53
-15.33
-16.86
-18.36
-20.13
-22.45
-25.40
-28.88
-32.57
-36.12
-39.13
-41.18
-41.91
-41.03
-38.40
-34.07
-28.28
-21.41
-13.89
-6.15
1.49
8.74
15.37
21.07
25.55
28.54
29.97
30.00
29.03
27.60
26.18
25.03
24.14
23.37
22.55
21.61
20.61
19.61
18.64
17.61
16.42
15.00
13.33
11.45
9.39
7.19
4.89
2.55
0.26
-1.91
-3.91
-5.78
-7.53
-9.23
-10.86
-12.38
-13.70
-14.78
-15.64
-16.37
-17.23
-18.53
-20.62
-23.75
-27.97
-33.02
-38.35
-43.15
-46.59
-47.91
-46.67
-42.86
-36.84
-29.31
-21.08
-12.80
-4.85
2.67
9.80
16.56
22.76
28.09
32.22
34.93
36.28
36.57
36.23
35.67
35.19
34.85
34.54
34.05
33.18
31.82
30.02
27.97
25.86
23.85
21.98
20.26
18.65
17.16
15.79
14.53
13.27
11.86
10.18
8.13
5.74
3.07
0.24
-2.64
-5.46
-8.15
-10.67
-13.04
-15.38
-17.80
-20.43
-23.36
-26.61
-30.17
-33.95
-37.70
-41.03
-43.41
-44.24
-43.10
-39.82
-34.60
-27.89
-20.32
-12.44
-4.66
2.77
9.72
16.03
21.44
25.66
28.41
29.63
29.53
28.53
27.16
25.85
24.77
23.94
23.24
22.55
21.84
21.12
20.40
19.62
18.70
17.58
16.27
14.85
13.38
11.90
10.36
8.74
7.00
5.19
3.31
1.37
-0.66
-2.80
-5.04
-7.34
-9.64
-11.96
-14.35
-16.84
-19.43
-22.08
-24.77
-27.55
-30.55
-33.85
-37.32
-40.56
-42.92
-43.74
-42.51
-39.09
-33.70
-26.84
-19.12
-11.15
-3.41
3.79
10.29
16.04
21.03
25.18
28.38
30.52
31.59
31.77
31.34
30.61
29.75
28.76
27.51
25.93
24.05
22.07
20.26
18.79
17.63
16.61
15.50
14.15
12.56
10.88
9.28
7.87
6.64
5.48
4.29
2.97
1.47
-0.21
-2.10
-4.22
-6.53
-8.98
-11.47
-13.92
-16.32
-18.72
-21.21
-23.84
-26.67
-29.71
-32.91
-36.12
-39.01
-41.03
-41.47
-39.80
-35.79
-29.74
-22.32
-14.37
-6.57
0.72
7.45
13.64
19.23
24.01
27.70
30.14
31.41
31.80
31.65
31.23
30.61
29.71
28.44
26.86
25.12
23.52
22.28
21.51
21.16
21.00
20.75
20.23
19.29
17.91
16.18
14.23
12.21
10.29
8.57
7.03
5.53
3.85
1.88
-0.37
-2.79
-5.19
-7.50
-9.79
-12.21
-14.89
-17.79
-20.77
-23.67
-26.40
-29.12
-32.02
-35.20
-38.50
-41.44
-43.40
-43.76
-42.14
-38.52
-33.17
-26.62
-19.43
-12.11
-5.03
1.63
7.75
13.20
17.80
21.35
23.73
25.01
25.49
25.56
25.54
25.55
25.50
25.13
24.27
22.90
21.25
19.60
18.25
17.31
16.69
16.16
15.48
14.49
13.23
11.87
10.59
9.52
8.62
7.75
6.71
5.32
3.50
1.16
-1.69
-5.08
-8.85
-12.74
-16.42
-19.58
-22.09
-24.11
-26.00
-28.22
-31.10
-34.73
-38.89
-43.11
-46.75
-49.15
-49.80
-48.40
-44.96
-39.68
-32.91
-25.08
-16.59
-7.92
0.42
7.85
13.88
18.15
20.61
21.52
21.41
20.90
20.45
20.36
20.58
20.92
21.06
20.81
20.10
19.02
17.75
16.49
15.39
14.51
13.86
13.40
12.98
12.44
11.64
10.50
9.09
7.52
5.86
4.10
2.12
-0.27
-3.21
-6.69
-10.53
-14.42
-17.96
-20.88
-23.02
-24.43
-25.32
-25.94
-26.48
-26.95
-27.11
-26.53
-24.72
-21.37
-16.45
-10.31
-3.48
3.44
10.00
16.00
21.41
26.27
30.51
33.92
36.24
37.34
37.38
36.71
35.80
34.86
33.81
32.29
29.87
26.39
22.02
17.26
12.66
8.61
5.18
2.28
-0.23
-2.34
-3.87
-4.58
-4.34
-3.27
-1.75
-0.25
0.80
1.17
0.88
0.09
-1.08
-2.56
-4.46
-6.92
-10.00
-13.65
-17.64
-21.69
-25.47
-28.74
-31.32
-33.10
-33.93
-33.61
-32.01
-29.06
-24.95
-20.06
-14.96
-10.17
-6.02
-2.56
0.37
3.02
5.60
8.16
10.66
13.02
15.22
17.26
19.08
20.53
21.34
21.25
20.05
17.86
15.08
12.30
10.17
9.15
9.34
10.49
12.06
13.43
14.12
13.88
12.70
10.74
8.17
5.14
1.76
-1.85
-5.48
-8.89
-11.83
-14.18
-15.97
-17.43
-18.88
-20.69
-23.06
-26.08
-29.65
-33.58
-37.58
-41.31
-44.37
-46.32
-46.74
-45.30
-41.86
-36.50
-29.52
-21.42
-12.79
-4.24
3.71
10.64
16.30
20.55
23.38
24.89
25.27
24.78
23.77
22.57
21.48
20.72
20.39
20.44
20.76
21.11
21.28
21.02
20.19
18.73
16.71
14.25
11.55
8.74
5.89
3.02
0.08
-2.91
-5.87
-8.70
-11.28
-13.54
-15.49
-17.13
-18.48
-19.61
-20.61
-21.74
-23.30
-25.65
-28.91
-32.85
-36.84
-40.03
-41.61
-41.11
-38.57
-34.36
-29.04
-23.08
-16.71
-9.98
-2.88
4.48
11.83
18.69
24.59
29.10
32.01
33.34
33.34
32.43
31.11
29.84
28.85
28.15
27.56
26.86
25.91
24.69
23.31
21.86
20.34
18.62
16.58
14.14
11.40
8.51
5.62
2.80
0.06
-2.63
-5.21
-7.59
-9.71
-11.58
-13.31
-15.04
-16.82
-18.57
-20.17
-21.52
-22.66
-23.84
-25.34
-27.45
-30.19
-33.32
-36.35
-38.60
-39.35
-38.08
-34.58
-29.05
-22.02
-14.15
-6.03
1.99
9.72
17.10
24.02
30.23
35.44
39.42
42.11
43.62
44.19
44.06
43.44
42.49
41.30
39.98
38.52
36.87
34.90
32.54
29.81
26.88
24.00
21.39
19.21
17.46
16.04
14.73
13.29
11.43
8.94
5.69
1.77
-2.49
-6.66
-10.28
-13.17
-15.42
-17.43
-19.68
-22.53
-26.03
-29.98
-34.04
-37.91
-41.39
-44.40
-46.83
-48.46
-48.96
-47.97
-45.24
-40.75
-34.68
-27.34
-19.04
-10.14
-0.98
7.95
16.02
22.54
27.00
29.20
29.44
28.40
26.86
25.52
24.68
24.32
24.17
23.94
23.47
22.70
21.64
20.33
18.75
16.95
15.01
13.05
11.21
9.59
8.17
6.84
5.43
3.80
1.86
-0.40
-2.91
-5.58
-8.32
-11.07
-13.79
-16.53
-19.36
-22.37
-25.62
-29.08
-32.59
-35.90
-38.60
-40.26
-40.45
-38.85
-35.32
-29.97
-23.16
-15.41
-7.33
0.59
7.97
14.60
20.36
25.11
28.71
31.02
32.01
31.77
30.55
28.73
26.75
24.97
23.62
22.77
22.34
22.16
22.03
21.82
21.46
20.94
20.23
19.36
18.30
17.07
15.75
14.45
13.30
12.35
11.56
10.73
9.60
7.90
5.48
2.32
-1.49
-5.75
-10.27
-14.92
-19.63
-24.40
-29.23
-34.03
-38.56
-42.43
-45.17
-46.34
-45.72
-43.35
-39.48
-34.50
-28.80
-22.69
-16.40
-10.10
-3.94
1.95
7.44
12.41
16.76
20.37
23.13
24.97
25.89
26.00
25.46
24.45
23.12
21.57
19.88
18.11
16.38
14.88
13.82
13.34
13.50
14.15
14.98
15.56
15.52
14.64
12.95
10.65
8.04
5.29
2.46
-0.54
-3.75
-7.18
-10.73
-14.24
-17.58
-20.71
-23.67
-26.55
-29.47
-32.50
-35.68
-38.99
-42.33
-45.48
-48.07
-49.65
-49.83
-48.40
-45.32
-40.77
-34.97
-28.18
-20.59
-12.49
-4.19
3.91
11.42
18.07
23.74
28.45
32.28
35.28
37.42
38.69
39.15
38.97
38.44
37.80
37.21
36.64
35.95
34.84
33.03
30.29
26.57
22.01
16.98
11.94
7.35
3.56
0.73
-1.14
-2.20
-2.63
-2.70
-2.70
-2.93
-3.69
-5.14
-7.30
-10.02
-13.09
-16.32
-19.62
-23.02
-26.56
-30.28
-34.07
-37.68
-40.71
-42.68
-43.15
-41.82
-38.55
-33.48
-26.88
-19.19
-10.91
-2.56
5.34
12.32
18.02
22.24
24.97
26.43
27.00
27.13
27.14
27.18
27.13
26.75
25.81
24.27
22.29
20.18
18.28
16.74
15.51
14.42
13.28
12.03
10.67
9.21
7.57
5.62
3.25
0.48
-2.43
-5.10
-7.14
-8.33
-8.65
-8.32
-7.67
-7.08
-6.92
-7.54
-9.20
-12.09
-16.24
-21.51
-27.53
-33.71
-39.25
-43.27
-45.02
-44.06
-40.46
-34.73
-27.64
-19.97
-12.21
-4.53
3.10
10.75
18.28
25.36
31.55
36.45
39.88
41.85
42.57
42.32
41.32
39.75
37.77
35.50
33.18
31.09
29.47
28.49
28.10
28.07
28.07
27.75
26.87
25.36
23.24
20.56
17.32
13.54
9.27
4.71
0.20
-3.87
-7.20
-9.78
-11.91
-14.10
-16.87
-20.61
-25.38
-31.00
-37.15
-43.43
-49.40
-54.55
-58.30
-60.08
-59.47
-56.30
-50.85
-43.72
-35.67
-27.37
-19.20
-11.30
-3.60
3.89
10.99
17.36
22.64
26.60
29.31
31.06
32.28
33.27
34.08
34.54
34.37
33.34
31.47
28.98
26.19
23.39
20.70
18.05
15.26
12.17
8.80
5.29
1.85
-1.37
-4.35
-7.20
-10.08
-13.05
-16.08
-19.05
-21.83
-24.35
-26.70
-29.05
-31.67
-34.74
-38.28
-42.04
-45.49
-47.96
-48.86
-47.83
-44.79
-39.98
-33.77
-26.51
-18.53
-10.11
-1.52
6.90
14.77
21.68
27.29
31.36
33.84
34.89
34.82
34.04
32.93
31.74
30.58
29.45
28.34
27.27
26.28
25.44
24.66
23.86
22.87
21.58
19.98
18.16
16.26
14.41
12.64
10.87
8.99
6.90
4.59
2.11
-0.45
-3.03
-5.61
-8.16
-10.63
-12.96
-15.05
-16.94
-18.79
-20.81
-23.19
-26.02
-29.27
-32.86
-36.72
-40.78
-44.84
-48.52
-51.27
-52.50
-51.73
-48.75
-43.69
-36.87
-28.71
-19.69
-10.26
-0.88
8.01
16.04
22.94
28.56
32.86
35.84
37.59
38.30
38.25
37.77
37.17
36.59
36.03
35.34
34.39
33.15
31.75
30.30
28.88
27.45
25.82
23.81
21.36
18.57
15.63
12.75
10.04
7.51
5.09
2.67
0.20
-2.36
-5.00
-7.70
-10.40
-12.91
-15.02
-16.43
-16.94
-16.55
-15.48
-14.16
-13.07
-12.62
-13.06
-14.47
-16.81
-19.93
-23.59
-27.42
-30.91
-33.47
-34.56
-33.83
-31.25
-27.01
-21.47
-15.06
-8.15
-1.03
6.03
12.76
18.91
24.28
28.75
32.30
34.95
36.81
38.01
38.62
38.72
38.32
37.36
35.85
33.76
31.19
28.29
25.31
22.52
20.20
18.60
17.88
18.08
19.02
20.34
21.48
21.85
21.01
18.80
15.40
11.23
6.78
2.43
-1.56
-5.10
-8.11
-10.55
-12.39
-13.76
-14.93
-16.23
-17.99
-20.39
-23.37
-26.77
-30.39
-34.12
-37.90
-41.57
-44.78
-46.97
-47.52
-45.93
-42.06
-36.10
-28.54
-20.01
-11.10
-2.39
5.59
12.34
17.35
20.36
21.40
20.88
19.49
17.99
16.94
16.54
16.68
16.98
17.09
16.77
16.01
14.96
13.82
12.69
11.65
10.68
9.79
8.98
8.25
7.55
6.80
5.91
4.85
3.70
2.60
1.70
1.01
0.42
-0.29
-1.29
-2.67
-4.35
-6.13
-7.87
-9.50
-11.08
-12.74
-14.61
-16.77
-19.22
-21.87
-24.54
-26.96
-28.76
-29.52
-28.87
-26.66
-22.95
-18.09
-12.57
-6.84
-1.23
4.08
9.01
13.45
17.20
20.00
21.58
21.83
20.88
19.11
16.99
14.96
13.29
11.99
10.92
9.83
8.51
6.88
4.96
2.86
0.69
-1.42
-3.43
-5.28
-6.88
-8.18
-9.13
-9.77
-10.22
-10.64
-11.17
-11.91
-12.90
-14.13
-15.60
-17.30
-19.26
-21.48
-23.92
-26.55
-29.32
-32.16
-34.99
-37.70
-40.07
-41.84
-42.73
-42.50
-41.03
-38.28
-34.29
-29.23
-23.30
-16.78
-9.94
-3.11
3.38
9.17
13.94
17.48
19.76
20.95
21.41
21.52
21.60
21.77
22.02
22.25
22.43
22.59
22.81
23.11
23.43
23.61
23.51
22.97
21.90
20.26
18.06
15.49
12.83
10.43
8.56
7.27
6.34
5.35
3.91
1.83
-0.80
-3.68
-6.51
-9.21
-11.88
-14.79
-18.15
-22.03
-26.26
-30.51
-34.37
-37.43
-39.37
-39.92
-38.96
-36.44
-32.46
-27.19
-20.97
-14.15
-7.09
-0.12
6.54
12.70
18.17
22.75
26.21
28.45
29.53
29.75
29.51
29.20
29.04
29.01
28.95
28.58
27.72
26.31
24.42
22.20
19.90
17.74
15.91
14.51
13.56
12.90
12.31
11.57
10.52
9.12
7.44
5.59
3.64
1.63
-0.50
-2.80
-5.33
-8.03
-10.82
-13.58
-16.29
-18.97
-21.80
-24.98
-28.65
-32.77
-37.04
-40.89
-43.66
-44.71
-43.68
-40.49
-35.37
-28.67
-20.75
-11.95
-2.63
6.75
15.61
23.29
29.26
33.25
35.38
36.04
35.77
34.98
33.91
32.63
31.15
29.59
28.19
27.22
26.83
26.94
27.19
27.12
26.30
24.59
22.11
19.24
16.38
13.81
11.65
9.73
7.83
5.67
3.10
0.08
-3.31
-6.98
-10.85
-14.84
-18.83
-22.69
-26.19
-29.23
-31.86
-34.33
-36.97
-40.01
-43.34
