1.593436174000000000e+09
-2.999999999999999889e-02
5.059999999999999609e+00
1.791000000000000014e+01
7.934000000000000341e+01
2.282500000000000000e+02
-4.865000000000000000e+02
-5.900000000000000355e+00
1.561500000000000057e+02
4.678000000000000114e+01
4.049999999999999822e+00
1.799999999999999933e-01
-4.000000000000000083e-02
-6.300000000000000044e-01
1.400000000000000133e-01
-1.055000000000000071e+01
2.959999999999999964e+00
3.140000000000000124e+00
-1.011999999999999922e+01
4.589999999999999858e+00
8.880000000000000782e+00
-2.000200000000000102e+02
1.311699999999999875e+02
9.187999999999999545e+01
-8.278000000000000114e+01
-3.442999999999999972e+01
-5.335999999999999943e+01
5.963000000000000256e+01
1.685999999999999943e+02
7.473999999999999488e+01
1.060499999999999972e+02
-2.155600000000000023e+02
1.270000000000000000e+02
2.969000000000000128e+01
8.629000000000000625e+01
8.820000000000000284e+00
6.207000000000000028e+01
-4.746000000000000085e+01
6.490000000000000568e+01
8.619999999999999218e+00
-5.347999999999999687e+01
-5.757000000000000028e+01
1.155999999999999943e+02
-3.524000000000000199e+01
-5.682999999999999829e+01
3.674000000000000199e+01
-1.793000000000000114e+02
2.292400000000000091e+02
-1.778000000000000114e+01
-6.704999999999999716e+01
-7.656000000000000227e+01
2.062000000000000099e+01
8.759999999999999787e+00
-4.449000000000000199e+01
-2.183999999999999986e+01
-3.975999999999999801e+01
-5.693999999999999773e+01
-2.432000000000000028e+01
2.621999999999999886e+01
-7.853000000000000114e+01
5.089999999999999858e+00
3.035999999999999943e+01
-1.300000000000000044e-01
-8.320000000000000284e+00
-1.655000000000000071e+01
7.559999999999999609e+00
-3.221000000000000085e+01
-1.425000000000000000e+01
-7.435999999999999943e+01
7.704999999999999716e+01
-1.203999999999999915e+01
4.017000000000000171e+01
6.917000000000000171e+01
1.035300000000000011e+02
6.211999999999999744e+01
9.259999999999999432e+01
-1.122399999999999949e+02
-6.490999999999999659e+01
3.582000000000000028e+01
-7.959999999999999432e+01
-5.730000000000000426e+00
-1.808999999999999986e+01
-7.965000000000000568e+01
6.526000000000000512e+01
2.000000000000000000e+00
-7.865000000000000568e+01
9.619999999999999218e+00
4.771999999999999886e+01
-1.368999999999999950e+01
-3.073000000000000043e+01
1.771000000000000085e+01
-1.517999999999999972e+01
7.281000000000000227e+01
1.082600000000000051e+02
2.033000000000000114e+02
-2.911899999999999977e+02
-2.713600000000000136e+02
1.931999999999999886e+02
1.990399999999999920e+02
-2.986299999999999955e+02
-3.240999999999999659e+01
-3.006399999999999864e+02
-2.566899999999999977e+02
2.736600000000000250e+02
1.585600000000000023e+02
1.395200000000000102e+02
9.854000000000000625e+01
-3.371600000000000250e+02
-8.540999999999999659e+01
5.009999999999999787e+00
-7.076000000000000512e+01
-8.931999999999999318e+01
1.113799999999999955e+02
9.781000000000000227e+01
-5.000000000000000000e+01
4.542999999999999972e+01
6.643000000000000682e+01
-1.705000000000000071e+01
7.719999999999999751e+00
2.010200000000000102e+02
-1.253799999999999955e+02
-5.635000000000000142e+01
-3.285000000000000142e+01
-1.575999999999999979e+01
-3.893999999999999773e+01
-3.325999999999999801e+01
-2.114999999999999858e+01
5.513000000000000256e+01
4.770000000000000284e+01
1.059300000000000068e+02
1.090900000000000034e+02
-1.010300000000000011e+02
-5.542000000000000171e+01
7.279000000000000625e+01
-1.461500000000000057e+02
1.805000000000000000e+02
8.734000000000000341e+01
-1.230600000000000023e+02
-5.996999999999999886e+01
8.301999999999999602e+01
-3.752000000000000313e+01
-1.325200000000000102e+02
3.249000000000000199e+01
-2.137000000000000099e+01
-5.910000000000000142e+01
5.271999999999999886e+01
-1.914999999999999858e+01
-1.125499999999999972e+02
3.528999999999999915e+01
3.900999999999999801e+01
-1.062399999999999949e+02
2.591000000000000014e+01
1.851100000000000136e+02
-1.159999999999999920e+00
4.539999999999999858e+01
6.940000000000000391e+00
3.492999999999999972e+01
9.009999999999999787e+00
1.521200000000000045e+02
4.528000000000000114e+01
-1.695900000000000034e+02
5.309999999999999609e+00
2.007999999999999829e+01
-2.422700000000000102e+02
1.347700000000000102e+02
-5.000000000000000000e-01
-1.308999999999999986e+01
5.999000000000000199e+01
4.429999999999999716e+01
-4.906000000000000227e+01
7.549999999999999822e+00
1.891000000000000014e+01
-2.728000000000000114e+01
-2.180999999999999872e+01
5.207000000000000028e+01
7.150000000000000355e+00
-5.530000000000000249e+00
9.970000000000000639e+00
2.951999999999999957e+01
-7.500000000000000000e+00
1.842000000000000171e+01
-2.569999999999999840e+00
-2.617000000000000171e+01
2.158999999999999986e+01
1.290000000000000036e+01
-1.356000000000000050e+01
-1.762000000000000099e+01
1.942000000000000171e+01
-2.799999999999999822e+00
-1.830999999999999872e+01
2.353000000000000114e+01
-5.699999999999999512e-01
-1.773999999999999844e+01
-2.290000000000000036e+00
1.511999999999999922e+01
-5.330000000000000071e+00
-1.967000000000000171e+01
1.563000000000000078e+01
6.599999999999999645e+00
8.299999999999999600e-01
-8.499999999999999778e-01
-2.770000000000000018e+00
2.040000000000000036e+00
-1.932999999999999829e+01
1.425999999999999979e+01
-4.550000000000000000e+01
3.942000000000000171e+01
9.026999999999999602e+01
-1.835999999999999943e+01
-3.989000000000000057e+01
9.869999999999999218e+00
-1.523000000000000043e+01
-3.518999999999999773e+01
4.059999999999999609e+00
1.040000000000000036e+01
1.709999999999999964e+00
1.209999999999999964e+00
1.056200000000000045e+02
-7.915000000000000568e+01
-5.259000000000000341e+01
3.187999999999999901e+01
-2.519000000000000128e+01
-3.531000000000000227e+01
-7.000000000000000000e+00
8.232999999999999829e+01
-4.631000000000000227e+01
-4.803999999999999915e+01
2.078000000000000114e+01
1.423000000000000043e+01
-1.241999999999999993e+01
-5.830000000000000071e+00
2.392999999999999972e+01
5.410000000000000142e+00
-2.601000000000000156e+01
4.127000000000000313e+01
8.764000000000000057e+01
3.410999999999999943e+01
-1.223199999999999932e+02
-5.685999999999999943e+01
1.023000000000000043e+01
-2.764999999999999858e+01
3.895000000000000284e+01
2.939999999999999947e+00
-1.467999999999999972e+01
6.040000000000000036e+00
3.103999999999999915e+01
7.610000000000000320e+00
-2.187000000000000099e+01
2.237999999999999901e+01
9.820000000000000284e+00
-5.009999999999999787e+00
-1.667999999999999972e+01
6.780000000000000249e+00
-5.200000000000000178e-01
-2.032999999999999829e+01
4.232999999999999829e+01
8.119999999999999218e+00
-2.908999999999999986e+01
3.279999999999999805e+00
5.085000000000000142e+01
1.787000000000000099e+01
3.720000000000000284e+01
1.766200000000000045e+02
-2.919999999999999929e+00
-3.895000000000000000e+02
1.458799999999999955e+02
1.016500000000000057e+02
4.349000000000000199e+01
-3.749000000000000199e+01
-6.484000000000000341e+01
-3.903999999999999915e+01
2.655000000000000071e+01
7.423999999999999488e+01
-1.188100000000000023e+02
4.095000000000000284e+01
1.841000000000000014e+01
-2.876000000000000156e+01
1.601999999999999957e+01
1.436399999999999864e+02
6.049999999999999822e+00
2.344000000000000128e+01
-1.341599999999999966e+02
-5.607000000000000028e+01
-4.199999999999999845e-01
7.845000000000000284e+01
7.878000000000000114e+01
7.104000000000000625e+01
6.667000000000000171e+01
-4.427000000000000313e+01
-3.325999999999999801e+01
2.396000000000000085e+01
-3.260000000000000142e+01
-6.056000000000000227e+01
4.580000000000000071e+00
-1.189000000000000057e+01
-2.114000000000000057e+01
-4.699999999999999734e-01
-7.440000000000000391e+00
-9.480000000000000426e+00
-1.341000000000000014e+01
7.476999999999999602e+01
-2.925099999999999909e+02
1.926000000000000156e+01
1.050100000000000051e+02
-1.334300000000000068e+02
5.020000000000000284e+01
1.918799999999999955e+02
-1.334399999999999977e+02
-5.446999999999999886e+01
3.389999999999999858e+01
8.904999999999999716e+01
4.582999999999999829e+01
-5.628000000000000114e+01
1.742000000000000171e+01
-2.405000000000000071e+01
-8.775000000000000000e+01
-2.316800000000000068e+02
1.212000000000000028e+02
2.382199999999999989e+02
1.908999999999999986e+01
-1.160699999999999932e+02
-4.109000000000000341e+01
-6.456999999999999318e+01
2.366000000000000014e+01
9.484999999999999432e+01
1.404000000000000057e+02
-5.739000000000000057e+01
-8.281000000000000227e+01
7.990000000000000213e+00
-4.682999999999999829e+01
-1.264000000000000057e+01
5.797999999999999687e+01
2.726999999999999957e+01
-4.113000000000000256e+01
-1.509999999999999964e+01
3.640999999999999659e+01
4.139999999999999680e+00
-3.782000000000000028e+01
6.364000000000000057e+01
-9.101000000000000512e+01
-9.135999999999999943e+01
-2.917999999999999972e+01
6.378000000000000114e+01
6.171999999999999886e+01
-4.531000000000000227e+01
5.675999999999999801e+01
2.210000000000000142e+01
3.442000000000000171e+01
5.513000000000000256e+01
-8.919999999999999929e+00
-6.280000000000000249e+00
2.016000000000000014e+01
-2.171000000000000085e+01
-1.208599999999999994e+02
1.757800000000000011e+02
1.387199999999999989e+02
-1.156200000000000045e+02
-8.615999999999999659e+01
6.006000000000000227e+01
1.061800000000000068e+02
-2.494499999999999886e+02
1.820000000000000062e+00
2.807999999999999829e+01
-4.028000000000000114e+01
1.107300000000000040e+02
1.368600000000000136e+02
-3.375000000000000000e+01
2.387999999999999901e+01
-1.101099999999999994e+02
5.089999999999999858e+00
-1.513000000000000078e+01
3.725000000000000000e+01
5.200000000000000000e+01
6.174000000000000199e+01
-6.837000000000000455e+01
-1.426299999999999955e+02
-7.681000000000000227e+01
1.350600000000000023e+02
-1.806399999999999864e+02
1.577999999999999936e+01
3.281000000000000227e+01
4.218999999999999773e+01
1.832999999999999829e+01
-7.820000000000000284e+00
5.539999999999999858e+01
-7.564000000000000057e+01
9.529999999999999361e+00
-5.435999999999999943e+01
6.006000000000000227e+01
4.322999999999999687e+01
5.790000000000000036e+00
2.351000000000000156e+01
-6.092999999999999972e+01
6.504999999999999716e+01
9.543000000000000682e+01
-3.252000000000000313e+01
-9.368000000000000682e+01
5.693999999999999773e+01
7.278000000000000114e+01
6.693000000000000682e+01
-3.886999999999999744e+01
-1.786200000000000045e+02
4.210999999999999943e+01
-2.776000000000000156e+01
1.922599999999999909e+02
3.607999999999999829e+01
-1.219300000000000068e+02
-4.624000000000000199e+01
-8.728000000000000114e+01
1.151999999999999957e+01
1.156000000000000050e+01
-4.264000000000000057e+01
6.498999999999999488e+01
5.792999999999999972e+01
3.169999999999999929e+00
4.949000000000000199e+01
-2.214999999999999858e+01
-8.259999999999999787e+00
4.929999999999999716e+01
4.439999999999999858e+01
4.299999999999999822e+00
5.152000000000000313e+01
-7.092000000000000171e+01
-2.635999999999999943e+01
4.470000000000000284e+01
3.459999999999999964e+00
-4.611999999999999744e+01
2.967999999999999972e+01
1.466000000000000014e+01
-2.476999999999999957e+01
-3.089999999999999858e+00
2.312000000000000099e+01
4.492000000000000171e+01
5.182999999999999829e+01
-9.448000000000000398e+01
-5.293999999999999773e+01
-2.078999999999999915e+01
-1.058000000000000007e+01
5.799999999999999600e-01
-1.712000000000000099e+01
5.089999999999999858e+00
1.971999999999999886e+01
1.642999999999999972e+01
5.015999999999999659e+01
1.674300000000000068e+02
-2.333400000000000034e+02
-3.011999999999999886e+02
2.089399999999999977e+02
2.407400000000000091e+02
-6.743000000000000682e+01
-4.535999999999999943e+01
-1.027800000000000011e+02
3.229999999999999716e+01
4.482999999999999829e+01
4.100999999999999801e+01
-2.990000000000000213e+00
1.530000000000000071e+01
-4.389999999999999680e+00
-2.444000000000000128e+01
5.050999999999999801e+01
4.117000000000000171e+01
-9.256999999999999318e+01
1.291999999999999993e+01
-6.934000000000000341e+01
-8.031999999999999318e+01
1.524600000000000080e+02
-1.931699999999999875e+02
6.837000000000000455e+01
-5.160000000000000142e+01
-6.030000000000000249e+00
4.325000000000000000e+01
5.372999999999999687e+01
3.614999999999999858e+01
-1.601000000000000156e+01
-2.541000000000000014e+01
7.670999999999999375e+01
2.967000000000000171e+01
3.485999999999999943e+01
1.200999999999999979e+01
-5.786999999999999744e+01
2.714999999999999858e+01
5.532999999999999829e+01
-7.099999999999999645e+00
2.905000000000000071e+01
-2.459999999999999964e+00
-2.610000000000000142e+01
3.749000000000000199e+01
1.855000000000000071e+01
-7.360000000000000320e+00
7.549999999999999822e+00
1.775000000000000000e+01
-2.028000000000000114e+01
-6.798000000000000398e+01
2.030999999999999872e+01
2.598999999999999844e+01
-1.131000000000000050e+01
3.529999999999999805e+00
-4.653000000000000114e+01
-3.332999999999999829e+01
8.281999999999999318e+01
6.968999999999999773e+01
-3.406000000000000227e+01
-5.588000000000000256e+01
-2.583999999999999986e+01
3.158999999999999986e+01
5.746999999999999886e+01
-2.003999999999999915e+01
-8.095000000000000284e+01
6.818999999999999773e+01
1.495099999999999909e+02
-1.377299999999999898e+02
-7.359000000000000341e+01
3.684000000000000341e+01
1.692999999999999972e+01
-3.864000000000000057e+01
-4.368999999999999773e+01
7.007999999999999829e+01
2.055699999999999932e+02
-1.682599999999999909e+02
-1.266800000000000068e+02
1.249399999999999977e+02
-1.007000000000000028e+02
2.698000000000000043e+01
6.426000000000000512e+01
5.589999999999999858e+00
-6.637000000000000455e+01
-5.327000000000000313e+01
1.604699999999999989e+02
-7.709999999999999432e+01
6.709999999999999964e+00
-1.203999999999999915e+01
6.581000000000000227e+01
-2.053000000000000114e+01
-8.621999999999999886e+01
2.343300000000000125e+02
-6.968000000000000682e+01
3.878000000000000114e+01
-1.849099999999999966e+02
-6.178999999999999915e+01
1.422100000000000080e+02
-6.060000000000000142e+01
-3.575000000000000000e+01
9.243000000000000682e+01
3.257000000000000028e+01
-6.980000000000000426e+00
-1.289900000000000091e+02
1.405300000000000011e+02
5.071000000000000085e+01
-9.651000000000000512e+01
-8.000000000000000167e-02
6.568999999999999773e+01
7.785999999999999943e+01
2.358999999999999986e+01
1.578600000000000136e+02
-9.629000000000000625e+01
-8.131999999999999318e+01
7.128000000000000114e+01
-3.447699999999999818e+02
8.426999999999999602e+01
2.499000000000000057e+02
2.240399999999999920e+02
-2.482599999999999909e+02
-1.841800000000000068e+02
2.848399999999999750e+02
-3.750000000000000000e+00
-6.125999999999999801e+01
-5.421999999999999886e+01
5.299000000000000199e+01
-1.226800000000000068e+02
-2.008999999999999986e+01
6.937999999999999545e+01
8.220000000000000639e+00
4.264000000000000057e+01
-1.131599999999999966e+02
1.330500000000000114e+02
2.707000000000000028e+01
6.429999999999999716e+00
-1.540000000000000036e+00
-2.105999999999999872e+01
-5.999999999999999778e-01
3.830000000000000071e+00
-3.522999999999999687e+01
3.750000000000000000e+00
5.750000000000000000e+00
-1.234999999999999964e+01
6.610999999999999943e+01
1.282000000000000028e+01
-9.093000000000000682e+01
3.543999999999999773e+01
3.945000000000000284e+01
1.469999999999999929e+01
-3.314000000000000057e+01
-9.830000000000000071e+00
-2.160999999999999943e+01
-1.623000000000000043e+01
-1.105000000000000071e+01
5.719999999999999751e+00
-1.766000000000000014e+01
3.879999999999999893e+00
3.822999999999999687e+01
-1.814999999999999858e+01
6.089999999999999858e+00
9.949999999999999289e+00
-1.301999999999999957e+01
-3.026999999999999957e+01
2.303999999999999915e+01
1.948000000000000043e+01
-1.819999999999999929e+01
4.099999999999999756e-01
8.000000000000000167e-02
-1.530000000000000027e+00
-1.691000000000000014e+01
1.869000000000000128e+01
4.259999999999999787e+00
-8.310000000000000497e+00
-4.118999999999999773e+01
-1.069800000000000040e+02
2.811200000000000045e+02
-1.220000000000000000e+02
3.125899999999999750e+02
-6.204999999999999716e+01
-1.819000000000000057e+02
-1.305200000000000102e+02
5.909000000000000341e+01
2.059900000000000091e+02
-4.816100000000000136e+02
2.322800000000000011e+02
2.285099999999999909e+02
1.856999999999999886e+02
-2.107899999999999920e+02
2.814999999999999858e+01
2.190300000000000011e+02
-6.646999999999999886e+01
-1.683600000000000136e+02
2.266800000000000068e+02
-2.769000000000000128e+01
-2.172700000000000102e+02
-8.428000000000000114e+01
2.562599999999999909e+02
9.060000000000000497e+00
1.276400000000000006e+02
-2.615400000000000205e+02
-1.328199999999999932e+02
1.531200000000000045e+02
5.574299999999999500e+02
-2.028600000000000136e+02
-2.612300000000000182e+02
-1.278700000000000045e+02
5.318999999999999773e+01
2.592000000000000171e+01
-6.581999999999999318e+01
6.676999999999999602e+01
5.410000000000000142e+00
-5.685000000000000142e+01
3.681000000000000227e+01
1.569999999999999929e+01
-3.051999999999999957e+01
1.300000000000000044e+00
1.728000000000000114e+01
-1.725000000000000000e+01
-5.678999999999999915e+01
4.722999999999999687e+01
1.194999999999999929e+01
-3.950999999999999801e+01
2.758999999999999986e+01
1.739999999999999858e+01
-1.692000000000000171e+01
-2.732999999999999829e+01
3.019000000000000128e+01
-3.310000000000000053e+00
-3.842000000000000171e+01
3.614999999999999858e+01
1.792000000000000171e+01
-1.980000000000000071e+01
-2.812000000000000099e+01
3.189000000000000057e+01
4.799999999999999822e-01
-4.128000000000000114e+01
2.982000000000000028e+01
1.542999999999999972e+01
-2.398999999999999844e+01
1.973999999999999844e+01
1.194999999999999929e+01
-2.164999999999999858e+01
-3.232999999999999829e+01
3.460000000000000142e+01
-3.109999999999999876e+00
-6.537999999999999545e+01
4.710999999999999943e+01
2.000000000000000000e+01
-5.279999999999999716e+01
5.132000000000000028e+01
3.564999999999999858e+01
-1.753999999999999915e+01
2.660000000000000142e+00
4.238000000000000256e+01
-3.700000000000000178e+00
-3.692000000000000171e+01
3.892000000000000171e+01
-2.700000000000000178e-01
-5.735999999999999943e+01
5.899000000000000199e+01
-3.453999999999999915e+01
-5.174000000000000199e+01
5.910000000000000142e+01
2.682000000000000028e+01
-4.332000000000000028e+01
4.080000000000000071e+00
3.684000000000000341e+01
5.450000000000000178e+00
-5.892000000000000171e+01
1.753999999999999915e+01
2.430000000000000160e+00
-5.809000000000000341e+01
3.051999999999999957e+01
3.872999999999999687e+01
-2.271000000000000085e+01
2.312000000000000099e+01
6.232999999999999829e+01
5.360000000000000320e+00
-2.816000000000000014e+01
6.798999999999999488e+01
-4.750999999999999801e+01
-7.998000000000000398e+01
5.332000000000000028e+01
-6.830000000000000071e+00
-5.936999999999999744e+01
2.105999999999999872e+01
2.321999999999999886e+01
-2.019000000000000128e+01
-3.217999999999999972e+01
4.150999999999999801e+01
-2.350000000000000089e+00
-6.600000000000000000e+01
4.646999999999999886e+01
1.769000000000000128e+01
-3.246999999999999886e+01
1.680000000000000071e+01
3.317999999999999972e+01
-2.226000000000000156e+01
-4.740999999999999659e+01
5.049000000000000199e+01
1.473000000000000043e+01
-5.888000000000000256e+01
4.164000000000000057e+01
3.217999999999999972e+01
-2.376000000000000156e+01
-4.211999999999999744e+01
4.597999999999999687e+01
4.179999999999999716e+00
-5.909000000000000341e+01
4.700000000000000000e+01
2.882000000000000028e+01
-1.823999999999999844e+01
-3.479999999999999716e+01
3.878000000000000114e+01
1.191999999999999993e+01
-3.820000000000000284e+01
2.501000000000000156e+01
3.035000000000000142e+01
-1.828000000000000114e+01
-6.128999999999999915e+01
5.150000000000000000e+01
2.008999999999999986e+01
-3.108999999999999986e+01
-7.600000000000000089e-01
3.218999999999999773e+01
-3.129999999999999893e+00
-5.764000000000000057e+01
3.434000000000000341e+01
1.757999999999999829e+01
-2.882000000000000028e+01
-7.820000000000000284e+00
4.228000000000000114e+01
-4.199999999999999845e-01
-6.054999999999999716e+01
3.502000000000000313e+01
2.639999999999999858e+01
-1.960000000000000142e+01
-3.770000000000000284e+01
4.200000000000000000e+01
1.006000000000000050e+01
-4.743999999999999773e+01
4.028999999999999915e+01
3.347999999999999687e+01
-1.800000000000000000e+01
-5.100000000000000000e+01
4.515999999999999659e+01
1.266000000000000014e+01
-4.450000000000000000e+01
3.359000000000000341e+01
1.030000000000000027e+00
-1.778000000000000114e+01
-1.789000000000000057e+01
3.993999999999999773e+01
-5.629999999999999893e+00
-1.128499999999999943e+02
5.331000000000000227e+01
3.860999999999999943e+01
1.551999999999999957e+01
-1.885000000000000142e+01
9.160999999999999943e+01
-5.160000000000000142e+00
-1.590999999999999943e+02
3.160999999999999943e+01
7.606000000000000227e+01
1.093999999999999950e+01
-7.442000000000000171e+01
3.886999999999999744e+01
8.890000000000000568e+00
-4.445000000000000284e+01
3.132000000000000028e+01
3.634000000000000341e+01
-1.394999999999999929e+01
-6.254999999999999716e+01
5.153999999999999915e+01
2.371999999999999886e+01
-3.467999999999999972e+01
-1.284999999999999964e+01
4.003000000000000114e+01
-3.859999999999999876e+00
-7.054000000000000625e+01
4.804999999999999716e+01
2.360000000000000142e+01
-2.864999999999999858e+01
-2.526000000000000156e+01
4.677000000000000313e+01
8.900000000000000355e+00
-4.417999999999999972e+01
2.714999999999999858e+01
2.717999999999999972e+01
-2.342999999999999972e+01
-5.550999999999999801e+01
5.028000000000000114e+01
1.962000000000000099e+01
-4.020000000000000284e+01
8.949999999999999289e+00
3.632999999999999829e+01
-5.440000000000000391e+00
-6.331000000000000227e+01
4.545000000000000284e+01
2.044999999999999929e+01
-3.285999999999999943e+01
-1.081000000000000050e+01
3.838000000000000256e+01
-3.109999999999999876e+00
-4.897999999999999687e+01
2.166000000000000014e+01
4.545000000000000284e+01
2.959999999999999964e+00
-6.643999999999999773e+01
3.332999999999999829e+01
3.073999999999999844e+01
-1.391000000000000014e+01
-6.079999999999999716e+01
4.134000000000000341e+01
3.073000000000000043e+01
-1.405000000000000071e+01
-4.943999999999999773e+01
3.178000000000000114e+01
1.785999999999999943e+01
-2.033999999999999986e+01
-2.419000000000000128e+01
-2.980999999999999872e+01
-1.899999999999999911e+00
9.784999999999999432e+01
-6.779999999999999716e+01
9.787000000000000455e+01
-6.795999999999999375e+01
-9.351000000000000512e+01
7.434999999999999432e+01
1.225000000000000000e+01
-9.445999999999999375e+01
4.907000000000000028e+01
-1.266400000000000006e+02
-1.712000000000000099e+01
6.025999999999999801e+01
2.619999999999999929e+01
1.242999999999999972e+01
4.015999999999999659e+01
3.313000000000000256e+01
4.230000000000000426e+00
-1.433999999999999986e+01
2.536800000000000068e+02
-2.445300000000000011e+02
-1.791299999999999955e+02
-6.690000000000000391e+00
4.849000000000000199e+01
1.748999999999999844e+01
6.562000000000000455e+01
3.659000000000000341e+01
-1.882000000000000028e+01
3.425999999999999801e+01
9.801000000000000512e+01
-1.206000000000000050e+01
-2.148000000000000043e+01
1.400099999999999909e+02
3.477099999999999795e+02
-1.281200000000000045e+02
-4.856700000000000159e+02
-6.934999999999999432e+01
-1.213400000000000034e+02
2.744100000000000250e+02
2.048400000000000034e+02
-4.189000000000000057e+01
-1.232099999999999937e+02
-1.666699999999999875e+02
5.696000000000000085e+01
3.185000000000000142e+01
-3.629999999999999893e+00
7.542000000000000171e+01
4.161999999999999744e+01
-1.049000000000000021e+01
3.171999999999999886e+01
4.990999999999999659e+01
1.375000000000000000e+01
-3.142000000000000171e+01
3.832000000000000028e+01
1.992999999999999972e+01
-1.975000000000000000e+01
-3.700000000000000178e+00
2.303000000000000114e+01
-1.290000000000000036e+00
-2.335000000000000142e+01
1.309999999999999964e+01
8.039999999999999147e+00
-1.632000000000000028e+01
-5.690000000000000391e+00
1.138000000000000078e+01
-1.899999999999999911e+00
-2.480999999999999872e+01
1.083000000000000007e+01
7.750000000000000000e+00
-7.769999999999999574e+00
-1.714000000000000057e+01
-1.375000000000000000e+01
-1.455000000000000071e+01
-2.423999999999999844e+01
1.073900000000000006e+02
-1.812999999999999901e+01
1.585000000000000000e+02
2.340300000000000011e+02
-1.799699999999999989e+02
7.500000000000000000e-01
-6.703000000000000114e+01
-1.019099999999999966e+02
1.439000000000000057e+01
-7.059000000000000341e+01
1.093999999999999950e+01
1.837000000000000099e+01
-1.043999999999999950e+01
-2.419999999999999929e+01
7.589999999999999858e+00
1.275000000000000000e+01
-1.876999999999999957e+01
8.400000000000000355e+00
8.099999999999999645e+00
-1.024000000000000021e+01
4.199999999999999845e-01
1.530000000000000071e+01
1.879999999999999893e+00
-2.219999999999999929e+01
2.267000000000000171e+01
1.596000000000000085e+01
-2.035999999999999943e+01
-1.547000000000000064e+01
8.689999999999999503e+00
1.499000000000000021e+01
-3.790000000000000036e+00
1.701000000000000156e+01
1.040000000000000036e+01
1.689999999999999947e+00
-1.083000000000000007e+01
4.160000000000000142e+00
7.089999999999999858e+00
-1.885000000000000142e+01
2.939999999999999947e+00
-1.163000000000000078e+01
3.209999999999999964e+00
6.604000000000000625e+01
1.286299999999999955e+02
1.241599999999999966e+02
-2.938799999999999955e+02
5.886999999999999744e+01
1.984900000000000091e+02
-4.534000000000000341e+01
-2.112000000000000099e+01
-3.542000000000000171e+01
-3.746999999999999886e+01
5.870000000000000107e+00
3.890000000000000124e+00
-1.832000000000000028e+01
-2.009999999999999787e+00
2.182000000000000028e+01
-3.959000000000000341e+01
-5.134000000000000341e+01
2.023999999999999844e+01
-1.800000000000000044e+00
-3.627000000000000313e+01
1.867999999999999972e+01
9.689999999999999503e+00
-1.658999999999999986e+01
-1.542999999999999972e+01
2.746999999999999886e+01
2.819999999999999840e+00
-3.353000000000000114e+01
3.064999999999999858e+01
1.737999999999999901e+01
-1.064000000000000057e+01
-2.994999999999999929e+01
2.246000000000000085e+01
1.860000000000000098e+00
-3.278000000000000114e+01
2.962999999999999901e+01
1.794000000000000128e+01
-1.008000000000000007e+01
-3.942999999999999972e+01
3.200000000000000000e+01
1.803999999999999915e+01
-1.696999999999999886e+01
-6.440000000000000391e+00
1.821000000000000085e+01
-8.419999999999999929e+00
-4.021999999999999886e+01
2.841000000000000014e+01
1.758999999999999986e+01
-1.152999999999999936e+01
4.959999999999999964e+00
1.835000000000000142e+01
4.650000000000000355e+00
-1.764000000000000057e+01
1.787000000000000099e+01
-2.399999999999999911e+00
-2.712000000000000099e+01
2.357000000000000028e+01
1.969999999999999973e+00
-9.730000000000000426e+00
-2.539999999999999858e+01
6.401999999999999602e+01
-7.730000000000000426e+00
-4.003999999999999915e+01
1.484999999999999964e+01
-5.790000000000000036e+00
3.929999999999999716e+01
-2.532999999999999829e+01
5.160000000000000142e+00
-2.720000000000000195e+00
-4.320000000000000284e+01
2.476000000000000156e+01
1.939000000000000057e+01
-1.081000000000000050e+01
-3.563000000000000256e+01
3.553000000000000114e+01
1.361999999999999922e+01
-1.878999999999999915e+01
-1.399999999999999911e+00
1.705000000000000071e+01
-5.660000000000000142e+00
-3.813000000000000256e+01
3.064999999999999858e+01
7.139999999999999680e+00
-2.594000000000000128e+01
-8.400000000000000355e+00
2.839000000000000057e+01
2.709999999999999964e+00
-3.821000000000000085e+01
2.533999999999999986e+01
1.739000000000000057e+01
-1.065000000000000036e+01
-2.119999999999999929e+01
2.028000000000000114e+01
-2.129999999999999893e+00
-3.913000000000000256e+01
2.996999999999999886e+01
1.333000000000000007e+01
-1.564000000000000057e+01
-2.107999999999999829e+01
3.453999999999999915e+01
1.017999999999999972e+01
-3.395000000000000284e+01
2.566000000000000014e+01
1.757999999999999829e+01
-1.196000000000000085e+01
-2.683999999999999986e+01
2.876000000000000156e+01
5.480000000000000426e+00
-2.971000000000000085e+01
2.401000000000000156e+01
2.100000000000000000e+01
-5.190000000000000391e+00
-4.214000000000000057e+01
2.553999999999999915e+01
1.058999999999999986e+01
-2.600000000000000000e+01
4.199999999999999845e-01
1.775000000000000000e+01
-3.209999999999999964e+00
-1.644999999999999929e+01
3.381000000000000227e+01
-1.750000000000000000e+00
-3.132000000000000028e+01
1.066000000000000014e+01
1.206000000000000050e+01
-1.887999999999999901e+01
-1.278999999999999915e+01
2.076000000000000156e+01
-1.127999999999999936e+01
-3.857000000000000028e+01
3.110999999999999943e+01
5.620000000000000107e+00
-2.533999999999999986e+01
2.401999999999999957e+01
2.980999999999999872e+01
-1.316999999999999993e+01
-4.075000000000000000e+01
2.432000000000000028e+01
3.799999999999999822e+00
-4.025999999999999801e+01
3.176999999999999957e+01
1.707000000000000028e+01
-2.439999999999999858e+01
1.949999999999999956e+00
1.488000000000000078e+01
-7.179999999999999716e+00
-4.839999999999999858e+01
3.868999999999999773e+01
3.560000000000000053e+00
-2.655999999999999872e+01
1.801999999999999957e+01
1.550999999999999979e+01
-7.669999999999999929e+00
-2.764000000000000057e+01
3.777000000000000313e+01
9.269999999999999574e+00
-5.829999999999999716e+01
2.930999999999999872e+01
8.800000000000000711e+00
-3.828000000000000114e+01
2.728999999999999915e+01
2.287000000000000099e+01
-1.063000000000000078e+01
-5.172999999999999687e+01
3.825000000000000000e+01
1.563000000000000078e+01
-1.548000000000000043e+01
-2.146999999999999886e+01
3.735999999999999943e+01
1.880000000000000071e+01
-2.676999999999999957e+01
1.233999999999999986e+01
1.268999999999999950e+01
-1.290000000000000036e+00
-2.887000000000000099e+01
1.698999999999999844e+01
-9.130000000000000782e+00
-3.499000000000000199e+01
1.393999999999999950e+01
2.351000000000000156e+01
-6.509999999999999787e+00
-2.096999999999999886e+01
2.894999999999999929e+01
7.440000000000000391e+00
-3.703999999999999915e+01
3.538000000000000256e+01
2.210999999999999943e+01
-2.619000000000000128e+01
-9.849999999999999645e+00
1.978999999999999915e+01
-6.450000000000000178e+00
-4.295000000000000284e+01
3.685999999999999943e+01
5.889999999999999680e+00
-2.457000000000000028e+01
9.759999999999999787e+00
2.732999999999999829e+01
-6.629999999999999893e+00
-5.757000000000000028e+01
1.685999999999999943e+01
3.603999999999999915e+01
-3.439999999999999947e+00
-1.050000000000000000e+01
2.957000000000000028e+01
1.841000000000000014e+01
-1.435999999999999943e+01
1.566999999999999993e+01
-2.680000000000000160e+00
-2.282000000000000028e+01
9.599999999999999645e-01
9.769999999999999574e+00
-1.182000000000000028e+01
-5.132999999999999829e+01
2.919000000000000128e+01
1.191999999999999993e+01
-2.194999999999999929e+01
-5.889999999999999680e+00
2.398000000000000043e+01
1.121000000000000085e+01
-2.671999999999999886e+01
1.448000000000000043e+01
2.140000000000000124e+00
-1.619999999999999929e+01
-5.120000000000000107e+00
1.785000000000000142e+01
-1.360000000000000098e+00
-4.221999999999999886e+01
2.355000000000000071e+01
2.096000000000000085e+01
-1.448000000000000043e+01
-8.689999999999999503e+00
2.153000000000000114e+01
3.410000000000000142e+00
-3.679999999999999716e+01
2.285000000000000142e+01
2.069000000000000128e+01
-7.620000000000000107e+00
-1.910000000000000142e+01
2.182000000000000028e+01
1.378999999999999915e+01
-1.955000000000000071e+01
1.146000000000000085e+01
6.429999999999999716e+00
-1.233999999999999986e+01
2.479999999999999982e+00
1.547000000000000064e+01
-1.955000000000000071e+01
-4.549000000000000199e+01
2.566000000000000014e+01
1.457000000000000028e+01
-1.034999999999999964e+01
6.160000000000000142e+01
-3.475600000000000023e+02
-7.704000000000000625e+01
8.128000000000000114e+01
-7.010999999999999943e+01
-1.989999999999999858e+01
-8.401000000000000512e+01
3.039000000000000057e+01
1.871999999999999886e+01
-2.939999999999999947e+00
2.600000000000000089e-01
3.607000000000000028e+01
3.830000000000000071e+00
-4.296999999999999886e+01
4.935000000000000142e+01
-5.040000000000000036e+00
-6.243999999999999773e+01
2.185999999999999943e+01
1.275999999999999979e+01
-4.429999999999999716e+01
4.756000000000000227e+01
1.017999999999999972e+01
-3.500000000000000000e+01
-1.192999999999999972e+01
2.930999999999999872e+01
-8.259999999999999787e+00
-3.357999999999999829e+01
5.560999999999999943e+01
1.792999999999999972e+01
-4.779999999999999716e+01
3.861999999999999744e+01
4.031000000000000227e+01
-6.870000000000000107e+00
-6.178000000000000114e+01
4.839999999999999858e+01
2.780999999999999872e+01
-2.873000000000000043e+01
2.009999999999999787e+00
3.307999999999999829e+01
-2.080000000000000071e+00
-5.560999999999999943e+01
2.317999999999999972e+01
3.151000000000000156e+01
-8.019999999999999574e+00
-5.225999999999999801e+01
1.876000000000000156e+01
8.369999999999999218e+00
-3.261999999999999744e+01
2.569999999999999840e+00
2.360999999999999943e+01
-9.250000000000000000e+00
-5.575000000000000000e+01
3.019000000000000128e+01
1.194999999999999929e+01
-1.600000000000000000e+01
1.330000000000000071e+01
1.402999999999999936e+01
-1.505000000000000071e+01
-8.375000000000000000e+01
1.875000000000000000e+01
2.951000000000000156e+01
-1.133000000000000007e+01
2.776999999999999957e+01
2.916000000000000014e+01
-1.081000000000000050e+01
-1.846000000000000085e+01
2.083999999999999986e+01
6.940000000000000391e+00
-4.104999999999999716e+01
2.787000000000000099e+01
1.726000000000000156e+01
-1.350000000000000000e+01
6.669999999999999929e+00
1.116999999999999993e+01
6.200000000000000178e+00
-5.359000000000000341e+01
2.698000000000000043e+01
1.789999999999999858e+01
-4.849999999999999645e+00
-8.759999999999999787e+00
2.735000000000000142e+01
-1.219999999999999973e+00
-3.936999999999999744e+01
2.160999999999999943e+01
2.182000000000000028e+01
-8.050000000000000711e+00
-3.135000000000000142e+01
1.867000000000000171e+01
1.397000000000000064e+01
-1.717999999999999972e+01
-9.580000000000000071e+00
1.882000000000000028e+01
7.160000000000000142e+00
-3.247999999999999687e+01
6.000000000000000000e+00
1.939000000000000057e+01
-3.919999999999999929e+00
-1.878000000000000114e+01
2.185000000000000142e+01
1.191999999999999993e+01
-3.627000000000000313e+01
4.889999999999999680e+00
2.101999999999999957e+01
-6.280000000000000249e+00
-2.401000000000000156e+01
2.066000000000000014e+01
1.081000000000000050e+01
-2.403000000000000114e+01
2.546999999999999886e+01
8.939999999999999503e+00
-1.994999999999999929e+01
-1.848000000000000043e+01
2.446000000000000085e+01
6.099999999999999867e-01
-2.978999999999999915e+01
1.336999999999999922e+01
7.280000000000000249e+00
-4.349999999999999645e+00
4.828000000000000114e+01
1.135499999999999972e+02
4.017999999999999972e+01
-1.073700000000000045e+02
-1.500999999999999979e+01
-7.400000000000000000e+01
-5.040999999999999659e+01
1.810999999999999943e+01
-2.800000000000000266e-01
-4.821000000000000085e+01
-9.884999999999999432e+01
1.234300000000000068e+02
-2.319999999999999929e+01
-4.936999999999999744e+01
5.709999999999999964e+00
3.384000000000000341e+01
-3.083999999999999986e+01
3.320000000000000284e+01
-2.985999999999999943e+01
-1.998000000000000043e+01
9.839999999999999858e+00
2.326999999999999957e+01
4.139999999999999680e+00
-2.930000000000000160e+00
2.639999999999999858e+01
8.070000000000000284e+00
-2.257000000000000028e+01
2.291000000000000014e+01
2.119999999999999929e+01
-1.867000000000000171e+01
2.640000000000000124e+00
1.194999999999999929e+01
-1.080000000000000071e+01
-2.151000000000000156e+01
1.725000000000000000e+01
9.000000000000000222e-01
-3.453999999999999915e+01
1.953999999999999915e+01
1.233000000000000007e+01
-2.903000000000000114e+01
1.551999999999999957e+01
4.830000000000000071e+00
-2.448999999999999844e+01
-3.446999999999999886e+01
3.335999999999999943e+01
1.036999999999999922e+01
-2.932000000000000028e+01
1.785000000000000142e+01
1.992000000000000171e+01
1.200000000000000000e+01
9.040000000000000568e+01
7.601999999999999602e+01
-1.690900000000000034e+02
4.310999999999999943e+01
-8.239000000000000057e+01
-2.651999999999999957e+01
-7.395000000000000284e+01
7.628000000000000114e+01
2.666000000000000014e+01
-4.415999999999999659e+01
6.562000000000000455e+01
7.962000000000000455e+01
5.225000000000000000e+01
1.099000000000000021e+01
-1.658999999999999986e+01
-1.230999999999999943e+02
8.357999999999999829e+01
1.023499999999999943e+02
2.145800000000000125e+02
-2.708600000000000136e+02
6.498999999999999488e+01
2.689999999999999947e+00
-6.418999999999999773e+01
2.617999999999999972e+01
-4.645000000000000284e+01
-8.669999999999999929e+00
7.739000000000000057e+01
1.177500000000000000e+02
-1.598700000000000045e+02
3.299999999999999822e+00
2.455999999999999872e+01
-1.020000000000000018e+00
-1.646999999999999886e+01
-2.149999999999999911e+00
-1.426999999999999957e+01
1.331299999999999955e+02
-8.818000000000000682e+01
-1.135999999999999943e+01
1.507000000000000028e+01
-1.072300000000000040e+02
-3.539000000000000057e+01
-4.703000000000000114e+01
1.097999999999999972e+02
5.410000000000000142e+00
-4.478999999999999915e+01
-6.349000000000000199e+01
-1.978000000000000114e+01
2.767000000000000171e+01
-2.720000000000000195e+00
-2.694000000000000128e+01
7.589999999999999858e+00
9.640000000000000568e+01
-4.674000000000000199e+01
2.233999999999999986e+01
6.468000000000000682e+01
1.536999999999999922e+01
-8.289999999999999147e+00
-3.220000000000000195e+00
2.003999999999999915e+01
8.070000000000000284e+00
-1.630999999999999872e+01
1.066000000000000014e+01
4.179999999999999716e+00
-1.457000000000000028e+01
-8.060000000000000497e+00
9.089999999999999858e+00
-3.220000000000000195e+00
-2.553999999999999915e+01
1.283000000000000007e+01
3.520000000000000018e+00
-1.760000000000000142e+01
1.978000000000000114e+01
1.239999999999999991e+00
-1.308999999999999986e+01
1.942000000000000171e+01
6.179999999999999716e+00
-1.255000000000000071e+01
2.500000000000000000e+00
8.939999999999999503e+00
-1.882000000000000028e+01
-4.669999999999999929e+00
1.494999999999999929e+01
-8.000000000000000444e-01
-1.679999999999999938e+00
1.850000000000000000e+01
5.240000000000000213e+00
-9.679999999999999716e+00
1.780000000000000071e+01
2.459999999999999964e+00
-6.049999999999999822e+00
1.559999999999999964e+01
3.069999999999999840e+00
-6.410000000000000142e+00
-2.012999999999999901e+01
1.619999999999999929e+01
-1.930999999999999872e+01
-2.067999999999999972e+01
1.694999999999999929e+01
-5.200000000000000178e-01
7.309999999999999609e+00
-1.083999999999999986e+01
-3.977000000000000313e+01
7.554999999999999716e+01
-1.238900000000000006e+02
2.429300000000000068e+02
3.386299999999999955e+02
-3.778000000000000114e+01
-2.009499999999999886e+02
-1.265799999999999983e+02
-2.771000000000000085e+01
-2.605000000000000071e+01
-1.336999999999999922e+01
-8.490000000000000213e+00
-1.737999999999999901e+01
-4.082999999999999829e+01
-5.218999999999999773e+01
-4.500000000000000000e+00
-2.181800000000000068e+02
-1.015300000000000011e+02
1.902100000000000080e+02
-4.638000000000000256e+01
3.397999999999999687e+01
1.180000000000000000e+02
1.413000000000000078e+01
-2.696999999999999886e+01
-9.323999999999999488e+01
-5.684000000000000341e+01
-2.194199999999999875e+02
7.801000000000000512e+01
1.889999999999999858e+01
-1.333999999999999986e+01
1.812999999999999901e+01
1.646200000000000045e+02
-6.973999999999999488e+01
-1.373000000000000043e+01
-4.713000000000000256e+01
5.856000000000000227e+01
6.448000000000000398e+01
-1.170400000000000063e+02
-1.564000000000000057e+01
-9.628000000000000114e+01
7.129999999999999716e+01
4.918999999999999773e+01
4.719999999999999751e+00
1.153999999999999915e+01
7.500000000000000000e+00
-1.261999999999999922e+01
-2.660000000000000142e+01
4.010000000000000142e+01
-5.360000000000000320e+00
-3.363000000000000256e+01
1.555000000000000071e+01
1.687999999999999901e+01
-1.523000000000000043e+01
-3.567999999999999972e+01
2.148999999999999844e+01
4.500000000000000111e-01
-2.189999999999999858e+01
8.609999999999999432e+00
1.522000000000000064e+01
-3.080000000000000071e+00
-2.680000000000000071e+01
1.591999999999999993e+01
8.179999999999999716e+00
-1.066999999999999993e+01
2.620000000000000107e+00
8.730000000000000426e+00
-1.540000000000000036e+00
-1.817000000000000171e+01
8.599999999999999645e+00
1.729999999999999982e+00
-6.129999999999999893e+00
1.649999999999999911e+00
-3.009999999999999787e+00
2.176999999999999957e+01
-1.705000000000000071e+01
7.730000000000000426e+00
-1.823000000000000043e+01
-1.507000000000000028e+01
2.444999999999999929e+01
1.093999999999999950e+01
-1.277999999999999936e+01
-2.240000000000000213e+00
1.261999999999999922e+01
6.400000000000000133e-01
-2.132000000000000028e+01
1.353999999999999915e+01
-2.609999999999999876e+00
-9.460000000000000853e+00
1.038000000000000078e+01
4.160000000000000142e+00
-7.349999999999999645e+00
-3.640000000000000124e+00
-1.101999999999999957e+01
1.239999999999999991e+00
1.776999999999999957e+01
4.000000000000000000e+00
-2.676000000000000156e+01
-1.290000000000000036e+00
6.120000000000000107e+00
-1.416000000000000014e+01
1.386399999999999864e+02
1.791299999999999955e+02
-1.774199999999999875e+02
-5.764999999999999858e+01
4.535000000000000142e+01
8.715999999999999659e+01
2.200000000000000011e-01
-5.089999999999999858e+01
-1.489000000000000057e+01
3.634000000000000341e+01
-9.667000000000000171e+01
-2.596000000000000085e+01
-1.851999999999999957e+01
1.043999999999999950e+01
-3.890000000000000124e+00
-4.257999999999999829e+01
1.053999999999999915e+01
6.089999999999999858e+00
-3.892000000000000171e+01
4.781000000000000227e+01
3.750999999999999801e+01
-7.500000000000000000e-01
-2.380999999999999872e+01
2.489000000000000057e+01
1.729999999999999982e+00
-2.612000000000000099e+01
2.742000000000000171e+01
1.762999999999999901e+01
-1.166999999999999993e+01
3.959999999999999964e+00
8.960000000000000853e+00
-9.759999999999999787e+00
-2.121000000000000085e+01
7.150000000000000355e+00
2.035999999999999943e+01
-1.333999999999999986e+01
2.450000000000000178e+00
9.169999999999999929e+00
-1.149999999999999911e+00
-2.075000000000000000e+01
1.025000000000000000e+01
4.990000000000000213e+00
-1.393999999999999950e+01
1.351999999999999957e+01
-6.150000000000000355e+00
5.179999999999999716e+00
-5.200000000000000178e-01
-1.400000000000000000e+01
-1.040000000000000036e+00
-1.483000000000000007e+01
8.039999999999999147e+00
2.299999999999999822e+00
-5.900000000000000355e+00
1.216000000000000014e+01
9.609999999999999432e+00
-6.639999999999999680e+00
-1.021000000000000085e+01
9.199999999999999289e+00
1.280000000000000027e+00
-6.570000000000000284e+00
9.859999999999999432e+00
5.000000000000000000e+00
-4.290000000000000036e+00
-1.025000000000000000e+01
1.007000000000000028e+01
1.590000000000000080e+00
-5.980000000000000426e+00
5.780000000000000249e+00
5.230000000000000426e+00
2.999999999999999889e-01
-7.860000000000000320e+00
6.419999999999999929e+00
5.379999999999999893e+00
3.900000000000000133e-01
-1.074000000000000021e+01
1.431000000000000050e+01
-4.690000000000000391e+00
-6.620000000000000107e+00
-3.300000000000000155e-01
-1.639999999999999902e+00
1.138000000000000078e+01
1.758999999999999986e+01
3.549999999999999822e+00
-5.159000000000000341e+01
-2.710999999999999943e+01
-3.390000000000000124e+00
1.820000000000000062e+00
3.307999999999999829e+01
-7.820000000000000284e+00
-9.929999999999999716e+00
5.204999999999999716e+01
-1.110100000000000051e+02
-9.212999999999999545e+01
-1.218999999999999950e+01
7.968000000000000682e+01
-5.007000000000000028e+01
-4.077000000000000313e+01
1.126899999999999977e+02
1.499000000000000021e+01
8.381999999999999318e+01
7.448000000000000398e+01
-6.025999999999999801e+01
-5.170000000000000284e+01
-1.539000000000000057e+01
-1.266999999999999993e+01
3.243999999999999773e+01
3.149999999999999911e+00
-2.355000000000000071e+01
-1.790000000000000036e+00
-1.607000000000000028e+01
-5.740000000000000213e+00
-3.878000000000000114e+01
1.958999999999999986e+01
-8.439999999999999503e+00
-2.292999999999999972e+01
4.809999999999999609e+00
-7.446999999999999886e+01
1.238299999999999983e+02
5.265999999999999659e+01
8.667000000000000171e+01
-3.581000000000000227e+01
-2.882999999999999829e+01
4.450000000000000178e+00
2.110000000000000142e+01
-1.710000000000000142e+01
-9.100000000000000311e-01
9.119999999999999218e+00
-1.450000000000000000e+01
-3.910000000000000142e+00
4.620000000000000107e+00
2.169999999999999929e+00
-9.210000000000000853e+00
1.208999999999999986e+01
4.200000000000000178e+00
-1.803000000000000114e+01
1.234999999999999964e+01
7.940000000000000391e+00
-8.570000000000000284e+00
8.189999999999999503e+00
1.060999999999999943e+01
-2.560000000000000053e+00
-1.375999999999999979e+01
1.108000000000000007e+01
4.870000000000000107e+00
-7.469999999999999751e+00
9.369999999999999218e+00
1.418999999999999950e+01
4.446000000000000085e+01
1.842400000000000091e+02
1.959000000000000057e+02
-1.714999999999999858e+01
-1.670699999999999932e+02
-1.259899999999999949e+02
-1.676999999999999886e+02
-2.112000000000000099e+01
4.299999999999999933e-01
4.725999999999999801e+01
-3.357000000000000028e+01
1.225300000000000011e+02
8.934999999999999432e+01
-1.012600000000000051e+02
-1.521800000000000068e+02
-2.146000000000000085e+01
1.082999999999999972e+02
1.417899999999999920e+02
6.478000000000000114e+01
-1.124699999999999989e+02
-5.310000000000000142e+01
-2.982000000000000028e+01
-5.296000000000000085e+01
-2.210999999999999943e+01
5.007000000000000028e+01
-5.381000000000000227e+01
-1.188900000000000006e+02
6.107999999999999829e+01
-9.450000000000000000e+01
-3.457000000000000028e+01
4.965999999999999659e+01
9.028000000000000114e+01
5.788000000000000256e+01
-1.014000000000000057e+02
-1.728999999999999915e+01
6.523999999999999488e+01
3.000000000000000000e+00
4.600000000000000000e+01
1.040100000000000051e+02
-7.331999999999999318e+01
-2.653999999999999915e+01
5.478000000000000114e+01
4.331000000000000227e+01
3.410000000000000142e+00
-4.007999999999999829e+01
9.926999999999999602e+01
6.854999999999999716e+01
-1.689699999999999989e+02
2.396999999999999886e+01
5.977000000000000313e+01
1.621000000000000085e+01
-3.889000000000000057e+01
2.169000000000000128e+01
2.676000000000000156e+01
-2.049999999999999822e+00
-3.443999999999999773e+01
2.208999999999999986e+01
1.789000000000000057e+01
-1.175999999999999979e+01
-7.120000000000000107e+00
1.728999999999999915e+01
4.809999999999999609e+00
-2.744999999999999929e+01
1.219999999999999929e+01
1.268999999999999950e+01
6.169999999999999929e+00
6.136999999999999744e+01
1.417500000000000000e+02
-1.138299999999999983e+02
-2.796499999999999773e+02
8.703000000000000114e+01
4.442999999999999972e+01
-1.617999999999999972e+01
1.962999999999999901e+01
3.069999999999999840e+00
-1.520000000000000018e+00
-1.905000000000000071e+01
3.521000000000000085e+01
1.486999999999999922e+01
-3.539000000000000057e+01
1.923000000000000043e+01
2.053999999999999915e+01
3.540000000000000036e+00
1.379600000000000080e+02
1.517299999999999898e+02
3.910000000000000142e+00
-4.009800000000000182e+02
-3.132200000000000273e+02
-4.140899999999999750e+02
3.545199999999999818e+02
3.206000000000000227e+01
6.360000000000000142e+01
1.715000000000000000e+02
-3.492999999999999972e+01
2.285000000000000142e+01
4.121000000000000085e+01
-9.929999999999999716e+00
-1.249699999999999989e+02
-1.147699999999999960e+02
2.866000000000000014e+01
4.310999999999999943e+01
-1.726999999999999886e+02
-2.218300000000000125e+02
6.209000000000000341e+01
7.018999999999999773e+01
1.581000000000000050e+01
7.675000000000000000e+01
2.937000000000000099e+01
1.050000000000000044e+00
-1.873999999999999844e+01
8.306999999999999318e+01
4.235000000000000142e+01
1.299000000000000057e+02
8.300000000000000711e+00
2.867099999999999795e+02
-8.023000000000000398e+01
1.748000000000000043e+01
1.358999999999999986e+01
-1.508999999999999986e+01
-1.900000000000000000e+01
2.430999999999999872e+01
9.200000000000000400e-01
-2.280000000000000071e+01
8.830000000000000071e+00
1.492999999999999972e+01
-2.810000000000000053e+00
-3.957999999999999829e+01
1.603000000000000114e+01
4.889999999999999680e+00
-1.141999999999999993e+01
-1.842999999999999972e+01
5.459999999999999964e+00
-5.750000000000000000e+00
-2.801999999999999957e+01
1.207000000000000028e+01
2.629999999999999893e+00
-1.860000000000000142e+01
-4.099999999999999645e+00
9.240000000000000213e+00
-7.199999999999999734e-01
-2.351000000000000156e+01
1.165000000000000036e+01
7.589999999999999858e+00
-1.326999999999999957e+01
3.759999999999999787e+00
9.250000000000000000e+00
-7.129999999999999893e+00
-2.767999999999999972e+01
2.689000000000000057e+01
8.759999999999999787e+00
-2.260999999999999943e+01
1.982000000000000028e+01
-6.589999999999999858e+00
-2.000000000000000000e+00
5.950000000000000178e+00
3.489999999999999858e+01
-1.133499999999999943e+02
3.539100000000000250e+02
1.097199999999999989e+02
-1.556999999999999886e+02
-8.309999999999999432e+01
6.854000000000000625e+01
2.750000000000000000e+00
5.263000000000000256e+01
-5.539000000000000057e+01
-2.112999999999999901e+01
-9.960000000000000853e+00
-1.782999999999999829e+01
-5.693999999999999773e+01
1.520000000000000018e+00
3.970000000000000195e+00
-2.270000000000000018e+00
1.308999999999999986e+01
1.737000000000000099e+01
5.349999999999999645e+00
1.121400000000000006e+02
-3.686999999999999744e+01
-3.678999999999999915e+01
-6.643999999999999773e+01
-4.097999999999999687e+01
2.933999999999999986e+01
-7.900000000000000355e-01
-7.540000000000000036e+00
-7.609999999999999432e+01
-9.210000000000000853e+00
-3.728000000000000114e+01
2.853999999999999915e+01
-3.600000000000000000e+01
-5.460000000000000142e+01
6.496999999999999886e+01
8.504999999999999716e+01
-3.578999999999999915e+01
-1.265699999999999932e+02
-4.552000000000000313e+01
7.784999999999999432e+01
-2.757999999999999829e+01
-2.848999999999999844e+01
4.418999999999999773e+01
8.951999999999999602e+01
-1.177399999999999949e+02
-6.682999999999999829e+01
-1.485699999999999932e+02
-3.779999999999999805e+00
6.403000000000000114e+01
-1.470600000000000023e+02
9.467000000000000171e+01
-2.235999999999999943e+01
5.260999999999999943e+01
6.060999999999999943e+01
9.248000000000000398e+01
-6.089999999999999858e+00
-4.707000000000000028e+01
-8.720999999999999375e+01
1.646999999999999886e+01
-2.539000000000000057e+01
-3.585000000000000142e+01
2.726000000000000156e+01
7.984000000000000341e+01
-1.696000000000000085e+01
-1.832999999999999829e+01
-3.935000000000000142e+01
-1.658999999999999986e+01
-5.592999999999999972e+01
3.735000000000000142e+01
4.290999999999999659e+01
3.146999999999999886e+01
-9.939999999999999503e+00
5.290000000000000036e+00
-9.349999999999999645e+00
4.879999999999999893e+00
-5.417999999999999972e+01
-2.188400000000000034e+02
5.352000000000000313e+01
-2.914999999999999858e+01
1.013900000000000006e+02
-5.660999999999999943e+01
-7.190000000000000391e+00
-1.794999999999999929e+01
-6.009999999999999787e+00
5.620000000000000284e+01
5.321999999999999886e+01
1.944000000000000128e+01
-5.999000000000000199e+01
5.150999999999999801e+01
7.154999999999999716e+01
-4.209999999999999964e+00
2.751000000000000156e+01
-2.896000000000000085e+01
-1.550000000000000044e+00
-4.338000000000000256e+01
1.909300000000000068e+02
1.289099999999999966e+02
-3.611899999999999977e+02
1.521699999999999875e+02
5.586999999999999744e+01
6.900000000000000000e+01
-1.571899999999999977e+02
-8.532999999999999829e+01
-7.239000000000000057e+01
5.503999999999999915e+01
2.839999999999999858e+00
-2.353899999999999864e+02
3.909000000000000341e+01
6.350999999999999801e+01
1.750000000000000000e+00
6.410000000000000142e+00
-9.550000000000000000e+01
5.584000000000000341e+01
5.368999999999999773e+01
-8.789999999999999147e+00
3.759000000000000341e+01
3.560000000000000142e+01
8.982999999999999829e+01
-2.012999999999999901e+01
-3.479999999999999982e+00
8.199999999999999512e-01
-1.883999999999999986e+01
6.573999999999999488e+01
3.554999999999999716e+01
-7.837999999999999545e+01
-2.121999999999999886e+01
4.532999999999999829e+01
-1.905999999999999872e+01
-1.894000000000000128e+01
1.820000000000000062e+00
-9.439999999999999503e+00
-2.032999999999999829e+01
1.439000000000000057e+01
-1.248000000000000043e+01
-2.707000000000000028e+01
1.481000000000000050e+01
-1.612000000000000099e+01
2.151999999999999957e+01
-2.557999999999999829e+01
3.979999999999999982e+00
2.099999999999999922e-01
-2.330000000000000071e+01
1.403999999999999915e+01
5.290000000000000036e+00
-1.499000000000000021e+01
1.300000000000000044e-01
1.134999999999999964e+01
1.246000000000000085e+01
-2.432000000000000028e+01
2.112000000000000099e+01
8.070000000000000284e+00
-2.876000000000000156e+01
3.659000000000000341e+01
1.446000000000000085e+01
2.100000000000000089e+00
-2.896999999999999886e+01
2.730000000000000071e+01
1.708999999999999986e+01
-8.890000000000000568e+00
-7.469999999999999751e+00
2.307000000000000028e+01
6.679999999999999716e+00
-1.764999999999999858e+01
1.414000000000000057e+01
-5.117000000000000171e+01
6.912000000000000455e+01
1.213599999999999994e+02
-6.388000000000000256e+01
9.160000000000000142e+00
-3.075000000000000000e+02
4.975000000000000000e+01
9.650000000000000355e+00
9.695999999999999375e+01
-8.051999999999999602e+01
-3.400999999999999801e+01
-3.246999999999999886e+01
-1.029300000000000068e+02
-3.234000000000000341e+01
8.834999999999999432e+01
2.205999999999999872e+01
-4.875999999999999801e+01
6.506000000000000227e+01
6.257000000000000028e+01
9.619999999999999218e+00
-1.009500000000000028e+02
-5.100999999999999801e+01
2.873999999999999844e+01
-1.501999999999999957e+01
-6.999999999999999556e-01
2.419000000000000128e+01
3.417999999999999972e+01
-5.242999999999999972e+01
1.312899999999999920e+02
3.067000000000000171e+01
-4.599000000000000199e+01
2.192999999999999972e+01
4.906000000000000227e+01
8.881000000000000227e+01
-1.309600000000000080e+02
-7.673000000000000398e+01
3.964000000000000057e+01
2.707999999999999829e+01
2.851999999999999957e+01
-9.179999999999999716e+00
-6.415999999999999659e+01
-3.793999999999999773e+01
1.336999999999999922e+01
-6.700000000000000400e-01
-3.146000000000000085e+01
-2.779999999999999805e+00
8.359999999999999432e+00
-1.646000000000000085e+01
-2.069000000000000128e+01
2.885000000000000142e+01
1.114000000000000057e+01
-2.694999999999999929e+01
2.862000000000000099e+01
2.608999999999999986e+01
2.600000000000000089e-01
1.138000000000000078e+01
1.375999999999999979e+01
-1.028700000000000045e+02
8.018000000000000682e+01
-1.222000000000000064e+01
-2.007999999999999829e+01
-3.292999999999999972e+01
7.168000000000000682e+01
4.893999999999999773e+01
-4.521000000000000085e+01
-3.293999999999999773e+01
6.639999999999999680e+00
-3.992000000000000171e+01
-1.107999999999999972e+02
6.099999999999999867e-01
1.994000000000000128e+01
-1.519999999999999929e+01
3.067999999999999972e+01
8.420999999999999375e+01
-4.000000000000000083e-02
-5.774000000000000199e+01
1.729999999999999982e+00
1.574000000000000021e+01
-5.860000000000000320e+00
-1.964999999999999858e+01
-1.452999999999999936e+01
1.043999999999999950e+01
-2.923999999999999844e+01
2.432000000000000028e+01
2.640000000000000124e+00
-2.910000000000000142e+00
-4.410000000000000142e+00
3.785999999999999943e+01
1.059999999999999964e+01
-1.012900000000000063e+02
-9.349999999999999645e+00
9.409999999999999432e+01
-4.681000000000000227e+01
1.682999999999999829e+01
-3.813000000000000256e+01
3.600000000000000089e+00
1.034599999999999937e+02
8.026999999999999602e+01
-1.157000000000000028e+01
-2.660000000000000142e+01
-8.534999999999999432e+01
-4.360000000000000142e+01
5.340999999999999659e+01
-1.549000000000000021e+01
-5.580000000000000071e+00
3.300000000000000155e-01
3.489000000000000057e+01
1.835999999999999943e+01
-8.393000000000000682e+01
-6.587999999999999545e+01
-7.862000000000000455e+01
1.133299999999999983e+02
4.410999999999999943e+01
-6.769999999999999574e+00
-1.732199999999999989e+02
1.364900000000000091e+02
-2.260000000000000142e+01
-6.075000000000000000e+01
-4.182000000000000028e+01
1.240000000000000000e+02
1.391200000000000045e+02
-7.734999999999999432e+01
6.059999999999999609e+00
-1.174300000000000068e+02
1.160999999999999943e+01
6.917000000000000171e+01
9.980000000000000426e+00
-3.178999999999999915e+01
4.496000000000000085e+01
2.771999999999999886e+01
-3.228000000000000114e+01
-4.709999999999999964e+00
-4.209999999999999964e+00
2.710999999999999943e+01
6.403000000000000114e+01
1.062500000000000000e+02
-1.748000000000000043e+01
-1.047600000000000051e+02
4.459999999999999964e+00
2.753000000000000114e+01
-1.122099999999999937e+02
4.249000000000000199e+01
-2.126999999999999957e+01
-4.789999999999999858e+01
-7.835999999999999943e+01
1.585200000000000102e+02
2.520000000000000018e+00
-5.542999999999999972e+01
-1.582000000000000028e+01
-6.549999999999999822e+00
-2.389999999999999858e+01
-4.250999999999999801e+01
1.676999999999999957e+01
-1.443999999999999950e+01
-3.679999999999999716e+01
7.167000000000000171e+01
3.830000000000000071e+00
-4.213000000000000256e+01
-9.300000000000000711e+00
2.254600000000000080e+02
-2.720000000000000195e+00
-7.768000000000000682e+01
1.560000000000000053e+00
-5.960000000000000142e+01
-2.410200000000000102e+02
-1.960999999999999943e+01
6.281000000000000227e+01
5.150000000000000000e+01
-3.392999999999999972e+01
1.876000000000000156e+01
3.921999999999999886e+01
-1.508000000000000007e+01
2.019000000000000128e+01
3.306000000000000227e+01
1.932999999999999829e+01
-2.598999999999999844e+01
6.895000000000000284e+01
-4.150000000000000000e+01
-7.962000000000000455e+01
-3.321000000000000085e+01
5.615999999999999659e+01
9.995000000000000284e+01
-2.435000000000000142e+01
-5.982999999999999829e+01
-2.387999999999999901e+01
-4.653999999999999915e+01
5.610000000000000320e+00
5.410000000000000142e+00
-9.810000000000000497e+00
-6.954999999999999716e+01
6.085999999999999943e+01
1.123900000000000006e+02
-1.002099999999999937e+02
1.090000000000000036e+01
8.562999999999999545e+01
5.349999999999999645e+00
-6.157000000000000028e+01
-2.392999999999999972e+01
4.899999999999999911e-01
1.436299999999999955e+02
-1.366899999999999977e+02
1.962999999999999901e+01
-7.387000000000000455e+01
-5.121999999999999886e+01
2.473000000000000043e+01
-3.603999999999999915e+01
-6.006000000000000227e+01
1.867000000000000171e+01
8.209000000000000341e+01
1.075300000000000011e+02
-1.101400000000000006e+02
3.403999999999999915e+01
7.190999999999999659e+01
-1.789000000000000057e+01
-3.660000000000000142e+01
1.169000000000000057e+02
3.310000000000000142e+01
-8.120000000000000284e+01
-5.842999999999999972e+01
-2.087000000000000099e+01
2.207999999999999829e+01
1.565000000000000036e+01
5.160000000000000142e+01
8.849999999999999645e+00
-1.533000000000000007e+01
2.578999999999999915e+01
-2.133999999999999986e+01
-4.732999999999999829e+01
-1.075999999999999979e+01
-4.809999999999999609e+00
1.251999999999999957e+01
-1.942999999999999972e+01
-3.632999999999999829e+01
-2.923999999999999844e+01
3.782000000000000028e+01
5.145000000000000284e+01
5.229999999999999716e+01
3.804999999999999716e+01
1.647800000000000011e+02
-1.583799999999999955e+02
-2.642699999999999818e+02
-5.639999999999999680e+00
1.055199999999999960e+02
1.719999999999999973e+00
-4.653999999999999915e+01
1.119999999999999929e+01
5.000000000000000000e+01
8.584000000000000341e+01
1.266999999999999993e+01
1.480000000000000071e+01
-1.347299999999999898e+02
-1.021099999999999994e+02
2.490000000000000213e+00
-1.453999999999999915e+01
-3.609000000000000341e+01
-5.300000000000000266e-01
1.852500000000000000e+02
8.864000000000000057e+01
-1.585500000000000114e+02
6.336999999999999744e+01
-2.385000000000000142e+01
-8.300000000000000711e+00
-5.879999999999999716e+01
-7.504000000000000625e+01
8.648999999999999488e+01
1.332800000000000011e+02
-1.087099999999999937e+02
-4.263000000000000256e+01
5.259999999999999787e+00
-3.039999999999999858e+01
9.740999999999999659e+01
3.743799999999999955e+02
-5.142999999999999972e+01
-8.181499999999999773e+02
2.857200000000000273e+02
3.924800000000000182e+02
9.220999999999999375e+01
-3.634000000000000341e+01
-2.739000000000000057e+01
-1.071000000000000085e+01
-1.907999999999999829e+01
2.105999999999999872e+01
-1.901000000000000156e+01
-2.575000000000000000e+01
2.046999999999999886e+01
-5.490000000000000213e+00
-3.975999999999999801e+01
2.385999999999999943e+01
-4.681000000000000227e+01
-9.965999999999999659e+01
5.328999999999999915e+01
1.677199999999999989e+02
-5.106000000000000227e+01
-3.546999999999999886e+01
9.671999999999999886e+01
-6.414000000000000057e+01
-4.846999999999999886e+01
4.467000000000000171e+01
5.022999999999999687e+01
-8.276000000000000512e+01
-1.354900000000000091e+02
1.526800000000000068e+02
5.638000000000000256e+01
5.864000000000000057e+01
1.014200000000000017e+02
-1.224000000000000021e+01
-3.910999999999999943e+01
7.304000000000000625e+01
1.261999999999999922e+01
-1.876899999999999977e+02
-2.728999999999999915e+01
-3.821999999999999886e+01
-1.038199999999999932e+02
9.359999999999999432e+00
1.928199999999999932e+02
6.937999999999999545e+01
-2.325000000000000000e+01
1.022000000000000064e+01
-2.444999999999999929e+01
-5.242000000000000171e+01
2.714000000000000057e+01
1.342999999999999972e+01
-4.067999999999999972e+01
2.750000000000000000e+00
1.031000000000000050e+01
-3.019999999999999929e+01
-2.060999999999999943e+01
3.114999999999999858e+01
-3.859999999999999876e+00
-8.467000000000000171e+01
2.423000000000000043e+01
1.892999999999999972e+01
-1.541000000000000014e+01
1.461999999999999922e+01
1.141000000000000014e+01
-7.349999999999999645e+00
-2.540000000000000036e+00
3.160000000000000142e+00
-6.200000000000000178e+00
-2.762000000000000099e+01
1.346000000000000085e+01
5.799999999999999600e-01
-3.414000000000000057e+01
1.544999999999999929e+01
-8.169999999999999929e+00
-5.077000000000000313e+01
8.869999999999999218e+00
1.438000000000000078e+01
-1.844999999999999929e+01
-4.920000000000000284e+01
-1.935999999999999943e+01
1.484300000000000068e+02
-3.392999999999999972e+01
5.509000000000000341e+01
2.490000000000000213e+00
-3.545000000000000284e+01
2.483999999999999986e+01
5.874000000000000199e+01
-1.650000000000000000e+01
-2.962999999999999901e+01
3.821999999999999886e+01
4.782999999999999829e+01
1.844000000000000128e+01
-6.002000000000000313e+01
-2.898999999999999844e+01
2.846999999999999886e+01
7.521999999999999886e+01
-1.978000000000000114e+01
-7.754000000000000625e+01
-1.267999999999999972e+01
2.437999999999999901e+01
1.003999999999999915e+01
2.480999999999999872e+01
-4.040999999999999659e+01
-4.775000000000000000e+01
-2.141000000000000014e+01
2.651999999999999957e+01
2.546999999999999886e+01
-1.308000000000000007e+01
-1.649999999999999911e+00
-3.217999999999999972e+01
5.196999999999999886e+01
5.106000000000000227e+01
4.179999999999999716e+00
-5.053000000000000114e+01
-7.329999999999999716e+01
6.230000000000000426e+00
-6.199999999999999956e-01
-1.127000000000000028e+02
3.017000000000000171e+01
1.567800000000000011e+02
1.421299999999999955e+02
-1.683899999999999864e+02
-1.636299999999999955e+02
1.010999999999999943e+01
-4.607000000000000028e+01
8.839999999999999858e+00
-1.214899999999999949e+02
8.776000000000000512e+01
-1.207500000000000000e+02
7.998000000000000398e+01
2.176000000000000156e+01
-1.982000000000000028e+01
6.389999999999999858e+01
-8.773999999999999488e+01
1.061800000000000068e+02
1.539499999999999886e+02
3.939999999999999947e+00
-2.298000000000000043e+01
-2.204799999999999898e+02
-7.669999999999999929e+00
5.814999999999999858e+01
-9.606999999999999318e+01
-7.198000000000000398e+01
3.085999999999999943e+01
-6.709999999999999964e+00
1.000799999999999983e+02
-7.360000000000000320e+00
-4.050000000000000000e+01
-5.710999999999999943e+01
-1.007099999999999937e+02
4.386999999999999744e+01
2.031899999999999977e+02
3.880699999999999932e+02
-4.497300000000000182e+02
-8.498000000000000398e+01
3.743999999999999773e+01
7.125000000000000000e+01
2.014999999999999858e+01
-6.832999999999999829e+01
1.199899999999999949e+02
4.657000000000000028e+01
-1.904300000000000068e+02
2.294999999999999929e+01
-5.547999999999999687e+01
-1.318999999999999950e+01
1.118999999999999950e+01
-1.703000000000000114e+01
-9.334999999999999432e+01
1.179999999999999938e+00
6.621999999999999886e+01
1.689999999999999947e+00
-1.066500000000000057e+02
5.738000000000000256e+01
4.631000000000000227e+01
-2.943899999999999864e+02
7.068000000000000682e+01
1.230199999999999960e+02
7.498000000000000398e+01
-8.865000000000000568e+01
-3.238000000000000256e+01
-1.215000000000000036e+01
2.919000000000000128e+01
8.900000000000000133e-01
-3.187000000000000099e+01
4.960000000000000142e+01
1.900000000000000000e+01
-3.695000000000000284e+01
3.731000000000000227e+01
1.127999999999999936e+01
-2.960999999999999943e+01
5.982999999999999829e+01
-3.532999999999999829e+01
-8.546999999999999886e+01
-8.669999999999999929e+00
1.289699999999999989e+02
6.006000000000000227e+01
-7.495000000000000284e+01
-2.979999999999999982e+00
-6.339999999999999858e+00
-3.302000000000000313e+01
-9.250000000000000000e+00
3.660000000000000142e+00
-4.059999999999999609e+00
-2.594999999999999929e+01
2.721000000000000085e+01
2.487000000000000099e+01
8.039999999999999147e+00
2.944000000000000128e+01
-3.319999999999999840e+00
1.033900000000000006e+02
-5.188000000000000256e+01
-6.179999999999999716e+00
8.543000000000000682e+01
-8.906999999999999318e+01
-9.800000000000000000e+01
-5.464000000000000057e+01
-5.174000000000000199e+01
2.626999999999999957e+01
5.347999999999999687e+01
4.275999999999999801e+01
5.299999999999999822e+00
4.374000000000000199e+01
4.114999999999999858e+01
-5.511999999999999744e+01
-2.228999999999999915e+01
-5.750000000000000000e+00
-3.456000000000000227e+01
2.512999999999999901e+01
1.132000000000000028e+01
-2.362000000000000099e+01
1.139999999999999902e+00
1.758999999999999986e+01
-3.379999999999999893e+00
-3.384000000000000341e+01
2.253999999999999915e+01
4.190000000000000391e+00
-1.074800000000000040e+02
8.187999999999999545e+01
2.703000000000000114e+02
-7.123000000000000398e+01
-9.348000000000000398e+01
-3.094100000000000250e+02
-1.671899999999999977e+02
-1.270400000000000063e+02
9.762000000000000455e+01
3.439599999999999795e+02
-1.311200000000000045e+02
-7.182999999999999829e+01
1.864999999999999858e+01
2.578999999999999915e+01
-7.187999999999999545e+01
-5.157999999999999829e+01
-5.099999999999999645e+00
-5.440000000000000391e+00
1.189999999999999947e+00
1.971000000000000085e+01
3.240000000000000213e+00
-1.050000000000000000e+01
-3.839999999999999858e+00
3.459999999999999964e+00
5.509999999999999787e+00
2.210999999999999943e+01
7.669999999999999929e+00
-1.546000000000000085e+01
2.289000000000000057e+01
8.019999999999999574e+00
5.730000000000000426e+00
9.143000000000000682e+01
-2.763899999999999864e+02
-3.522999999999999687e+01
1.370099999999999909e+02
1.141500000000000057e+02
-1.266200000000000045e+02
-4.184000000000000341e+01
-1.191000000000000014e+01
-1.088199999999999932e+02
-6.892000000000000171e+01
1.529499999999999886e+02
8.882999999999999829e+01
-1.335099999999999909e+02
-2.223300000000000125e+02
5.040999999999999659e+01
-6.415999999999999659e+01
-2.437800000000000011e+02
1.876399999999999864e+02
7.109999999999999432e+01
-1.687199999999999989e+02
1.671800000000000068e+02
1.419999999999999929e+00
-1.085600000000000023e+02
9.256999999999999318e+01
-1.426599999999999966e+02
1.409999999999999920e+00
-4.532999999999999829e+01
2.049999999999999822e+00
3.856000000000000227e+01
7.500000000000000000e-01
-3.856000000000000227e+01
4.043999999999999773e+01
1.583999999999999986e+01
-5.932000000000000028e+01
-1.500000000000000000e+00
1.080699999999999932e+02
3.264999999999999858e+01
-7.740999999999999659e+01
2.049999999999999822e+00
6.261999999999999744e+01
-3.378000000000000114e+01
-4.940000000000000391e+00
3.418999999999999773e+01
1.056000000000000050e+01
-6.929999999999999716e+01
-3.890000000000000124e+00
-4.332000000000000028e+01
1.830999999999999872e+01
1.141999999999999993e+01
-6.013000000000000256e+01
4.740999999999999659e+01
-5.940000000000000391e+00
2.694000000000000128e+01
-6.768999999999999773e+01
-5.839999999999999858e+00
6.070000000000000284e+00
-1.607000000000000028e+01
-3.711999999999999744e+01
1.270000000000000018e+00
-7.218000000000000682e+01
-2.290900000000000034e+02
2.858600000000000136e+02
-1.523400000000000034e+02
-1.340699999999999932e+02
-1.655000000000000071e+01
8.859999999999999432e+01
3.654999999999999716e+01
9.801999999999999602e+01
3.033999999999999986e+01
3.051000000000000156e+01
-2.101999999999999957e+01
-1.260300000000000011e+02
-1.129000000000000057e+02
3.409000000000000341e+01
4.446000000000000085e+01
-6.831999999999999318e+01
3.782000000000000028e+01
1.235999999999999943e+01
-6.310999999999999943e+01
-3.039999999999999858e+01
-4.935000000000000142e+01
6.799999999999999822e+00
1.208999999999999986e+01
9.445000000000000284e+01
3.551700000000000159e+02
-4.051000000000000227e+02
-1.316999999999999886e+02
7.000000000000000000e+01
-7.559999999999999432e+01
-2.302500000000000000e+02
1.183299999999999983e+02
1.181299999999999955e+02
-1.471399999999999864e+02
-5.682000000000000028e+01
1.137699999999999960e+02
-1.785999999999999943e+01
1.901699999999999875e+02
3.021999999999999886e+01
-1.968899999999999864e+02
-4.629999999999999893e+00
8.106000000000000227e+01
-6.121999999999999886e+01
1.540000000000000036e+00
-3.859999999999999876e+00
-2.767000000000000171e+01
3.490999999999999659e+01
-1.311399999999999864e+02
2.830699999999999932e+02
1.389199999999999875e+02
-3.593999999999999773e+01
-7.523000000000000398e+01
-1.020199999999999960e+02
1.226999999999999957e+01
7.379999999999999893e+00
-2.476999999999999957e+01
4.678999999999999915e+01
1.667100000000000080e+02
-1.609499999999999886e+02
-9.000000000000000000e+01
-1.810000000000000053e+00
-6.400000000000000133e-01
-3.850000000000000089e+00
-5.049999999999999822e+00
5.780000000000000249e+00
-3.589999999999999858e+00
-5.417000000000000171e+01
5.339999999999999858e+00
2.093100000000000023e+02
3.030000000000000071e+01
-1.191500000000000057e+02
-2.930000000000000071e+01
-2.145800000000000125e+02
-1.385099999999999909e+02
7.262000000000000455e+01
5.089000000000000057e+01
3.968999999999999773e+01
2.130000000000000071e+01
8.673999999999999488e+01
2.415399999999999920e+02
-1.107999999999999972e+02
2.810999999999999943e+01
9.200000000000000400e-01
-5.874000000000000199e+01
1.714999999999999858e+01
5.339999999999999858e+00
2.365800000000000125e+02
-5.799999999999999822e+00
1.311999999999999886e+02
-1.831800000000000068e+02
-4.089000000000000057e+01
1.619399999999999977e+02
-1.207600000000000051e+02
-2.212400000000000091e+02
1.165000000000000000e+02
4.450000000000000178e+00
-7.570000000000000284e+00
-5.142999999999999972e+01
-1.455099999999999909e+02
-1.414000000000000057e+01
1.728000000000000114e+01
-4.417999999999999972e+01
-2.914000000000000057e+01
-1.540000000000000036e+01
8.881000000000000227e+01
1.753499999999999943e+02
7.515000000000000568e+01
-1.327100000000000080e+02
1.614999999999999858e+01
-6.437999999999999545e+01
-5.279999999999999716e+01
7.515000000000000568e+01
9.475000000000000000e+01
-5.592999999999999972e+01
-3.218999999999999773e+01
6.612000000000000455e+01
-3.133999999999999986e+01
-4.097999999999999687e+01
-3.832999999999999829e+01
-1.287400000000000091e+02
1.161700000000000017e+02
4.902000000000000313e+01
5.070000000000000284e+00
1.210999999999999943e+01
-3.531000000000000227e+01
-2.890000000000000124e+00
1.325999999999999979e+01
-9.710000000000000853e+00
-4.009999999999999787e+00
-1.500999999999999979e+01
-5.007000000000000028e+01
3.242000000000000171e+01
3.270000000000000284e+01
-9.779000000000000625e+01
4.904999999999999716e+01
-1.799999999999999933e-01
-1.022900000000000063e+02
-2.602799999999999727e+02
3.353000000000000114e+02
3.935500000000000114e+02
-2.750899999999999750e+02
-2.712300000000000182e+02
1.300399999999999920e+02
-1.263599999999999994e+02
1.846999999999999886e+01
5.700999999999999801e+01
6.052000000000000313e+01
-3.820199999999999818e+02
2.875299999999999727e+02
4.014000000000000057e+01
-1.111200000000000045e+02
-1.096000000000000085e+01
-1.522199999999999989e+02
-1.348000000000000043e+01
2.198000000000000043e+01
1.085699999999999932e+02
2.362700000000000102e+02
1.248900000000000006e+02
-2.509799999999999898e+02
-1.871999999999999886e+02
-3.166200000000000045e+02
4.830000000000000071e+00
1.219099999999999966e+02
1.618100000000000023e+02
-1.396500000000000057e+02
1.112199999999999989e+02
2.414699999999999989e+02
1.812000000000000099e+01
-2.018100000000000023e+02
-1.338000000000000114e+02
-6.036999999999999744e+01
8.768000000000000682e+01
5.032000000000000028e+01
-5.317999999999999972e+01
3.297999999999999687e+01
5.425999999999999801e+01
-1.726999999999999957e+01
4.671999999999999886e+01
3.685999999999999943e+01
-3.007999999999999829e+01
-5.440999999999999659e+01
-1.049399999999999977e+02
-8.289999999999999147e+00
3.762599999999999909e+02
1.782599999999999909e+02
-1.278700000000000045e+02
-8.793999999999999773e+01
-1.457000000000000028e+01
9.179999999999999716e+00
-4.690000000000000391e+00
-4.271999999999999886e+01
1.226999999999999957e+01
9.459999999999999432e+01
-2.448999999999999844e+01
-1.509999999999999964e+01
-1.705000000000000071e+01
1.098900000000000006e+02
-5.671000000000000085e+01
8.419999999999999929e+00
-9.990000000000000213e+00
-1.025000000000000000e+01
2.708999999999999986e+01
5.674000000000000199e+01
-1.264200000000000017e+02
5.575000000000000000e+01
2.542999999999999972e+01
1.565000000000000036e+01
-2.009999999999999787e+00
7.340000000000000568e+01
-5.903000000000000114e+01
-3.421000000000000085e+01
7.256999999999999318e+01
1.614000000000000057e+01
1.689000000000000057e+01
-1.058999999999999986e+01
4.403999999999999915e+01
2.942000000000000171e+01
2.735999999999999943e+01
1.763100000000000023e+02
-2.001200000000000045e+02
-5.950000000000000000e+01
-7.349999999999999645e+00
2.710999999999999943e+01
2.700000000000000178e-01
-3.621000000000000085e+01
5.836999999999999744e+01
2.144000000000000128e+01
1.959999999999999964e+00
-1.137900000000000063e+02
-5.293999999999999773e+01
-7.967000000000000171e+01
5.352000000000000313e+01
2.439999999999999858e+01
-1.088799999999999955e+02
-1.131599999999999966e+02
-9.201000000000000512e+01
3.335999999999999943e+01
-1.026700000000000017e+02
-1.587700000000000102e+02
2.777400000000000091e+02
6.278999999999999915e+01
3.704999999999999716e+01
2.051000000000000156e+01
5.031000000000000227e+01
-1.578999999999999915e+01
-5.409000000000000341e+01
5.582999999999999829e+01
-3.098000000000000043e+01
-2.642999999999999972e+01
-2.723999999999999844e+01
-1.202999999999999936e+01
-4.889999999999999680e+00
-3.950000000000000178e+00
1.002999999999999936e+01
-2.053999999999999915e+01
-5.860999999999999943e+01
-5.753000000000000114e+01
4.089000000000000057e+01
2.348000000000000043e+01
8.621999999999999886e+01
3.030199999999999818e+02
-6.520999999999999375e+01
-3.617099999999999795e+02
-1.494000000000000057e+02
5.733600000000000136e+02
-3.342400000000000091e+02
-3.210999999999999943e+01
3.609999999999999876e+00
-2.726000000000000156e+01
2.235999999999999943e+01
3.660000000000000142e+01
-1.128299999999999983e+02
-2.462999999999999901e+01
-3.030000000000000071e+01
-1.553999999999999915e+01
-5.753000000000000114e+01
3.214999999999999858e+01
5.382999999999999829e+01
4.230000000000000426e+00
8.362999999999999545e+01
-1.616000000000000014e+01
1.753999999999999915e+01
-9.350000000000000000e+01
-5.480000000000000426e+00
5.306000000000000227e+01
-9.406000000000000227e+01
-7.934000000000000341e+01
-1.046000000000000085e+01
2.978999999999999915e+01
2.117000000000000171e+01
1.040199999999999960e+02
-2.410000000000000142e+01
-4.331000000000000227e+01
-8.400000000000000355e+00
2.098999999999999844e+01
-1.417999999999999972e+01
-8.329999999999999716e+01
-9.343999999999999773e+01
1.259399999999999977e+02
-1.439999999999999947e+00
3.028000000000000114e+01
-2.294499999999999886e+02
-2.624700000000000273e+02
-8.800000000000000044e-01
2.888999999999999773e+02
9.253000000000000114e+01
-2.048700000000000045e+02
4.654999999999999716e+01
3.166700000000000159e+02
1.676899999999999977e+02
-1.607800000000000011e+02
5.900000000000000000e+01
1.833100000000000023e+02
-2.411100000000000136e+02
-1.452999999999999936e+01
1.029000000000000057e+02
-5.060000000000000142e+01
3.929999999999999716e+01
5.732000000000000028e+01
-9.804999999999999716e+01
1.549099999999999966e+02
4.636499999999999773e+02
-3.585699999999999932e+02
-1.565000000000000000e+02
-1.830000000000000071e+01
-1.653999999999999915e+01
-7.884999999999999432e+01
-1.735699999999999932e+02
2.766100000000000136e+02
7.265999999999999659e+01
3.217999999999999972e+01
1.083999999999999986e+01
-8.345000000000000284e+01
2.689999999999999947e+00
2.896000000000000085e+01
1.626000000000000156e+01
-1.292999999999999972e+01
3.089999999999999858e+01
6.157000000000000028e+01
6.199999999999999956e-01
-8.284000000000000341e+01
2.270999999999999943e+02
-2.424099999999999966e+02
-1.575300000000000011e+02
-2.448000000000000043e+01
-5.669999999999999929e+00
-2.063199999999999932e+02
3.330899999999999750e+02
2.368400000000000034e+02
-1.422800000000000011e+02
-6.946999999999999886e+01
3.935000000000000142e+01
3.000000000000000000e+00
-4.413000000000000256e+01
1.603000000000000114e+01
7.440000000000000391e+00
-9.009999999999999787e+00
2.160000000000000142e+01
2.642000000000000171e+01
-2.148999999999999844e+01
-1.163700000000000045e+02
-9.359000000000000341e+01
1.819300000000000068e+02
5.392999999999999972e+01
-6.925000000000000000e+01
-4.596999999999999886e+01
3.387500000000000000e+02
-2.955199999999999818e+02
-1.463000000000000078e+01
-1.471299999999999955e+02
-3.041000000000000014e+01
1.321100000000000136e+02
3.173000000000000043e+01
-3.772999999999999687e+01
5.485000000000000142e+01
7.834000000000000341e+01
-6.004999999999999716e+01
-2.207999999999999829e+01
6.089000000000000057e+01
-5.049999999999999822e+00
-4.785000000000000142e+01
4.000999999999999801e+01
-1.271000000000000085e+01
1.001500000000000057e+02
-3.400999999999999801e+01
1.000999999999999979e+01
-6.601000000000000512e+01
8.169999999999999929e+00
2.292999999999999972e+01
3.945000000000000284e+01
-2.969000000000000128e+01
1.115000000000000036e+01
1.161999999999999922e+01
-5.200999999999999801e+01
4.269999999999999574e+00
2.270000000000000018e+00
3.540000000000000036e+00
-2.775000000000000000e+01
1.057000000000000028e+01
3.490000000000000213e+00
-1.033999999999999986e+01
1.266999999999999993e+01
1.130000000000000071e+01
-4.900000000000000355e+00
-2.762000000000000099e+01
1.253999999999999915e+01
6.059999999999999609e+00
-1.880999999999999872e+01
-2.819999999999999840e+00
1.411999999999999922e+01
3.220000000000000195e+00
-2.710999999999999943e+01
2.037999999999999901e+01
1.552999999999999936e+01
-1.028999999999999915e+01
-1.467999999999999972e+01
1.567999999999999972e+01
5.139999999999999680e+00
-2.369000000000000128e+01
2.051000000000000156e+01
1.113000000000000078e+01
-9.820000000000000284e+00
-5.200000000000000178e+00
1.776999999999999957e+01
-9.609999999999999432e+00
-1.778999999999999915e+01
2.098000000000000043e+01
7.830000000000000071e+00
-1.455000000000000071e+01
-4.699999999999999734e-01
1.826999999999999957e+01
2.410000000000000142e+00
-2.901000000000000156e+01
1.547000000000000064e+01
1.550999999999999979e+01
-9.810000000000000497e+00
-6.700000000000000178e+00
1.621999999999999886e+01
-1.392999999999999972e+01
-2.629999999999999893e+00
1.238000000000000078e+01
4.660000000000000142e+00
-4.519999999999999574e+00
-1.651000000000000156e+01
1.073000000000000043e+01
-8.259999999999999787e+00
-9.400000000000000355e+00
4.589999999999999858e+01
2.232999999999999829e+01
2.496000000000000085e+01
-5.706000000000000227e+01
-7.609999999999999432e+01
-2.405999999999999872e+01
7.900000000000000355e-01
-9.960000000000000853e+00
4.080000000000000071e+00
-5.699999999999999512e-01
1.817000000000000171e+01
-1.225999999999999979e+01
-2.916000000000000014e+01
-1.553999999999999915e+01
2.048000000000000043e+01
4.799999999999999822e-01
-2.292999999999999972e+01
-2.423999999999999844e+01
2.119600000000000080e+02
-1.126400000000000006e+02
-2.310999999999999943e+01
-9.529000000000000625e+01
-1.048799999999999955e+02
7.645999999999999375e+01
5.389000000000000057e+01
3.811999999999999744e+01
1.930099999999999909e+02
8.632999999999999829e+01
6.379999999999999716e+01
-1.755200000000000102e+02
-4.704999999999999716e+01
-1.063000000000000078e+01
-1.171299999999999955e+02
1.773999999999999844e+01
3.135000000000000142e+01
-1.917000000000000171e+01
-1.415000000000000036e+01
4.092999999999999972e+01
-4.239000000000000057e+01
2.251999999999999957e+01
3.300000000000000155e-01
1.540000000000000036e+00
3.137999999999999901e+01
-2.607999999999999829e+01
1.161500000000000057e+02
-2.525000000000000000e+01
-6.292999999999999972e+01
7.412000000000000455e+01
7.895999999999999375e+01
-7.481999999999999318e+01
3.779999999999999716e+01
-7.250000000000000000e+00
-9.259999999999999787e+00
1.820000000000000062e+00
7.948000000000000398e+01
-3.968999999999999773e+01
-1.219999999999999973e+00
1.284399999999999977e+02
-5.109000000000000341e+01
-2.448000000000000043e+01
2.694999999999999929e+01
-2.987000000000000099e+01
-8.995000000000000284e+01
2.100000000000000000e+01
8.229999999999999716e+01
-9.812999999999999545e+01
2.355999999999999872e+01
-2.064000000000000057e+01
1.141000000000000014e+01
1.780999999999999872e+01
8.401999999999999602e+01
-8.235999999999999943e+01
-2.746000000000000085e+01
-4.139999999999999680e+00
-3.200000000000000178e+00
3.660999999999999943e+01
-5.849000000000000199e+01
7.490000000000000213e+00
7.700000000000000178e-01
1.091000000000000014e+01
2.567999999999999972e+01
-1.009800000000000040e+02
1.755000000000000071e+01
6.375999999999999801e+01
4.840999999999999659e+01
-8.999999999999999667e-02
-5.940999999999999659e+01
1.808999999999999986e+01
1.703899999999999864e+02
-1.181700000000000017e+02
-7.931000000000000227e+01
3.356000000000000227e+01
2.012000000000000099e+01
8.701000000000000512e+01
3.725000000000000000e+01
7.656999999999999318e+01
4.146000000000000085e+01
-1.811200000000000045e+02
-2.872900000000000205e+02
6.221999999999999886e+01
1.406899999999999977e+02
8.904000000000000625e+01
2.185000000000000142e+01
-4.299999999999999822e+00
-2.230000000000000071e+01
1.978000000000000114e+01
2.282999999999999829e+01
-2.508799999999999955e+02
1.438499999999999943e+02
5.078000000000000114e+01
-7.753000000000000114e+01
2.025000000000000000e+01
3.270000000000000018e+00
-1.316999999999999993e+01
4.400000000000000022e-01
1.010999999999999943e+01
-4.509999999999999787e+00
-3.403999999999999915e+01
2.360000000000000142e+01
8.660000000000000142e+00
-1.465000000000000036e+01
-6.559999999999999609e+00
2.230999999999999872e+01
6.160000000000000142e+00
-2.148999999999999844e+01
1.703999999999999915e+01
1.493999999999999950e+01
2.800000000000000266e-01
-2.546999999999999886e+01
1.289000000000000057e+01
-1.689999999999999858e+01
-2.003000000000000114e+02
1.818400000000000034e+02
5.729999999999999716e+01
-4.238000000000000256e+01
7.045999999999999375e+01
1.926399999999999864e+02
-7.714000000000000057e+01
-4.625099999999999909e+02
-1.238000000000000078e+01
2.035399999999999920e+02
1.897899999999999920e+02
9.017000000000000171e+01
-2.169099999999999966e+02
-1.408999999999999986e+01
-9.390999999999999659e+01
5.917999999999999972e+01
1.303100000000000023e+02
9.640000000000000568e+00
2.132000000000000028e+01
2.096000000000000085e+01
1.942000000000000171e+01
9.240000000000000213e+00
2.898999999999999844e+01
9.800000000000000711e+00
-4.857999999999999829e+01
3.514999999999999858e+01
2.155999999999999872e+01
-3.417000000000000171e+01
7.259999999999999787e+00
1.124000000000000021e+01
-9.539999999999999147e+00
-2.526999999999999957e+01
1.605000000000000071e+01
1.620000000000000107e+00
-2.942999999999999972e+01
5.219999999999999751e+00
7.929999999999999716e+00
-6.169999999999999929e+00
-3.137999999999999901e+01
1.417999999999999972e+01
9.970000000000000639e+00
-1.167999999999999972e+01
-2.092999999999999972e+01
1.721999999999999886e+01
2.379999999999999893e+00
-1.335999999999999943e+01
3.752000000000000313e+01
9.385999999999999943e+01
3.294200000000000159e+02
-3.470000000000000195e+00
-5.761599999999999682e+02
3.246000000000000085e+01
1.213199999999999932e+02
7.215999999999999659e+01
9.201999999999999602e+01
-2.826000000000000156e+01
-9.814000000000000057e+01
-3.310000000000000053e+00
3.996999999999999886e+01
9.799999999999999822e-01
-1.021000000000000085e+01
3.700000000000000000e+01
3.481000000000000227e+01
-2.198999999999999844e+01
4.009999999999999787e+00
-1.864999999999999858e+01
-1.657000000000000028e+01
5.953999999999999915e+01
4.650000000000000355e+00
-2.760000000000000142e+01
-3.720000000000000195e+00
1.880000000000000071e+01
-2.740000000000000213e+00
-3.759000000000000341e+01
1.574000000000000021e+01
7.769999999999999574e+00
-1.578999999999999915e+01
7.759999999999999787e+00
1.417999999999999972e+01
-6.269999999999999574e+00
-2.489999999999999858e+01
1.923999999999999844e+01
5.919999999999999929e+00
-1.492999999999999972e+01
2.600000000000000089e-01
1.306000000000000050e+01
-3.100000000000000089e+00
-1.507000000000000028e+01
1.235999999999999943e+01
1.241999999999999993e+01
-1.889999999999999858e+01
-6.573999999999999488e+01
7.610999999999999943e+01
2.532999999999999829e+01
-4.382000000000000028e+01
-7.426000000000000512e+01
5.009999999999999787e+00
3.101000000000000156e+01
-4.678999999999999915e+01
3.859999999999999876e+00
5.874000000000000199e+01
1.458999999999999986e+01
-3.936999999999999744e+01
1.289799999999999898e+02
-2.851000000000000156e+01
2.457999999999999829e+01
6.074000000000000199e+01
-5.571000000000000085e+01
-1.651999999999999957e+01
1.219999999999999973e+00
3.238000000000000256e+01
-5.653000000000000114e+01
-2.289000000000000057e+01
6.289000000000000057e+01
3.470000000000000195e+00
-1.368999999999999950e+01
-3.978000000000000114e+01
-1.350000000000000089e+00
6.360000000000000320e+00
1.317999999999999972e+01
-1.366000000000000014e+01
-1.480000000000000071e+01
-3.513000000000000256e+01
7.480000000000000426e+00
3.696999999999999886e+01
-4.000000000000000083e-02
-7.900000000000000355e+00
1.778999999999999915e+01
2.839999999999999858e+00
-1.685000000000000142e+01
1.007000000000000028e+01
6.370000000000000107e+00
-1.192999999999999972e+01
9.120000000000000284e+01
4.740000000000000213e+00
-8.256000000000000227e+01
-1.392999999999999972e+01
1.855999999999999872e+01
4.429999999999999716e+00
3.845000000000000284e+01
-4.679999999999999716e+00
-4.969999999999999751e+00
3.160999999999999943e+01
-6.942000000000000171e+01
1.903000000000000114e+01
-1.989000000000000057e+01
1.119999999999999929e+01
2.416000000000000014e+01
2.998000000000000043e+01
-2.757999999999999829e+01
-2.620000000000000107e+00
1.099000000000000021e+01
3.289999999999999858e+01
2.001899999999999977e+02
-1.291699999999999875e+02
-4.003999999999999915e+01
-1.302999999999999936e+01
3.310999999999999943e+01
-7.330000000000000071e+00
-1.853000000000000114e+01
-2.742999999999999972e+01
1.971000000000000085e+01
4.327000000000000313e+01
-1.366000000000000014e+01
-3.242000000000000171e+01
-3.213000000000000256e+01
6.839999999999999858e+00
4.818999999999999773e+01
8.750000000000000000e+00
-2.173999999999999844e+01
9.310000000000000497e+00
-2.848000000000000043e+01
1.746999999999999886e+01
3.196000000000000085e+01
-6.684000000000000341e+01
9.399999999999999467e-01
5.409000000000000341e+01
3.359999999999999876e+00
-5.300000000000000000e+01
7.669999999999999929e+00
2.282999999999999829e+01
6.960999999999999943e+01
-6.093999999999999773e+01
-5.378999999999999915e+01
1.098799999999999955e+02
2.294699999999999989e+02
-2.642300000000000182e+02
-1.081000000000000050e+01
1.726000000000000156e+01
-2.533999999999999986e+01
2.248999999999999844e+01
1.009999999999999964e+01
-3.352000000000000313e+01
2.500000000000000000e-01
7.419999999999999929e+00
-3.484000000000000341e+01
1.408999999999999986e+01
2.678000000000000114e+01
7.929999999999999716e+00
4.485000000000000142e+01
-4.154999999999999716e+01
1.260000000000000009e+00
3.972999999999999687e+01
3.588000000000000256e+01
4.099999999999999645e+00
-2.307000000000000028e+01
4.217000000000000171e+01
-2.437999999999999901e+01
-1.679999999999999938e+00
-1.682000000000000028e+01
-9.599999999999999645e-01
1.614000000000000057e+01
1.356899999999999977e+02
-1.279099999999999966e+02
5.167000000000000171e+01
2.033999999999999986e+01
1.206000000000000050e+01
-4.228000000000000114e+01
-1.388199999999999932e+02
9.454999999999999716e+01
-9.170000000000000284e+01
1.473000000000000043e+01
5.993999999999999773e+01
2.310000000000000053e+00
1.199999999999999956e-01
-5.777000000000000313e+01
2.658999999999999986e+01
1.195000000000000000e+02
-6.314999999999999858e+01
2.148999999999999844e+01
-2.482999999999999829e+01
2.217000000000000171e+01
1.786500000000000057e+02
-1.438899999999999864e+02
-8.700000000000000000e+01
1.976000000000000156e+01
1.289000000000000057e+02
5.221000000000000085e+01
-1.022800000000000011e+02
-2.950000000000000000e+01
6.489000000000000057e+01
-1.252800000000000011e+02
1.560999999999999943e+01
-1.023000000000000043e+01
-3.580000000000000071e+00
-4.089999999999999858e+00
-7.481999999999999318e+01
2.390000000000000124e+00
-1.426999999999999957e+01
-3.814999999999999858e+01
-4.543999999999999773e+01
7.035999999999999943e+01
3.813000000000000256e+01
-6.160000000000000142e+00
2.119999999999999929e+01
-2.870000000000000107e+00
2.051000000000000156e+01
-2.141000000000000014e+01
-1.514000000000000057e+01
2.155000000000000071e+01
4.519999999999999574e+00
-3.489000000000000057e+01
3.009999999999999787e+00
2.026999999999999957e+01
3.970000000000000195e+00
1.210400000000000063e+02
-9.853000000000000114e+01
-4.692999999999999972e+01
4.682999999999999829e+01
-7.834999999999999432e+01
-1.251999999999999957e+01
4.849999999999999645e+00
3.425000000000000000e+01
4.789000000000000057e+01
-8.554000000000000625e+01
-6.700000000000000400e-01
-6.359000000000000341e+01
2.631100000000000136e+02
-5.621000000000000085e+01
-2.395099999999999909e+02
3.624000000000000199e+01
-6.999999999999999556e-01
5.370000000000000284e+01
3.146999999999999886e+01
-5.763000000000000256e+01
6.701999999999999602e+01
1.469999999999999929e+01
8.619999999999999218e+00
-3.035000000000000142e+01
-5.168999999999999773e+01
3.160999999999999943e+01
8.090999999999999659e+01
4.750000000000000000e+01
-2.072800000000000011e+02
8.632999999999999829e+01
8.642000000000000171e+01
-5.856000000000000227e+01
-1.486999999999999922e+01
-7.006000000000000227e+01
3.314000000000000057e+01
1.230000000000000071e+01
1.558999999999999986e+01
-6.862000000000000455e+01
-1.032999999999999972e+02
8.057999999999999829e+01
4.189000000000000057e+01
8.543000000000000682e+01
-1.452299999999999898e+02
-8.160000000000000142e+00
-4.110000000000000320e+00
-1.249399999999999977e+02
4.456000000000000227e+01
9.148000000000000398e+01
8.203000000000000114e+01
1.102900000000000063e+02
1.003999999999999915e+01
-8.015000000000000568e+01
3.479999999999999716e+01
6.296000000000000085e+01
-1.327700000000000102e+02
-7.604999999999999716e+01
2.615799999999999841e+02
1.623700000000000045e+02
-9.575000000000000000e+01
-1.178299999999999983e+02
5.178000000000000114e+01
-5.220000000000000284e+01
-1.899999999999999911e+00
3.375999999999999801e+01
-1.055900000000000034e+02
-1.227300000000000040e+02
3.111600000000000250e+02
1.437899999999999920e+02
-2.311899999999999977e+02
7.293000000000000682e+01
3.314000000000000057e+01
7.351999999999999602e+01
-1.433100000000000023e+02
-6.528000000000000114e+01
5.171000000000000085e+01
-4.152000000000000313e+01
-3.939999999999999947e+00
-2.457999999999999829e+01
7.900000000000000355e+00
7.801999999999999602e+01
-5.153999999999999915e+01
4.845000000000000284e+01
7.454000000000000625e+01
2.851000000000000156e+01
-1.571100000000000136e+02
1.255199999999999960e+02
7.714000000000000057e+01
-3.882799999999999727e+02
2.436100000000000136e+02
-2.840600000000000023e+02
2.029199999999999875e+02
9.003000000000000114e+01
-1.311399999999999864e+02
1.095999999999999943e+02
1.236500000000000057e+02
-1.573600000000000136e+02
1.499399999999999977e+02
-9.190000000000000568e+01
-2.181100000000000136e+02
-1.030600000000000023e+02
1.291899999999999977e+02
1.515300000000000011e+02
2.449499999999999886e+02
-3.408999999999999773e+02
5.257999999999999829e+01
2.858999999999999986e+01
-6.815999999999999659e+01
8.767000000000000171e+01
5.730000000000000426e+00
-1.887999999999999901e+01
1.130100000000000051e+02
-5.928000000000000114e+01
2.730999999999999872e+01
2.232000000000000028e+01
-6.669999999999999929e+00
-7.580000000000000071e+00
5.029999999999999716e+01
-4.621000000000000085e+01
-9.810000000000000497e+00
7.950000000000000178e+00
-2.596000000000000085e+01
1.091000000000000014e+01
-7.378000000000000114e+01
1.075999999999999979e+01
1.119999999999999929e+01
9.269999999999999574e+00
2.557999999999999829e+01
-1.464000000000000057e+01
-1.525000000000000000e+01
4.379999999999999716e+01
7.320000000000000284e+00
2.571000000000000085e+01
1.114699999999999989e+02
-8.029999999999999361e+00
-8.139000000000000057e+01
2.079199999999999875e+02
-3.237400000000000091e+02
-1.060799999999999983e+02
3.164999999999999858e+01
5.889999999999999680e+00
3.696000000000000085e+01
9.390000000000000568e+01
2.008000000000000114e+02
8.723000000000000398e+01
-1.029699999999999989e+02
5.792000000000000171e+01
-1.355200000000000102e+02
-9.301999999999999602e+01
2.605899999999999750e+02
-8.326000000000000512e+01
-5.907999999999999829e+01
-1.043599999999999994e+02
8.376000000000000512e+01
-1.071500000000000057e+02
2.900000000000000000e+02
-1.558000000000000007e+01
1.042500000000000000e+02
-5.560000000000000142e+01
-6.565000000000000568e+01
-8.787999999999999545e+01
3.666700000000000159e+02
-2.655600000000000023e+02
-4.802000000000000313e+01
1.294999999999999929e+01
-1.409999999999999920e+00
9.606000000000000227e+01
1.741000000000000014e+01
-3.567999999999999972e+01
4.139000000000000057e+01
3.882000000000000028e+01
8.290000000000000568e+01
-6.269999999999999574e+00
-7.570000000000000284e+01
-1.837000000000000099e+01
5.934000000000000341e+01
2.873000000000000043e+01
5.036999999999999744e+01
-1.339000000000000057e+01
9.373999999999999488e+01
-3.229999999999999982e+00
-5.446000000000000085e+01
8.018000000000000682e+01
-1.471899999999999977e+02
2.373999999999999844e+01
1.330800000000000125e+02
1.320000000000000062e+00
-3.114999999999999858e+01
-3.542000000000000171e+01
1.662000000000000099e+01
2.475000000000000000e+01
1.601000000000000156e+01
-7.748000000000000398e+01
8.990000000000000213e+00
1.930000000000000071e+01
-1.389999999999999902e+00
4.800999999999999801e+01
-7.859000000000000341e+01
9.369999999999999218e+00
8.156000000000000227e+01
1.050000000000000000e+01
-7.530000000000000249e+00
-3.117999999999999972e+01
7.740000000000000213e+00
1.798600000000000136e+02
1.945300000000000011e+02
-6.379999999999999893e+00
6.215999999999999659e+01
-2.298100000000000023e+02
-6.971999999999999886e+01
1.226200000000000045e+02
-1.126099999999999994e+02
6.143999999999999773e+01
5.029999999999999716e+01
-3.693999999999999773e+01
1.076999999999999957e+01
-6.940999999999999659e+01
3.932000000000000028e+01
7.268999999999999773e+01
-2.171999999999999886e+01
-2.967999999999999972e+01
1.680999999999999872e+01
-2.823000000000000043e+01
-2.728000000000000114e+01
-9.390000000000000568e+00
-6.353999999999999915e+01
3.075000000000000000e+01
8.554000000000000625e+01
1.814999999999999858e+01
-1.620000000000000107e+00
7.330000000000000071e+00
1.258999999999999986e+01
9.240000000000000213e+00
-2.025000000000000000e+01
-9.259999999999999787e+00
-1.533000000000000007e+01
-3.353000000000000114e+01
3.411999999999999744e+01
2.779999999999999805e+00
4.000000000000000222e-01
2.308999999999999986e+01
-1.466999999999999993e+01
1.619999999999999929e+01
8.740000000000000213e+00
-1.830000000000000071e+00
2.017000000000000171e+01
1.433000000000000007e+01
-8.251999999999999602e+01
5.370000000000000107e+00
2.628999999999999915e+01
3.532000000000000028e+01
4.600000000000000200e-01
-2.410999999999999943e+01
8.179999999999999716e+00
-9.580000000000000071e+00
-2.207000000000000028e+01
2.587000000000000099e+01
-7.160000000000000142e+00
3.660000000000000142e+00
4.400000000000000000e+01
-2.835000000000000142e+01
2.312999999999999901e+01
1.796000000000000085e+01
1.283700000000000045e+02
2.512999999999999901e+01
-7.009999999999999787e+00
-1.406899999999999977e+02
1.525500000000000114e+02
-4.153999999999999915e+01
-9.548000000000000398e+01
4.510000000000000142e+01
-6.931999999999999318e+01
-1.524000000000000021e+01
-3.055999999999999872e+01
2.664999999999999858e+01
2.239000000000000057e+01
-3.689000000000000057e+01
6.943999999999999773e+01
9.250000000000000000e+00
-2.905999999999999872e+01
7.981999999999999318e+01
-1.532599999999999909e+02
-3.160000000000000142e+01
-6.889999999999999680e+00
8.445000000000000284e+01
-1.153199999999999932e+02
3.871999999999999886e+01
-5.896000000000000085e+01
1.035000000000000000e+02
3.459000000000000341e+01
1.439999999999999947e+00
3.525999999999999801e+01
-3.490999999999999659e+01
9.060000000000000497e+00
4.293999999999999773e+01
-3.175000000000000000e+01
-4.704999999999999716e+01
3.535000000000000142e+01
-7.509999999999999787e+00
2.696999999999999886e+01
2.451000000000000156e+01
-3.735000000000000142e+01
4.650999999999999801e+01
2.725000000000000000e+01
5.706000000000000227e+01
2.726000000000000156e+01
-1.275999999999999943e+02
6.375999999999999801e+01
1.519999999999999929e+01
3.076999999999999957e+01
-1.191000000000000014e+01
-1.263499999999999943e+02
1.036099999999999994e+02
6.346999999999999886e+01
-5.942000000000000171e+01
1.366000000000000014e+01
-3.497999999999999687e+01
3.285000000000000142e+01
-6.990000000000000213e+00
1.043999999999999950e+01
-5.502000000000000313e+01
5.349999999999999645e+00
-1.340000000000000080e+00
2.551000000000000156e+01
-9.279999999999999361e+00
3.492999999999999972e+01
3.781000000000000227e+01
-3.350000000000000089e+00
-5.299000000000000199e+01
-4.740000000000000213e+00
5.857999999999999829e+01
7.525000000000000000e+01
-1.229999999999999982e+00
-1.964000000000000057e+01
1.619000000000000128e+01
-1.455800000000000125e+02
5.870000000000000284e+01
1.270000000000000018e+00
1.882999999999999829e+01
-1.794999999999999929e+01
-6.704000000000000625e+01
6.031000000000000227e+01
-2.996999999999999886e+01
1.862999999999999901e+01
-4.896000000000000085e+01
2.669999999999999929e+00
5.967999999999999972e+01
4.932000000000000028e+01
1.819000000000000128e+01
-1.435300000000000011e+02
4.236999999999999744e+01
9.868000000000000682e+01
-6.225999999999999801e+01
-3.367999999999999972e+01
-5.703999999999999915e+01
6.951999999999999602e+01
3.524000000000000199e+01
-1.465000000000000036e+01
-7.220000000000000284e+01
1.011999999999999922e+01
5.718999999999999773e+01
-4.757999999999999829e+01
-5.854999999999999716e+01
5.299999999999999822e+00
6.771999999999999886e+01
2.332000000000000028e+01
-1.841000000000000014e+01
3.410000000000000142e+01
-7.751999999999999602e+01
1.629499999999999886e+02
8.340999999999999659e+01
-6.007999999999999829e+01
-1.488000000000000078e+01
3.524000000000000199e+01
7.546999999999999886e+01
-7.043000000000000682e+01
-6.056000000000000227e+01
-6.117999999999999972e+01
4.339000000000000057e+01
4.028000000000000114e+01
-1.409999999999999920e+00
-1.033000000000000007e+01
-8.215000000000000568e+01
5.081000000000000227e+01
-7.990000000000000213e+00
3.839999999999999858e+00
-6.629999999999999893e+00
-3.235000000000000142e+01
4.378999999999999915e+01
-3.313000000000000256e+01
-8.529999999999999716e+01
6.898999999999999488e+01
7.973000000000000398e+01
5.410999999999999943e+01
5.200000000000000178e+00
-1.639999999999999902e+00
3.767999999999999972e+01
-4.856000000000000227e+01
-2.342999999999999972e+01
4.571000000000000085e+01
-3.270000000000000018e+00
-1.036299999999999955e+02
-2.303000000000000114e+01
-3.928999999999999915e+01
8.587000000000000455e+01
6.843999999999999773e+01
-1.033100000000000023e+02
5.929999999999999716e+00
3.746000000000000085e+01
-3.491399999999999864e+02
3.026999999999999886e+02
9.884999999999999432e+01
-5.506000000000000227e+01
3.060999999999999943e+01
-6.297999999999999687e+01
-6.386999999999999744e+01
8.898000000000000398e+01
-5.545000000000000284e+01
-5.090999999999999659e+01
-5.289000000000000057e+01
-1.008700000000000045e+02
2.123000000000000043e+01
-8.235999999999999943e+01
1.646999999999999886e+01
-8.129000000000000625e+01
-4.046000000000000085e+01
7.012000000000000455e+01
9.326999999999999602e+01
-1.115900000000000034e+02
1.370600000000000023e+02
-1.498100000000000023e+02
2.428999999999999915e+01
2.087000000000000099e+01
1.989000000000000057e+01
1.037199999999999989e+02
-1.828999999999999915e+01
9.057999999999999829e+01
-1.493600000000000136e+02
9.640000000000000568e+00
9.593000000000000682e+01
-3.278999999999999915e+01
8.299999999999999600e-01
-5.440000000000000391e+00
-1.183900000000000006e+02
1.775699999999999932e+02
1.378999999999999915e+01
-6.806000000000000227e+01
2.360000000000000142e+01
3.925000000000000000e+01
1.644000000000000128e+01
-1.839000000000000057e+01
-6.820000000000000284e+00
3.211999999999999744e+01
9.851000000000000512e+01
4.150999999999999801e+01
-1.678600000000000136e+02
-8.098999999999999488e+01
6.211999999999999744e+01
6.485999999999999943e+01
2.125800000000000125e+02
-1.504699999999999989e+02
-6.202000000000000313e+01
-2.389000000000000057e+01
2.270000000000000018e+00
-4.378999999999999915e+01
5.967999999999999972e+01
3.699000000000000199e+01
-5.484000000000000341e+01
-5.977000000000000313e+01
1.805999999999999872e+01
9.410000000000000142e+00
4.918999999999999773e+01
-8.868000000000000682e+01
1.211899999999999977e+02
-6.385000000000000142e+01
-1.676000000000000156e+01
9.490000000000000213e+00
1.880999999999999872e+01
3.707000000000000028e+01
3.338000000000000256e+01
-8.919999999999999929e+00
-4.600000000000000200e-01
-1.769000000000000128e+01
-2.637999999999999901e+01
2.735000000000000142e+01
3.502000000000000313e+01
-9.509999999999999787e+00
-1.353999999999999915e+01
1.916000000000000014e+01
-3.135999999999999943e+01
2.178000000000000114e+01
3.850999999999999801e+01
5.580000000000000071e+00
-1.741000000000000014e+01
2.689000000000000057e+01
-7.509999999999999787e+00
-9.949999999999999289e+00
6.089999999999999858e+00
-2.419999999999999929e+00
-5.070000000000000284e+00
2.080000000000000071e+00
-3.490000000000000213e+00
9.100000000000000311e-01
4.610000000000000320e+00
-4.950000000000000178e+00
1.340000000000000080e+00
3.799999999999999822e+00
-4.669999999999999929e+00
4.629999999999999893e+00
1.989999999999999991e+00
-4.370000000000000107e+00
-3.140000000000000124e+00
6.759999999999999787e+00
-5.469999999999999751e+00
-6.900000000000000355e+00
6.160000000000000142e+00
3.439999999999999947e+00
-3.580000000000000071e+00
1.649999999999999911e+00
-7.679999999999999716e+00
-4.629999999999999893e+00
1.066999999999999993e+01
-4.839999999999999858e+00
-5.969999999999999751e+00
6.200000000000000178e+00
4.559999999999999609e+00
-5.049999999999999822e+00
3.939999999999999947e+00
-3.500000000000000000e+00
-2.509999999999999787e+00
4.509999999999999787e+00
-3.029999999999999805e+00
-9.900000000000000355e+00
5.400000000000000355e+00
-3.300000000000000155e-01
-8.089999999999999858e+00
1.189999999999999947e+00
5.690000000000000391e+00
1.239999999999999991e+00
1.138000000000000078e+01
8.250000000000000000e+00
4.919999999999999929e+00
-7.389999999999999680e+00
-1.659999999999999920e+00
-4.450000000000000178e+00
-7.660000000000000142e+00
4.450000000000000178e+00
-1.700000000000000122e-01
-6.459999999999999964e+00
5.049999999999999822e+00
-7.399999999999999911e-01
-6.459999999999999964e+00
6.469999999999999751e+00
1.840000000000000080e+00
-6.269999999999999574e+00
5.099999999999999645e+00
1.879999999999999893e+00
-6.860000000000000320e+00
-1.069999999999999929e+01
4.734000000000000341e+01
1.419999999999999929e+00
-1.151999999999999957e+01
2.310000000000000053e+00
1.701000000000000156e+01
1.340000000000000036e+01
1.828300000000000125e+02
-2.498000000000000114e+02
1.002999999999999936e+01
9.359999999999999432e+00
-5.003000000000000114e+01
-1.589000000000000057e+01
4.711999999999999744e+01
1.530000000000000027e+00
-2.653000000000000114e+01
-4.900000000000000355e+00
1.103999999999999915e+01
1.100000000000000006e-01
-1.000000000000000021e-02
-5.299999999999999822e+00
8.410000000000000142e+00
1.291999999999999993e+01
-1.766000000000000014e+01
-1.714999999999999858e+01
5.577000000000000313e+01
1.050400000000000063e+02
-8.795000000000000284e+01
-8.019999999999999574e+00
-8.318000000000000682e+01
4.972999999999999687e+01
3.935999999999999943e+01
-2.569999999999999840e+00
1.687999999999999901e+01
1.047000000000000064e+01
-2.870000000000000107e+00
9.869999999999999218e+00
1.008999999999999986e+01
4.339999999999999858e+00
3.048999999999999844e+01
-8.169999999999999929e+00
1.261999999999999922e+01
1.016999999999999993e+01
2.476000000000000156e+01
1.000000000000000000e+01
-6.637999999999999545e+01
-3.400000000000000000e+01
3.404999999999999716e+01
1.030600000000000023e+02
-1.310500000000000114e+02
-4.820000000000000284e+01
-4.475000000000000000e+01
2.507999999999999829e+01
7.656000000000000227e+01
-3.203000000000000114e+01
1.303999999999999915e+01
-4.009000000000000341e+01
2.076000000000000156e+01
6.300999999999999801e+01
-7.510999999999999943e+01
-1.923999999999999844e+01
-6.169999999999999929e+00
-1.213000000000000078e+01
4.131000000000000227e+01
7.226999999999999602e+01
-3.005000000000000071e+01
5.635999999999999943e+01
-3.964999999999999858e+01
-9.619999999999999218e+00
-9.650000000000000355e+00
7.617000000000000171e+01
1.479099999999999966e+02
-1.865099999999999909e+02
-3.171000000000000085e+01
8.480000000000000426e+00
3.300000000000000155e-01
-1.199999999999999956e-01
2.330000000000000071e+00
3.800000000000000044e-01
3.750000000000000000e+00
1.429999999999999938e+00
6.410000000000000142e+00
5.100000000000000089e-01
-3.479999999999999982e+00
1.449999999999999956e+00
-3.089999999999999858e+00
5.240000000000000213e+00
-2.709999999999999964e+00
-7.080000000000000071e+00
7.570000000000000284e+00
2.459999999999999964e+00
-5.530000000000000249e+00
4.849999999999999645e+00
3.310000000000000053e+00
-7.800000000000000266e-01
-8.779999999999999361e+00
5.389999999999999680e+00
2.390000000000000124e+00
-4.459999999999999964e+00
2.000000000000000000e+00
4.610000000000000320e+00
-1.070000000000000062e+00
-5.379999999999999893e+00
3.540000000000000036e+00
1.400000000000000133e-01
-3.240000000000000213e+00
4.259999999999999787e+00
3.080000000000000071e+00
-2.240000000000000213e+00
-9.009999999999999787e+00
3.399999999999999911e+00
1.810000000000000053e+00
-3.290000000000000036e+00
3.240000000000000213e+00
3.439999999999999947e+00
-2.919999999999999929e+00
1.469999999999999973e+00
2.990000000000000213e+00
-1.030000000000000027e+00
-3.189999999999999947e+00
4.599999999999999645e+00
3.970000000000000195e+00
4.400000000000000022e-01
-2.800000000000000266e-01
3.399999999999999911e+00
1.340000000000000080e+00
-8.119999999999999218e+00
6.800000000000000488e-01
3.589999999999999858e+00
-7.700000000000000178e-01
3.569999999999999840e+00
1.449999999999999956e+00
-4.259999999999999787e+00
-3.290000000000000036e+00
6.599999999999999645e+00
-2.459999999999999964e+00
-6.490000000000000213e+00
4.120000000000000107e+00
1.639999999999999902e+00
-4.019999999999999574e+00
1.379999999999999893e+00
3.390000000000000124e+00
-3.100000000000000089e+00
-1.469999999999999929e+01
6.070000000000000284e+00
2.549999999999999822e+00
-6.330000000000000071e+00
-2.999999999999999889e-01
1.009999999999999964e+01
-2.120000000000000107e+00
-7.870000000000000107e+00
3.419999999999999929e+00
3.140000000000000124e+00
-4.049999999999999822e+00
5.610000000000000320e+00
-1.060000000000000053e+00
-4.509999999999999787e+00
-4.639999999999999680e+00
2.899999999999999800e-01
4.899999999999999911e-01
-4.370000000000000107e+00
6.950000000000000178e+00
-4.110000000000000320e+00
-1.275000000000000000e+01
-2.157000000000000028e+01
2.533999999999999986e+01
9.699999999999999289e+00
-1.969999999999999973e+00
4.240000000000000213e+00
-2.689999999999999947e+00
-6.700000000000000178e+00
7.429999999999999716e+00
1.159999999999999920e+00
-5.480000000000000426e+00
7.769999999999999574e+00
5.910000000000000142e+00
-2.439999999999999947e+00
1.491999999999999993e+01
7.299999999999999822e+00
-1.025999999999999979e+01
-9.410000000000000142e+00
1.989999999999999991e+00
-1.540000000000000036e+00
-1.328999999999999915e+01
4.190000000000000391e+00
3.839999999999999858e+00
-2.910000000000000142e+00
1.899999999999999911e+00
1.139999999999999902e+00
2.800000000000000266e-01
-6.719999999999999751e+00
2.779999999999999805e+00
2.359999999999999876e+00
-7.709999999999999964e+00
4.330000000000000071e+00
-3.699999999999999956e-01
-5.230000000000000426e+00
-2.009999999999999787e+00
3.009999999999999787e+00
-2.770000000000000018e+00
-8.109999999999999432e+00
7.660000000000000142e+00
6.299999999999999822e+00
-1.340000000000000080e+00
5.349999999999999645e+00
1.409999999999999920e+00
-3.850000000000000089e+00
-1.034999999999999964e+01
6.870000000000000107e+00
2.009999999999999787e+00
-5.639999999999999680e+00
5.400000000000000355e-01
3.160999999999999943e+01
7.659000000000000341e+01
1.072999999999999972e+02
-6.573000000000000398e+01
-7.987000000000000455e+01
5.625999999999999801e+01
-5.440999999999999659e+01
-1.104399999999999977e+02
-5.610000000000000142e+01
2.117999999999999972e+01
2.271999999999999886e+01
2.700000000000000000e+01
-4.557000000000000028e+01
3.807000000000000028e+01
5.639999999999999680e+00
-1.862000000000000099e+01
-8.800000000000000044e-01
1.499000000000000021e+01
1.426999999999999957e+01
-1.310000000000000053e+00
1.040000000000000036e+01
1.671000000000000085e+01
-7.950000000000000178e+00
1.358999999999999986e+01
-3.339999999999999858e+00
-1.748999999999999844e+01
1.071000000000000085e+01
4.271999999999999886e+01
-2.437000000000000099e+01
1.246000000000000085e+01
5.138000000000000256e+01
-1.024500000000000028e+02
-4.299999999999999933e-01
1.785699999999999932e+02
2.496100000000000136e+02
9.029999999999999361e+00
-3.469499999999999886e+02
-2.561100000000000136e+02
1.100000000000000000e+02
-3.442000000000000171e+01
-2.794000000000000128e+01
4.500000000000000111e-01
4.550999999999999801e+01
1.567400000000000091e+02
-1.434600000000000080e+02
-4.488000000000000256e+01
4.778000000000000114e+01
-2.746000000000000085e+01
-8.740000000000000213e+00
6.823000000000000398e+01
1.469999999999999973e+00
-1.500000000000000000e+00
-3.017999999999999972e+01
3.128000000000000114e+01
8.310999999999999943e+01
-9.121999999999999886e+01
3.060000000000000053e+00
-2.237999999999999901e+01
1.907999999999999829e+01
5.617000000000000171e+01
-7.969999999999999751e+00
-3.392999999999999972e+01
-8.789999999999999147e+00
1.102999999999999936e+01
9.849999999999999645e+00
-1.805999999999999872e+01
9.949999999999999289e+00
8.109999999999999432e+00
8.800000000000000044e-01
9.849999999999999645e+00
5.390999999999999659e+01
1.280699999999999932e+02
-1.127800000000000011e+02
-9.246999999999999886e+01
-7.820999999999999375e+01
-9.398999999999999488e+01
1.199399999999999977e+02
1.385000000000000000e+02
7.909000000000000341e+01
-2.603100000000000023e+02
9.150000000000000000e+01
-2.541000000000000014e+01
2.319000000000000128e+01
-3.108399999999999750e+02
-1.518899999999999864e+02
-1.154800000000000040e+02
3.499999999999999778e-01
2.741200000000000045e+02
9.346999999999999886e+01
2.024099999999999966e+02
-1.465900000000000034e+02
-1.443400000000000034e+02
7.598000000000000398e+01
1.103900000000000006e+02
3.817999999999999972e+01
2.710000000000000000e+02
-1.938700000000000045e+02
-1.830699999999999932e+02
-6.931999999999999318e+01
3.567000000000000171e+01
3.272999999999999687e+01
8.379999999999999716e+01
-7.042000000000000171e+01
3.350000000000000089e+00
1.425900000000000034e+02
-1.260699999999999932e+02
-3.696999999999999886e+01
-1.285999999999999943e+01
2.810999999999999943e+01
1.860000000000000098e+00
-1.524000000000000021e+01
2.191000000000000014e+01
8.740000000000000213e+00
-1.348000000000000043e+01
3.674000000000000199e+01
4.610000000000000320e+00
-1.282000000000000028e+01
1.435999999999999943e+01
1.051999999999999957e+01
-5.580000000000000071e+00
-1.209999999999999964e+00
1.322000000000000064e+01
2.270000000000000018e+00
-9.759999999999999787e+00
5.030000000000000249e+00
1.879999999999999893e+00
-9.650000000000000355e+00
8.609999999999999432e+00
5.299999999999999822e+00
2.999999999999999889e-01
2.532000000000000028e+01
1.070799999999999983e+02
1.533600000000000136e+02
-1.783400000000000034e+02
2.478000000000000114e+01
-1.974199999999999875e+02
8.704999999999999716e+01
5.374000000000000199e+01
4.246999999999999886e+01
-6.679999999999999716e+00
3.008999999999999986e+01
-4.029999999999999716e+01
-4.160000000000000142e+00
-4.254999999999999716e+01
3.995000000000000284e+01
-2.716000000000000014e+01
-4.160999999999999943e+01
3.214000000000000057e+01
1.591000000000000014e+01
-7.395000000000000284e+01
-4.189999999999999858e+01
5.099999999999999645e+00
2.937000000000000099e+01
-2.008999999999999986e+01
7.479000000000000625e+01
-8.064000000000000057e+01
-7.329000000000000625e+01
5.907000000000000028e+01
1.669999999999999929e+01
-3.155000000000000071e+01
2.308999999999999986e+01
1.628999999999999915e+01
-1.919999999999999929e+01
-1.301999999999999957e+01
3.489000000000000057e+01
4.679999999999999716e+00
-5.053999999999999915e+01
4.367000000000000171e+01
2.926999999999999957e+01
-1.515000000000000036e+01
-2.978000000000000114e+01
4.527000000000000313e+01
1.523000000000000043e+01
-3.943999999999999773e+01
2.648000000000000043e+01
3.350999999999999801e+01
-2.830000000000000071e+00
-5.646000000000000085e+01
4.196999999999999886e+01
2.501000000000000156e+01
-2.037999999999999901e+01
-6.429999999999999716e+00
2.792000000000000171e+01
-1.209999999999999964e+00
-4.642000000000000171e+01
2.853000000000000114e+01
1.336999999999999922e+01
-2.583999999999999986e+01
-1.325000000000000000e+01
3.484000000000000341e+01
2.410000000000000142e+00
-3.838000000000000256e+01
2.571999999999999886e+01
1.323000000000000043e+01
-1.916000000000000014e+01
1.120000000000000107e+00
2.108999999999999986e+01
-1.050000000000000000e+01
-4.875000000000000000e+01
3.332000000000000028e+01
1.431000000000000050e+01
-2.864000000000000057e+01
1.525999999999999979e+01
2.301999999999999957e+01
-1.278999999999999915e+01
-4.510000000000000142e+01
3.665999999999999659e+01
1.340000000000000036e+01
-2.344000000000000128e+01
-2.250000000000000000e+00
3.146000000000000085e+01
-3.430000000000000160e+00
-4.820000000000000284e+01
3.282999999999999829e+01
1.905999999999999872e+01
-1.907999999999999829e+01
-2.800000000000000266e-01
2.621000000000000085e+01
-2.899999999999999911e+00
-4.653000000000000114e+01
3.371999999999999886e+01
1.115000000000000036e+01
-2.814999999999999858e+01
1.862000000000000099e+01
1.710999999999999943e+01
-1.985999999999999943e+01
-3.098000000000000043e+01
1.685999999999999943e+01
-1.939999999999999947e+00
-3.307000000000000028e+01
4.615999999999999659e+01
2.292999999999999972e+01
-3.014000000000000057e+01
1.091000000000000014e+01
2.185999999999999943e+01
-1.844000000000000128e+01
-2.198999999999999844e+01
3.524000000000000199e+01
2.839999999999999858e+00
-4.929999999999999716e+01
3.288000000000000256e+01
2.076000000000000156e+01
-1.973000000000000043e+01
-4.889999999999999680e+00
2.528999999999999915e+01
-3.500000000000000000e+00
-4.392999999999999972e+01
3.213000000000000256e+01
8.849999999999999645e+00
-3.675000000000000000e+01
1.819999999999999929e+01
2.166000000000000014e+01
-9.130000000000000782e+00
-2.998000000000000043e+01
3.078999999999999915e+01
1.560000000000000053e+00
-4.865999999999999659e+01
2.150000000000000000e+01
1.172000000000000064e+01
-2.133999999999999986e+01
2.096000000000000085e+01
2.696999999999999886e+01
3.720000000000000195e+00
-2.770000000000000018e+00
1.923000000000000043e+01
-1.133000000000000007e+01
-4.817000000000000171e+01
2.289000000000000057e+01
-3.479999999999999982e+00
-5.235999999999999943e+01
3.478000000000000114e+01
1.083000000000000007e+01
-4.072999999999999687e+01
3.692999999999999972e+01
1.637000000000000099e+01
-2.823999999999999844e+01
2.085999999999999943e+01
1.605000000000000071e+01
-2.066000000000000014e+01
8.000000000000000000e+00
2.157000000000000028e+01
-1.374000000000000021e+01
-2.071999999999999886e+01
3.529999999999999716e+01
7.120000000000000107e+00
-3.585999999999999943e+01
2.141000000000000014e+01
9.150000000000000355e+00
-3.155999999999999872e+01
2.223000000000000043e+01
6.059999999999999609e+00
-1.758999999999999986e+01
1.390000000000000036e+01
-2.029999999999999805e+00
-2.889000000000000057e+01
-2.164000000000000057e+01
7.354000000000000625e+01
1.932000000000000028e+01
-6.668999999999999773e+01
2.250000000000000000e+00
1.198000000000000043e+01
3.397999999999999687e+01
-2.009999999999999787e+00
-1.438000000000000078e+01
-9.640000000000000568e+00
-8.399999999999999689e-01
4.653999999999999915e+01
-3.600000000000000089e+00
-9.870999999999999375e+01
1.499000000000000021e+01
1.296000000000000085e+01
-3.155000000000000071e+01
2.646999999999999886e+01
-3.859999999999999876e+00
5.854999999999999716e+01
1.504300000000000068e+02
-4.060099999999999909e+02
-1.566100000000000136e+02
2.926000000000000156e+01
8.537999999999999545e+01
3.540999999999999659e+01
-2.112999999999999901e+01
3.288000000000000256e+01
-2.887999999999999901e+01
1.570500000000000114e+02
4.822999999999999687e+01
-5.152000000000000313e+01
1.565000000000000036e+01
8.848000000000000398e+01
-6.185000000000000142e+01
8.028000000000000114e+01
8.389000000000000057e+01
-1.071899999999999977e+02
-1.169399999999999977e+02
7.099999999999999645e+00
-1.207699999999999960e+02
1.556500000000000057e+02
-5.942000000000000171e+01
-5.918999999999999773e+01
3.674000000000000199e+01
-1.871999999999999886e+01
-2.742000000000000171e+01
1.619000000000000128e+01
1.021800000000000068e+02
7.493999999999999773e+01
2.308999999999999986e+01
1.145600000000000023e+02
-4.195000000000000000e+02
1.870900000000000034e+02
-2.717500000000000000e+02
-1.489600000000000080e+02
-5.632000000000000028e+01
5.640999999999999659e+01
3.525999999999999801e+01
8.554000000000000625e+01
7.650000000000000000e+01
-1.303999999999999915e+01
1.066400000000000006e+02
6.596999999999999886e+01
-9.740999999999999659e+01
3.497999999999999687e+01
9.360999999999999943e+01
-2.894999999999999929e+01
2.248999999999999844e+01
-3.121000000000000085e+01
-4.215999999999999659e+01
1.451599999999999966e+02
4.261999999999999744e+01
-8.687999999999999545e+01
-9.531000000000000227e+01
5.167000000000000171e+01
6.775000000000000000e+01
-5.709999999999999964e+00
-1.679999999999999938e+00
-4.156000000000000227e+01
-6.230000000000000426e+00
1.548000000000000043e+01
1.164000000000000057e+02
1.208000000000000007e+01
-8.312999999999999545e+01
-3.180000000000000071e+01
-5.690000000000000391e+00
4.615999999999999659e+01
-4.695000000000000284e+01
-4.484000000000000341e+01
-4.889000000000000057e+01
2.610000000000000142e+01
4.963000000000000256e+01
-4.703000000000000114e+01
-3.867000000000000171e+01
2.748000000000000043e+01
4.154999999999999716e+01
-3.271999999999999886e+01
-3.765999999999999659e+01
-2.553000000000000114e+01
-2.040000000000000036e+00
6.429999999999999716e+01
-7.929999999999999716e+00
-3.158999999999999986e+01
-4.459999999999999964e+00
5.250000000000000000e+01
1.776999999999999957e+01
-5.549000000000000199e+01
-8.750000000000000000e+00
1.687000000000000099e+01
3.657000000000000028e+01
9.849999999999999645e+00
-3.053000000000000114e+01
-5.099999999999999645e+00
3.578999999999999915e+01
4.035000000000000142e+01
-4.110000000000000142e+01
1.456000000000000050e+01
1.028400000000000034e+02
-8.695000000000000284e+01
-7.479000000000000625e+01
-1.358199999999999932e+02
7.209999999999999964e+00
8.171999999999999886e+01
-1.639000000000000057e+01
9.740000000000000213e+00
7.595999999999999375e+01
1.357100000000000080e+02
-8.825000000000000000e+01
-1.193999999999999950e+01
1.087800000000000011e+02
-1.626999999999999957e+01
-1.757299999999999898e+02
8.918999999999999773e+01
5.796999999999999886e+01
-3.249900000000000091e+02
-3.765999999999999659e+01
1.313499999999999943e+02
-8.973999999999999488e+01
-3.663000000000000256e+01
5.634000000000000341e+01
1.040799999999999983e+02
