1594068355.00
64.000000
-0.00
-0.00
-0.00
-0.00
-0.00
-0.00
-0.00
-0.00
-0.00
-0.00
0.00
0.01
0.01
-0.00
-0.03
-0.05
-0.05
0.00
0.13
0.36
0.66
1.01
1.37
1.72
2.06
2.40
2.79
3.24
3.80
4.42
5.06
5.66
6.20
6.68
7.15
7.68
8.31
9.14
10.09
11.04
11.88
12.56
13.14
13.76
14.65
15.96
17.91
20.32
22.90
25.38
27.58
29.57
31.68
34.32
37.81
42.54
48.15
54.10
59.83
64.97
69.58
74.14
79.34
85.71
93.76
103.00
112.62
121.73
129.77
136.75
143.31
150.75
157.77
166.64
177.94
191.80
206.99
220.61
228.29
225.37
208.47
176.70
132.47
79.64
22.58
-35.47
-92.96
-149.68
-205.76
-260.95
-314.42
-364.67
-410.73
-451.86
-487.45
-516.65
-538.12
-550.16
-551.05
-539.71
-515.85
-480.58
-435.92
-384.49
-328.97
-271.74
-214.67
-159.12
-106.12
-56.36
-10.63
30.41
66.18
96.26
120.52
139.14
152.62
161.68
167.22
170.09
170.95
170.18
167.86
163.84
157.98
150.31
141.18
131.28
121.38
112.12
103.80
96.26
89.08
81.70
73.63
64.47
54.03
42.59
31.16
21.61
16.29
17.16
24.73
37.57
52.56
66.11
75.45
79.51
78.96
75.39
70.35
64.67
58.53
51.90
45.04
38.60
33.39
29.89
27.96
26.92
25.84
23.93
21.00
17.36
13.70
10.74
8.93
8.18
8.10
8.08
7.64
6.65
5.25
3.72
2.34
1.41
1.29
2.39
4.89
8.50
12.31
15.01
15.49
13.46
9.63
5.44
2.30
0.83
0.68
0.86
0.44
-0.72
-1.97
-2.29
-0.98
1.81
5.13
7.70
8.55
7.42
5.09
2.82
1.91
3.10
6.24
10.39
14.16
16.24
15.89
13.22
9.20
5.45
3.58
4.26
6.84
9.27
8.94
3.85
-6.29
-20.11
-35.21
-48.75
-57.71
-58.93
-49.93
-30.18
-2.65
26.03
47.42
54.78
46.28
26.09
2.23
-17.48
-28.91
-32.77
-32.75
-32.41
-32.99
-33.33
-31.58
-27.21
-21.71
-17.60
-16.84
-19.80
-24.93
-29.70
-31.91
-30.73
-26.94
-22.42
-19.20
-18.61
-20.86
-25.14
-30.10
-34.24
-36.20
-35.00
-30.17
-21.95
-11.38
-0.05
10.37
18.70
24.48
27.90
29.40
29.37
28.02
25.64
22.82
20.50
19.51
20.14
21.85
23.51
24.00
22.79
20.10
16.77
13.88
12.22
12.11
13.35
15.37
17.42
18.74
18.89
17.95
16.48
15.35
15.26
16.31
17.88
18.83
18.14
15.49
11.43
7.15
3.94
2.53
2.77
3.85
4.63
4.28
2.48
-0.54
-4.21
-7.94
-11.26
-13.93
-15.80
-16.78
-16.77
-15.70
-13.62
-10.85
-7.94
-5.52
-3.99
-3.24
-2.73
-1.84
-0.24
1.84
3.73
4.82
5.04
4.88
5.02
5.65
6.28
6.06
4.48
1.95
-0.40
-1.29
-0.38
1.52
2.87
2.34
-0.19
-3.58
-6.03
-6.08
-3.44
0.94
5.37
8.39
9.20
8.00
5.68
3.41
2.08
2.07
3.22
5.06
7.08
8.91
10.51
11.96
13.26
14.17
14.27
13.15
10.60
7.35
4.25
2.13
1.31
1.50
2.08
2.46
2.46
2.32
2.43
2.88
3.43
3.56
2.85
1.29
-0.72
-2.52
-3.56
-3.55
-2.72
-1.50
-0.40
0.19
0.06
-0.82
-2.38
-4.44
-6.82
-9.35
-11.90
-14.34
-16.53
-18.33
-19.59
-20.11
-19.85
-18.88
-17.48
-16.00
-14.67
-13.50
-12.18
-10.33
-7.72
-4.51
-1.20
1.66
3.77
5.23
6.40
7.58
8.69
9.32
9.02
7.68
5.73
4.07
3.57
4.69
7.20
10.33
13.10
14.78
15.13
14.35
12.85
11.05
9.13
7.05
4.71
2.08
-0.67
-3.12
-4.80
-5.36
-4.86
-3.79
-2.88
-2.77
-3.65
-5.14
-6.51
-7.15
-6.95
-6.44
-6.45
-7.58
-9.72
-11.99
-13.12
-12.11
-8.78
-3.88
1.25
5.33
7.67
8.33
8.02
7.58
7.54
7.88
8.20
8.07
7.37
6.43
5.79
5.89
6.71
7.76
8.36
8.02
6.78
5.18
3.92
3.49
3.79
4.19
3.86
2.20
-0.81
-4.53
-7.86
-9.73
-9.51
-7.31
-3.90
-0.31
2.65
4.72
6.29
8.08
10.60
13.76
16.91
19.11
19.72
18.85
17.37
16.52
17.26
19.87
23.79
27.98
31.42
33.56
34.45
34.54
34.22
33.68
32.86
31.76
30.74
30.49
31.62
34.10
36.93
38.35
36.58
30.70
21.13
9.33
-2.86
-14.22
-24.51
-34.30
-44.22
-54.29
-63.79
-71.65
-77.18
-80.72
-83.67
-87.80
-94.35
-103.23
-112.82
-120.52
-123.64
-120.44
-110.79
-96.18
-79.14
-62.47
-48.37
-38.03
-31.52
-28.08
-26.53
-25.72
-24.83
-23.53
-21.98
-20.57
-19.65
-19.40
-19.75
-20.54
-21.62
-22.83
-23.84
-23.99
-22.31
-17.82
-10.13
0.15
11.44
21.79
29.70
34.79
37.85
40.31
43.27
46.95
50.55
52.78
52.64
49.99
45.62
40.78
36.56
33.31
30.68
27.94
24.58
20.70
17.00
14.37
13.32
13.65
14.53
14.96
14.38
12.94
11.42
10.65
10.94
11.83
12.33
11.46
8.83
4.86
0.53
-3.09
-5.46
-6.69
-7.41
-8.23
-9.41
-10.69
-11.55
-11.61
-10.93
-10.04
-9.66
-10.28
-11.83
-13.71
-15.14
-15.56
-15.02
-14.07
-13.43
-13.50
-14.10
-14.62
-14.43
-13.33
-11.74
-10.44
-10.14
-11.04
-12.71
-14.32
-15.03
-14.33
-12.19
-8.87
-4.75
-0.10
4.88
10.09
15.34
20.39
24.91
28.61
31.35
33.16
34.22
34.79
35.14
35.44
35.81
36.28
36.89
37.67
38.64
39.80
41.09
42.38
43.44
43.96
43.63
42.30
40.05
37.25
34.54
32.48
31.19
30.11
28.09
23.76
16.12
4.96
-8.97
-24.18
-38.96
-51.85
-61.89
-68.69
-72.23
-72.77
-70.67
-66.38
-60.53
-53.83
-47.03
-40.68
-35.07
-30.14
-25.54
-20.91
-16.07
-11.24
-6.98
-3.93
-2.53
-2.73
-3.99
-5.48
-6.47
-6.53
-5.63
-4.05
-2.12
-0.15
1.65
3.05
3.87
3.96
3.32
2.19
0.87
-0.36
-1.43
-2.46
-3.72
-5.43
-7.67
-10.36
-13.27
-16.08
-18.32
-19.52
-19.25
-17.31
-13.81
-9.18
-3.97
1.37
6.62
11.72
16.56
20.89
24.35
26.69
27.91
28.34
28.45
28.58
28.81
28.87
28.41
27.27
25.55
23.54
21.46
19.36
17.08
14.56
11.93
9.72
8.68
9.45
12.16
16.27
20.75
24.57
27.19
28.70
29.79
31.42
34.38
38.73
43.66
48.09
51.13
52.61
52.88
52.77
53.17
54.72
57.27
59.81
61.15
60.38
57.18
51.50
43.76
34.80
25.97
18.64
13.60
11.39
11.04
11.69
11.66
9.10
2.85
-6.62
-18.12
-31.14
-45.95
-62.95
-82.38
-104.51
-129.49
-157.75
-185.53
-204.32
-208.29
-196.02
-171.48
-141.42
-112.13
-87.49
-69.56
-58.71
-54.32
-54.57
-55.05
-49.93
-34.08
-6.86
30.08
70.97
108.62
136.77
151.93
154.50
147.20
133.55
116.48
98.12
79.75
62.69
48.21
34.76
21.75
8.19
-6.73
-22.97
-39.21
-53.45
-63.59
-68.54
-68.79
-65.69
-61.12
-56.32
-51.33
-45.17
-36.76
-25.52
-11.78
3.52
19.76
36.79
55.04
75.02
96.52
118.22
137.96
153.79
165.15
173.64
182.47
195.02
213.06
235.36
257.66
274.06
279.41
271.30
250.88
221.72
187.93
152.37
115.91
78.24
39.40
1.12
-33.13
-59.35
-74.86
-79.70
-76.62
-69.95
-63.80
-60.65
-60.88
-63.36
-66.68
-70.08
-73.75
-78.39
-84.58
-92.33
-101.12
-110.19
-118.90
-127.07
-134.90
-142.75
-150.89
-159.13
-166.73
-172.56
-175.32
-174.07
-168.72
-160.21
-150.16
-140.32
-132.06
-126.09
-122.35
-120.01
-117.85
-115.09
-111.96
-109.66
-109.78
-113.60
-121.31
-131.67
-141.94
-148.71
-149.67
-144.78
-135.73
-124.73
-113.68
-104.00
-96.88
-92.78
-91.34
-92.02
-94.67
-98.70
-102.37
-103.17
-98.37
-85.71
-62.96
-28.40
17.72
72.00
129.54
185.62
236.59
279.54
306.69
306.85
276.52
225.68
169.89
121.46
86.04
63.17
48.02
34.12
17.50
-0.97
-16.27
-24.14
-20.59
-4.63
21.24
51.53
79.49
100.22
109.43
107.84
99.56
89.06
78.68
68.38
56.91
43.64
29.97
18.96
13.69
14.58
19.49
24.94
27.70
26.19
20.73
13.40
7.08
4.40
6.04
10.81
16.32
20.22
21.17
19.14
15.31
11.53
9.63
10.43
13.74
18.68
24.22
29.30
32.65
32.86
28.71
19.94
7.65
-5.80
-17.42
-24.94
-27.24
-24.89
-19.87
-14.66
-11.14
-9.97
-10.54
-11.55
-11.76
-10.60
-8.41
-6.07
-4.54
-4.26
-5.05
-6.38
-7.90
-9.64
-11.87
-14.61
-17.31
-18.87
-18.16
-14.82
-9.58
-4.12
-0.34
0.39
-2.10
-6.76
-11.78
-15.36
-16.49
-15.13
-12.06
-8.22
-4.36
-0.92
1.82
3.37
3.02
0.10
-5.69
-14.00
-23.42
-32.48
-40.21
-46.52
-52.10
-57.89
-64.33
-71.17
-77.64
-83.03
-87.20
-90.65
-94.16
-98.47
-103.91
-110.60
-118.59
-128.00
-138.87
-150.70
-161.96
-170.00
-171.55
-163.71
-145.19
-116.94
-82.07
-44.76
-8.99
22.76
49.85
73.06
93.65
112.49
129.72
144.92
157.66
167.92
176.01
182.25
186.41
187.75
185.22
178.19
166.85
152.25
135.91
119.22
102.98
87.43
72.53
58.26
44.77
32.23
20.62
9.65
-1.02
-11.41
-21.08
-29.40
-36.04
-41.35
-46.21
-51.41
-56.94
-61.80
-64.59
-64.38
-61.45
-57.21
-53.43
-51.27
-50.61
-50.22
-48.43
-43.89
-36.13
-25.52
-13.00
0.27
13.18
24.88
34.82
42.82
48.96
53.45
56.46
58.13
58.74
58.83
59.11
60.16
62.19
64.85
67.47
69.40
70.37
70.48
70.00
69.05
67.45
64.80
60.83
55.67
49.94
44.58
40.40
37.72
36.20
35.00
33.14
29.94
25.28
19.60
13.63
7.92
2.58
-2.72
-8.46
-14.95
-22.00
-29.01
-35.18
-39.82
-42.52
-43.17
-41.88
-38.83
-34.27
-28.45
-21.68
-14.30
-6.67
0.91
8.19
15.00
21.33
27.26
32.81
37.68
41.14
42.15
39.79
33.85
25.15
15.46
6.81
0.68
-2.66
-4.01
-4.70
-5.71
-7.12
-8.26
-8.32
-7.10
-5.38
-4.60
-6.19
-10.71
-17.45
-24.57
-29.74
-30.88
-26.83
-17.44
-3.41
14.16
34.21
55.81
78.19
100.57
122.01
141.41
157.65
169.98
178.25
182.98
184.94
184.56
181.19
173.23
158.58
135.79
104.88
67.39
25.65
-18.64
-65.17
-114.78
-168.09
-223.97
-278.74
-326.75
-361.98
-379.65
-377.13
-354.42
-314.06
-261.41
-204.55
-153.32
-117.46
-103.97
-115.09
-147.84
-195.35
-249.08
-300.90
-344.11
-373.47
-385.20
-377.36
-350.54
-308.40
-257.13
-203.99
-155.26
-114.60
-82.46
-56.66
-33.54
-9.53
17.51
47.56
78.60
107.42
131.01
147.84
158.28
164.26
168.14
171.58
174.96
177.66
178.83
178.24
176.59
175.29
175.63
178.07
181.88
185.41
186.78
184.72
179.08
170.83
161.57
152.86
145.62
139.97
135.40
131.20
126.84
122.15
117.23
112.19
107.01
101.39
94.98
87.48
78.90
69.60
60.15
51.21
43.28
36.63
31.27
27.04
23.63
20.76
18.13
15.49
12.70
9.69
6.55
3.49
0.85
-1.01
-1.85
-1.59
-0.40
1.38
3.26
4.67
5.02
3.83
0.80
-3.99
-10.07
-16.62
-22.71
-27.62
-31.11
-33.44
-35.15
-36.76
-38.44
-39.98
-41.03
-41.32
-40.89
-40.02
-39.00
-37.91
-36.53
-34.54
-31.78
-28.49
-25.32
-23.04
-22.20
-22.84
-24.50
-26.45
-28.04
-28.96
-29.25
-29.21
-29.13
-29.22
-29.54
-30.11
-30.98
-32.13
-33.43
-34.60
-35.23
-34.95
-33.61
-31.37
-28.65
-25.89
-23.37
-21.04
-18.51
-15.29
-11.01
-5.55
0.83
7.71
14.53
20.81
26.09
30.01
32.26
32.71
31.43
28.79
25.36
21.77
18.48
15.66
13.19
10.79
8.26
5.56
2.82
0.32
-1.65
-2.95
-3.59
-3.78
-3.88
-4.25
-5.27
-7.12
-9.77
-12.89
-15.94
-18.33
-19.63
-19.79
-19.12
-18.19
-17.57
-17.68
-18.65
-20.44
-22.91
-25.94
-29.48
-33.40
-37.45
-41.26
-44.35
-46.32
-46.94
-46.18
-44.21
-41.19
-37.16
-31.98
-25.40
-17.29
-7.82
2.34
12.12
20.29
25.79
28.12
27.49
24.78
21.22
18.06
16.24
16.19
17.85
20.76
24.36
28.16
31.95
35.74
39.69
43.86
48.13
52.09
55.25
57.18
57.65
56.77
54.82
52.18
49.13
45.78
41.99
37.45
31.79
24.74
16.36
7.16
-1.97
-9.97
-15.96
-19.49
-20.63
-19.89
-17.94
-15.39
-12.65
-9.98
-7.57
-5.66
-4.53
-4.40
-5.26
-6.84
-8.61
-9.96
-10.47
-10.07
-9.09
-8.16
-7.83
-8.38
-9.69
-11.38
-13.01
-14.33
-15.34
-16.16
-16.88
-17.47
-17.79
-17.68
-17.08
-16.14
-15.14
-14.42
-14.26
-14.81
-15.96
-17.33
-18.32
-18.25
-16.56
-13.03
-7.83
-1.46
5.51
12.58
19.44
25.89
31.69
36.54
40.05
41.99
42.34
41.40
39.62
37.49
35.33
33.28
31.30
29.23
26.89
24.11
20.75
16.76
12.20
7.31
2.44
-2.07
-5.89
-8.87
-11.00
-12.49
-13.71
-15.07
-16.96
-19.48
-22.47
-25.45
-27.88
-29.46
-30.31
-31.03
-32.41
-35.04
-38.98
-43.64
-47.97
-50.87
-51.55
-49.66
-45.27
-38.63
-29.99
-19.67
-8.19
3.61
14.60
23.66
30.06
33.72
35.29
35.85
36.52
38.08
40.73
44.15
47.71
50.72
52.68
53.36
52.85
51.52
49.89
48.46
47.66
47.72
48.66
50.24
52.05
53.51
53.97
52.75
49.39
43.71
36.03
27.09
17.89
9.32
1.92
-4.22
-9.37
-13.88
-17.95
-21.54
-24.44
-26.44
-27.45
-27.53
-26.78
-25.35
-23.48
-21.45
-19.72
-18.80
-19.20
-21.29
-25.14
-30.50
-36.64
-42.41
-46.38
-47.27
-44.34
-37.72
-28.43
-17.98
-7.89
0.86
7.95
13.57
18.11
21.93
25.20
28.09
30.78
33.56
36.73
40.50
44.88
49.66
54.45
58.81
62.30
64.68
65.97
66.31
65.89
64.57
61.88
57.09
49.61
39.38
27.15
14.32
2.50
-7.08
-13.93
-18.42
-21.43
-23.96
-26.64
-29.60
-32.61
-35.29
-37.40
-39.02
-40.46
-42.07
-44.11
-46.64
-49.52
-52.56
-55.61
-58.55
-61.36
-64.01
-66.42
-68.51
-70.16
-71.29
-71.84
-71.90
-71.61
-71.23
-71.02
-71.08
-71.36
-71.61
-71.48
-70.62
-68.70
-65.41
-60.55
-54.16
-46.71
-39.06
-32.23
-27.03
-23.70
-21.86
-20.73
-19.62
-18.24
-16.72
-15.33
-14.10
-12.61
-10.14
-6.05
-0.16
7.07
14.64
21.38
26.23
28.57
28.29
25.76
21.68
16.89
12.16
8.06
4.91
2.70
1.26
0.27
-0.52
-1.21
-1.67
-1.59
-0.60
1.59
4.97
9.23
13.80
18.02
21.32
23.30
23.85
23.21
22.05
21.41
22.43
25.86
31.65
38.79
45.62
50.55
52.71
52.31
50.36
47.99
45.84
43.85
41.50
38.37
34.53
30.57
27.18
24.68
22.82
20.92
18.27
14.57
10.10
5.56
1.77
-0.79
-2.17
-2.90
-3.75
-5.36
-7.91
-11.08
-14.17
-16.47
-17.49
-17.15
-15.72
-13.59
-11.07
-8.36
-5.57
-2.85
-0.47
1.22
1.92
1.53
0.28
-1.42
-3.05
-4.19
-4.60
-4.31
-3.53
-2.60
-1.85
-1.53
-1.74
-2.44
-3.53
-4.85
-6.31
-7.87
-9.53
-11.30
-13.13
-14.89
-16.37
-17.35
-17.65
-17.27
-16.40
-15.40
-14.70
-14.56
-15.00
-15.74
-16.35
-16.38
-15.55
-13.84
-11.46
-8.74
-6.04
-3.65
-1.65
-0.04
1.33
2.63
3.97
5.36
6.69
7.82
8.67
9.28
9.75
10.25
10.88
11.61
12.35
12.97
13.38
13.56
13.58
13.54
13.49
13.46
13.37
13.13
12.65
11.90
10.91
9.79
8.63
7.49
6.39
5.25
3.95
2.38
0.53
-1.46
-3.35
-4.84
-5.70
-5.86
-5.44
-4.60
-3.52
-2.31
-0.97
0.47
1.95
3.34
4.53
5.44
6.12
6.69
7.24
7.77
8.21
8.47
8.53
8.49
8.46
8.50
8.53
8.36
7.78
6.67
5.11
3.34
1.67
0.34
-0.56
-1.18
-1.73
-2.42
-3.29
-4.24
-5.04
-5.52
-5.71
-5.84
-6.24
-7.20
-8.76
-10.71
-12.70
-14.33
-15.40
-15.85
-15.77
-15.27
-14.45
-13.36
-12.07
-10.64
-9.20
-7.86
-6.73
-5.86
-5.21
-4.70
-4.22
-3.74
-3.31
-3.12
-3.41
-4.31
-5.74
-7.45
-9.06
-10.29
-10.99
-11.26
-11.27
-11.15
-10.94
-10.62
-10.15
-9.62
-9.15
-8.84
-8.73
-8.69
-8.53
-8.11
-7.43
-6.67
-6.07
-5.90
-6.21
-6.90
-7.64
-8.07
-7.87
-6.94
-5.38
-3.45
-1.44
0.49
2.33
4.21
6.22
8.31
10.27
11.78
12.58
12.60
12.01
11.10
10.21
9.52
9.06
8.77
8.57
8.40
8.29
8.22
8.16
8.01
7.64
6.94
5.87
4.46
2.83
1.14
-0.45
-1.83
-2.98
-3.96
-4.88
-5.76
-6.59
-7.26
-7.75
-8.08
-8.40
-8.82
-9.36
-9.85
-9.98
-9.48
-8.23
-6.32
-4.01
-1.57
0.82
3.13
5.39
7.65
9.91
12.07
13.96
15.43
16.39
16.83
16.85
16.58
16.11
15.45
14.53
13.23
11.53
9.55
7.55
5.81
4.52
3.71
3.21
2.82
2.36
1.80
1.24
0.82
0.61
0.55
0.48
0.15
-0.57
-1.69
-3.04
-4.33
-5.29
-5.76
-5.75
-5.33
-4.58
-3.51
-2.08
-0.31
1.69
3.68
5.44
6.87
7.98
8.90
9.75
10.59
11.39
12.10
12.71
13.29
13.92
14.66
15.46
16.21
16.80
17.08
16.95
16.27
14.90
12.78
9.98
6.74
3.45
0.52
-1.72
-3.19
-3.95
-4.20
-4.11
-3.76
-3.17
-2.38
-1.56
-0.95
-0.83
-1.31
-2.27
-3.38
-4.24
-4.54
-4.23
-3.43
-2.39
-1.28
-0.19
0.88
1.88
2.65
2.93
2.51
1.33
-0.45
-2.55
-4.69
-6.71
-8.60
-10.38
-12.03
-13.44
-14.48
-15.08
-15.30
-15.25
-15.02
-14.57
-13.84
-12.73
-11.26
-9.59
-7.97
-6.68
-5.90
-5.68
-5.95
-6.49
-7.06
-7.39
-7.32
-6.81
-5.94
-4.89
-3.91
-3.20
-2.82
-2.76
-2.87
-2.98
-2.95
-2.76
-2.40
-1.93
-1.34
-0.60
0.32
1.36
2.35
3.08
3.36
3.18
2.64
1.99
1.45
1.12
0.96
0.83
0.61
0.27
-0.12
-0.33
-0.15
0.60
1.91
3.58
5.28
6.66
7.49
7.85
8.01
8.34
9.11
10.35
11.91
13.57
15.20
16.81
18.49
20.28
22.05
23.58
24.66
25.33
25.87
26.69
28.16
30.31
32.83
35.23
37.09
38.18
38.49
38.04
36.65
33.91
29.41
23.00
15.11
6.73
-0.95
-6.84
-10.39
-11.61
-11.00
-9.29
-7.28
-5.66
-4.98
-5.53
-7.25
-9.73
-12.33
-14.33
-15.23
-14.88
-13.45
-11.35
-9.08
-7.18
-6.07
-5.97
-6.88
-8.52
-10.46
-12.30
-13.80
-15.00
-16.07
-17.22
-18.49
-19.78
-20.79
-21.16
-20.44
-18.33
-14.75
-10.08
-5.10
-0.85
1.78
2.43
1.39
-0.59
-2.75
-4.61
-6.17
-7.60
-9.05
-10.41
-11.40
-11.83
-11.81
-11.66
-11.79
-12.37
-13.26
-14.12
-14.58
-14.49
-13.99
-13.40
-13.07
-13.24
-13.92
-14.94
-16.04
-16.95
-17.46
-17.52
-17.15
-16.45
-15.50
-14.42
-13.27
-12.13
-10.99
-9.81
-8.50
-6.92
-4.93
-2.51
0.31
3.40
6.56
9.68
12.75
15.87
19.17
22.55
25.55
27.43
27.34
24.84
20.08
13.83
7.17
1.09
-3.88
-7.64
-10.35
-12.17
-13.14
-13.27
-12.71
-11.89
-11.37
-11.64
-12.87
-14.80
-16.88
-18.46
-19.04
-18.42
-16.78
-14.57
-12.39
-10.82
-10.23
-10.71
-12.05
-13.85
-15.66
-17.13
-18.04
-18.30
-17.91
-16.84
-15.08
-12.67
-9.72
-6.50
-3.29
-0.32
2.32
4.70
6.97
9.23
11.40
13.23
14.42
14.75
14.24
13.16
11.89
10.83
10.18
9.91
9.82
9.64
9.14
8.25
7.02
5.60
4.19
2.96
2.00
1.34
0.93
0.65
0.36
-0.10
-0.86
-1.97
-3.41
-5.09
-6.90
-8.70
-10.34
-11.69
-12.60
-12.89
-12.42
-11.17
-9.22
-6.76
-4.06
-1.30
1.40
4.03
6.64
9.25
11.81
14.18
16.21
17.80
18.93
19.70
20.23
20.60
20.80
20.77
20.42
19.79
19.02
18.30
17.75
17.34
16.92
16.32
15.44
14.30
13.00
11.68
10.41
9.26
8.29
7.60
7.30
7.35
7.58
7.64
7.14
5.85
3.83
1.44
-0.82
-2.49
-3.36
-3.47
-3.10
-2.57
-2.06
-1.54
-0.82
0.34
2.04
4.18
6.40
8.24
9.31
9.48
8.92
8.10
7.55
7.67
8.62
10.29
12.36
14.42
16.01
16.72
16.18
14.18
10.73
6.14
1.02
-3.86
-7.81
-10.34
-11.32
-10.94
-9.59
-7.73
-5.83
-4.24
-3.27
-3.17
-4.19
-6.51
-10.10
-14.60
-19.34
-23.49
-26.40
-27.79
-27.90
-27.31
-26.63
-26.25
-26.13
-25.94
-25.25
-23.83
-21.75
-19.40
-17.29
-15.86
-15.30
-15.45
-15.89
-16.13
-15.82
-14.94
-13.74
-12.58
-11.73
-11.21
-10.78
-10.09
-8.89
-7.16
-5.08
-2.98
-1.12
0.39
1.52
2.42
3.22
4.03
4.89
5.76
6.56
7.22
7.72
8.08
8.31
8.35
8.04
7.20
5.77
3.91
2.04
0.67
0.16
0.52
1.43
2.40
3.03
3.18
2.99
2.71
2.49
2.34
2.13
1.76
1.28
0.90
0.85
1.24
1.97
2.76
3.27
3.28
2.76
1.96
1.27
1.05
1.47
2.47
3.74
4.91
5.73
6.12
6.26
6.41
6.82
7.51
8.27
8.76
8.61
7.67
6.00
3.90
1.77
-0.02
-1.15
-1.42
-0.65
1.26
4.31
8.30
12.76
17.05
20.51
22.68
23.49
23.25
22.49
21.74
21.32
21.29
21.48
21.65
21.57
21.11
20.24
19.00
17.55
16.13
15.04
14.51
14.52
14.70
14.41
12.99
10.08
5.85
0.96
-3.63
-7.09
-9.01
-9.51
-9.12
-8.55
-8.46
-9.21
-10.85
-13.13
-15.55
-17.58
-18.76
-18.85
-17.87
-16.08
-13.81
-11.40
-9.13
-7.15
-5.53
-4.21
-3.02
-1.75
-0.25
1.49
3.24
4.64
5.34
5.17
4.21
2.78
1.28
0.03
-0.81
-1.23
-1.31
-1.19
-1.03
-1.00
-1.22
-1.73
-2.43
-3.12
-3.62
-3.84
-3.86
-3.86
-4.09
-4.65
-5.53
-6.59
-7.73
-8.94
-10.33
-11.98
-13.89
-15.85
-17.56
-18.71
-19.21
-19.11
-18.62
-17.93
-17.10
-16.09
-14.82
-13.28
-11.61
-10.09
-8.96
-8.34
-8.15
-8.16
-8.09
-7.72
-6.95
-5.88
-4.68
-3.57
-2.67
-1.92
-1.15
-0.13
1.28
2.97
4.66
5.90
6.33
5.81
4.47
2.72
0.98
-0.44
-1.48
-2.29
-3.14
-4.23
-5.66
-7.37
-9.18
-10.89
-12.36
-13.52
-14.33
-14.78
-14.81
-14.34
-13.28
-11.64
-9.57
-7.36
-5.37
-3.94
-3.21
-3.16
-3.58
-4.24
-4.92
-5.50
-5.91
-6.10
-6.01
-5.62
-4.90
-3.91
-2.78
-1.63
-0.54
0.50
1.58
2.84
4.37
6.16
8.07
9.87
11.39
12.60
13.64
14.72
16.00
17.38
18.56
19.12
18.78
17.56
15.74
13.83
12.31
11.48
11.41
12.02
13.11
14.51
16.09
17.77
19.50
21.19
22.73
23.96
24.74
25.01
24.83
24.39
23.89
23.45
23.05
22.50
21.60
20.25
18.50
16.59
14.79
13.29
12.14
11.26
10.54
9.91
9.38
9.00
8.81
8.73
8.62
8.28
7.59
6.58
5.41
4.30
3.33
2.35
0.98
-1.22
-4.47
-8.65
-13.22
-17.42
-20.56
-22.25
-22.46
-21.49
-19.80
-17.89
-16.13
-14.77
-13.85
-13.12
-12.14
-10.35
-7.27
-2.77
2.85
8.88
14.35
18.36
20.35
20.26
18.53
15.92
13.17
10.76
8.80
7.12
5.41
3.51
1.45
-0.62
-2.58
-4.48
-6.52
-8.91
-11.76
-14.97
-18.31
-21.58
-24.69
-27.73
-30.82
-34.09
-37.52
-40.97
-44.17
-46.82
-48.64
-49.44
-49.18
-47.96
-46.01
-43.59
-40.89
-37.95
-34.65
-30.83
-26.38
-21.44
-16.27
-11.22
-6.57
-2.39
1.45
5.16
8.86
12.55
16.04
19.06
21.40
23.01
24.01
24.65
25.19
25.78
26.40
26.92
27.19
27.17
27.00
26.90
27.05
27.45
27.82
27.78
27.00
25.36
23.01
20.24
17.36
14.53
11.76
9.02
6.38
4.03
2.26
1.33
1.30
2.00
3.07
4.09
4.75
4.98
4.89
4.74
4.75
5.02
5.53
6.13
6.70
7.22
7.75
8.43
9.38
10.59
11.90
13.06
13.86
14.19
14.16
14.01
14.01
14.29
14.79
15.31
15.65
15.70
15.49
15.14
14.74
14.29
13.64
12.57
10.90
8.61
5.85
2.92
0.10
-2.39
-4.44
-6.06
-7.23
-7.89
-7.84
-6.92
-5.05
-2.34
0.95
4.47
7.92
11.13
13.99
16.51
18.67
20.48
21.86
22.68
22.70
21.75
19.77
16.91
13.61
10.42
7.81
5.99
4.82
3.93
2.91
1.50
-0.31
-2.41
-4.59
-6.74
-8.88
-11.07
-13.41
-15.92
-18.55
-21.26
-24.05
-26.97
-30.06
-33.28
-36.42
-39.07
-40.81
-41.30
-40.47
-38.56
-35.98
-33.17
-30.48
-28.05
-25.87
-23.82
-21.76
-19.57
-17.22
-14.74
-12.24
-9.89
-7.85
-6.21
-4.92
-3.85
-2.84
-1.83
-0.87
-0.11
0.29
0.27
-0.11
-0.66
-1.15
-1.38
-1.30
-0.94
-0.45
-0.05
-0.02
-0.76
-2.68
-6.00
-10.60
-15.83
-20.62
-23.85
-24.78
-23.36
-20.22
-16.38
-12.80
-10.00
-8.00
-6.55
-5.40
-4.44
-3.73
-3.21
-2.67
-1.68
0.12
2.82
6.11
9.37
11.95
13.47
13.95
13.77
13.49
13.56
14.16
15.21
16.43
17.58
18.53
19.33
20.09
20.96
21.94
22.94
23.76
24.26
24.37
24.14
23.66
22.97
22.01
20.59
18.52
15.78
12.50
9.05
5.83
3.17
1.19
-0.14
-0.97
-1.43
-1.54
-1.29
-0.67
0.29
1.51
2.85
4.23
5.57
6.79
7.79
8.46
8.68
8.47
7.94
7.34
6.94
6.94
7.38
8.11
8.91
9.61
10.28
11.20
12.63
14.69
17.08
19.18
20.28
19.94
18.20
15.61
12.96
10.94
9.88
9.62
9.70
9.56
8.69
6.84
3.96
0.23
-4.00
-8.27
-12.16
-15.34
-17.63
-19.03
-19.58
-19.33
-18.31
-16.61
-14.35
-11.80
-9.27
-7.02
-5.21
-3.82
-2.74
-1.82
-1.05
-0.49
-0.32
-0.59
-1.21
-1.87
-2.17
-1.80
-0.70
0.89
2.59
4.00
4.90
5.23
5.07
4.56
3.79
2.86
1.80
0.48
-1.39
-4.30
-8.69
-14.76
-22.21
-30.36
-38.38
-45.57
-51.49
-55.90
-58.53
-59.04
-57.12
-52.77
-46.49
-39.18
-31.87
-25.27
-19.61
-14.71
-10.27
-6.11
-2.30
1.05
3.87
6.32
8.65
11.08
13.59
15.94
17.75
18.68
18.65
17.84
16.58
15.21
13.84
12.38
10.54
8.07
4.91
1.24
-2.58
-6.29
-9.82
-13.37
-17.25
-21.69
-26.61
-31.59
-36.00
-39.20
-40.77
-40.62
-39.02
-36.32
-32.88
-28.82
-24.10
-18.55
-12.13
-5.01
2.37
9.38
15.44
20.15
23.43
25.50
26.70
27.35
27.64
27.66
27.44
27.01
26.50
26.01
25.55
25.05
24.33
23.23
21.71
19.95
18.23
16.88
16.10
15.83
15.82
15.71
15.26
14.41
13.27
11.96
10.54
8.84
6.69
4.02
1.08
-1.64
-3.55
-4.24
-3.71
-2.30
-0.54
1.21
2.84
4.53
6.52
8.85
11.30
13.49
15.06
15.93
16.42
17.06
18.39
20.63
23.62
26.84
29.68
31.64
32.43
32.00
30.41
27.80
24.38
20.49
16.57
13.11
10.48
8.82
8.03
7.77
7.68
7.40
6.66
5.27
3.13
0.27
-3.15
-6.81
-10.36
-13.43
-15.76
-17.16
-17.57
-16.96
-15.34
-12.75
-9.32
-5.29
-0.99
3.21
7.01
10.29
13.14
15.81
18.55
21.46
24.31
26.59
27.70
27.28
25.41
22.61
19.65
17.13
15.23
13.67
11.91
9.49
6.23
2.18
-2.48
-7.59
-12.92
-18.17
-22.95
-27.09
-30.99
-35.79
-43.12
-54.42
-70.05
-88.76
-107.80
-123.73
-133.44
-135.20
-129.05
-116.65
-100.60
-83.58
-67.72
-54.17
-43.22
-34.54
-27.56
-21.77
-16.73
-12.00
-7.11
-1.55
4.99
12.43
20.22
27.46
33.29
37.19
39.22
39.90
40.03
40.27
40.95
42.01
43.13
43.98
44.37
44.30
43.88
43.22
42.33
41.12
39.49
37.37
34.77
31.71
28.13
23.83
18.63
12.50
5.70
-1.20
-7.41
-12.22
-15.21
-16.38
-16.12
-15.02
-13.64
-12.34
-11.17
-10.00
-8.63
-6.91
-4.84
-2.46
0.15
2.93
5.78
8.53
10.92
12.63
13.43
13.31
12.37
10.74
8.42
5.29
1.29
-3.36
-8.03
-11.88
-14.19
-14.70
-13.66
-11.64
-9.27
-6.98
-5.08
-3.91
-3.93
-5.62
-9.18
-14.26
-20.01
-25.35
-29.41
-31.85
-32.85
-32.92
-32.59
-32.26
-32.11
-32.21
-32.59
-33.24
-34.13
-35.28
-36.84
-39.12
-42.52
-47.35
-53.61
-60.89
-68.40
-75.18
-80.47
-84.17
-87.11
-91.08
-98.44
-111.16
-129.79
-152.59
-175.45
-192.72
-198.90
-190.23
-165.71
-127.15
-78.43
-24.64
28.88
77.17
116.45
144.71
162.17
170.94
174.13
174.47
173.24
170.08
163.66
152.80
137.34
118.41
97.89
77.83
59.93
45.40
34.93
28.70
26.27
26.61
28.35
30.11
30.98
30.72
29.62
28.23
27.00
26.12
25.52
25.18
25.26
26.20
28.61
32.95
39.38
47.54
56.70
65.95
74.41
81.28
86.03
88.67
90.12
92.35
97.97
109.31
127.27
150.53
175.62
197.96
213.30
218.92
214.10
199.73
177.55
149.46
117.31
83.01
48.58
16.10
-12.62
-36.34
-54.57
-67.39
-75.33
-79.21
-80.00
-78.82
-76.85
-75.15
-74.57
-75.62
-78.56
-83.42
-89.90
-97.31
-104.47
-109.88
-112.11
-110.26
-104.34
-95.22
-84.33
-73.11
-62.61
-53.36
-45.48
-38.90
-33.54
-29.25
-25.81
-22.89
-20.11
-17.27
-14.40
-11.79
-9.89
-9.14
-9.85
-12.01
-15.31
-19.22
-23.07
-26.26
-28.39
-29.28
-28.93
-27.44
-24.97
-21.71
-17.91
-13.83
-9.76
-5.96
-2.58
0.25
2.41
3.73
4.08
3.41
1.87
-0.26
-2.59
-4.80
-6.74
-8.39
-9.83
-11.07
-11.99
-12.44
-12.33
-11.77
-11.08
-10.68
-10.91
-11.81
-13.16
-14.55
-15.61
-16.16
-16.27
-16.22
-16.35
-16.93
-18.06
-19.66
-21.47
-23.16
-24.33
-24.68
-23.99
-22.17
-19.20
-15.14
-10.10
-4.20
2.29
9.04
15.65
21.69
26.87
31.02
34.20
36.61
38.61
40.55
42.64
44.85
46.82
47.91
47.40
44.74
39.82
33.01
25.11
17.04
9.64
3.38
-1.58
-5.37
-8.17
-10.17
-11.49
-12.23
-12.48
-12.30
-11.83
-11.18
-10.55
-10.19
-10.30
-10.96
-12.07
-13.29
-14.22
-14.50
-13.94
-12.52
-10.33
-7.52
-4.20
-0.49
3.35
7.01
10.15
12.54
14.17
15.20
15.90
16.46
16.91
17.06
16.66
15.54
13.74
11.51
9.30
7.51
6.35
5.81
5.67
5.60
5.32
4.69
3.70
2.41
0.95
-0.53
-1.90
-3.04
-3.89
-4.45
-4.80
-5.06
-5.35
-5.76
-6.34
-7.14
-8.14
-9.24
-10.27
-11.01
-11.31
-11.15
-10.62
-9.80
-8.68
-7.10
-4.92
-2.24
0.52
2.65
3.47
2.68
0.49
-2.41
-5.12
-6.95
-7.63
-7.29
-6.36
-5.26
-4.22
-3.34
-2.61
-2.12
-2.06
-2.65
-4.05
-6.15
-8.57
-10.82
-12.51
-13.55
-14.16
-14.70
-15.50
-16.66
-18.07
-19.49
-20.74
-21.73
-22.47
-22.94
-23.06
-22.66
-21.58
-19.75
-17.26
-14.31
-11.18
-8.06
-5.04
-2.14
0.69
3.47
6.18
8.79
11.27
13.70
16.20
18.84
21.58
24.10
25.94
26.57
25.71
23.40
20.06
16.30
12.70
9.62
7.17
5.26
3.77
2.61
1.73
1.08
0.59
0.14
-0.38
-1.04
-1.89
-2.99
-4.35
-6.02
-7.99
-10.15
-12.29
-14.15
-15.47
-16.03
-15.74
-14.57
-12.61
-9.98
-6.87
-3.50
-0.10
3.12
6.04
8.64
11.03
13.31
15.52
17.52
19.02
19.68
19.29
17.96
16.03
14.01
12.30
11.04
10.08
9.11
7.88
6.30
4.44
2.44
0.41
-1.59
-3.51
-5.29
-6.82
-8.05
-9.00
-9.82
-10.72
-11.91
-13.48
-15.40
-17.52
-19.62
-21.47
-22.81
-23.43
-23.20
-22.09
-20.17
-17.60
-14.47
-10.88
-6.87
-2.56
1.83
5.99
9.62
12.54
14.79
16.60
18.28
20.06
22.00
23.92
25.50
26.40
26.36
25.21
22.85
19.27
14.55
8.99
3.06
-2.58
-7.33
-10.75
-12.76
-13.58
-13.67
-13.58
-13.77
-14.53
-15.98
-18.07
-20.63
-23.40
-26.08
-28.42
-30.22
-31.41
-32.02
-32.17
-31.96
-31.42
-30.46
-28.87
-26.47
-23.15
-18.97
-14.07
-8.66
-2.89
3.08
9.09
14.93
20.38
25.25
29.46
33.01
35.97
38.34
40.07
41.10
41.51
41.55
41.61
42.10
43.25
44.95
46.73
47.83
47.50
45.29
41.23
35.94
30.36
25.38
21.55
18.85
16.82
14.84
12.45
9.57
6.46
3.50
0.95
-1.17
-2.96
-4.50
-5.63
-5.96
-5.05
-2.64
1.09
5.56
10.07
14.09
17.44
20.27
22.75
24.86
26.34
26.89
26.43
25.23
23.75
22.39
21.25
20.02
18.30
15.72
12.21
7.87
2.88
-2.58
-8.37
-14.24
-19.82
-24.68
-28.49
-31.17
-32.93
-34.09
-34.91
-35.47
-35.71
-35.64
-35.46
-35.57
-36.28
-37.69
-39.51
-41.23
-42.38
-42.72
-42.32
-41.41
-40.20
-38.72
-36.79
-34.20
-30.81
-26.61
-21.73
-16.40
-10.92
-5.70
-1.24
1.98
3.57
3.45
1.85
-0.72
-3.68
-6.56
-9.13
-11.41
-13.56
-15.77
-18.07
-20.36
-22.44
-24.08
-25.13
-25.45
-24.93
-23.45
-20.93
-17.40
-13.09
-8.38
-3.75
0.36
3.61
5.81
6.89
6.87
5.86
4.03
1.59
-1.20
-4.08
-6.77
-9.02
-10.63
-11.49
-11.55
-10.76
-9.04
-6.29
-2.46
2.30
7.61
12.92
17.66
21.48
24.25
26.03
26.75
26.22
24.20
20.65
16.06
11.37
7.77
6.10
6.51
8.37
10.57
11.98
11.96
10.59
8.51
6.73
6.23
7.59
10.69
14.54
17.33
16.84
11.03
-1.21
-19.48
-41.75
-64.75
-84.84
-99.02
-105.66
-104.88
-98.15
-87.70
-75.60
-63.26
-51.22
-39.47
-27.88
-16.60
-6.11
3.05
10.61
16.74
21.91
26.56
30.72
33.98
35.73
35.50
33.37
29.89
25.91
22.20
19.16
16.79
14.81
12.94
11.00
9.03
7.15
5.42
3.83
2.28
0.74
-0.59
-1.26
-0.67
1.65
5.78
11.30
17.33
22.89
27.26
30.16
31.88
33.02
34.36
36.63
40.43
46.02
53.11
60.61
66.80
69.75
68.23
62.23
53.06
42.77
33.13
24.93
17.88
11.20
4.33
-2.54
-8.70
-13.46
-16.68
-18.91
-20.96
-23.36
-26.10
-28.70
-30.72
-32.06
-33.10
-34.31
-35.89
-37.58
-38.74
-38.74
-37.34
-34.85
-31.93
-29.37
-27.67
-27.00
-27.13
-27.70
-28.31
-28.65
-28.58
-28.08
-27.22
-26.06
-24.63
-22.83
-20.50
-17.48
-13.66
-9.02
-3.64
2.35
8.73
15.22
21.38
26.77
30.99
33.83
35.30
35.62
35.10
34.09
32.88
31.64
30.43
29.16
27.71
25.97
23.94
21.77
19.68
17.86
16.37
15.10
13.89
12.58
11.13
9.59
8.05
6.59
5.22
3.91
2.63
1.34
0.03
-1.33
-2.83
-4.56
-6.60
-8.88
-11.16
-12.94
-13.60
-12.59
-9.69
-5.13
0.48
6.34
11.79
16.45
20.25
23.25
25.36
26.28
25.59
22.98
18.53
12.76
6.53
0.73
-3.91
-6.96
-8.29
-7.95
-6.14
-3.15
0.62
4.69
8.55
11.72
13.84
14.80
14.71
13.89
12.76
11.72
10.95
10.35
9.55
8.09
5.65
2.25
-1.75
-5.77
-9.22
-11.80
-13.45
-14.37
-14.84
-15.08
-15.20
-15.18
-14.89
-14.17
-12.87
-10.92
-8.35
-5.37
-2.30
0.44
2.45
3.46
3.35
2.18
0.21
-2.16
-4.46
-6.30
-7.54
-8.39
-9.35
-11.09
-14.11
-18.59
-24.25
-30.50
-36.60
-41.94
-46.05
-48.59
-49.25
-47.67
-43.63
-37.23
-29.10
-20.43
-12.67
-7.15
-4.65
-5.15
-7.98
-12.01
-16.07
-19.28
-21.14
-21.59
-20.78
-18.92
-16.17
-12.57
-8.16
-3.12
2.22
7.35
11.73
14.96
16.85
17.49
17.16
16.22
15.05
13.96
13.10
12.54
12.25
12.10
11.94
11.47
10.30
8.06
4.61
0.19
-4.48
-8.46
-10.93
-11.58
-10.77
-9.26
-7.89
-7.18
-7.17
-7.56
-8.06
-8.56
-9.25
-10.39
-12.18
-14.53
-17.08
-19.29
-20.60
-20.65
-19.40
-17.03
-13.92
-10.31
-6.32
-1.93
2.91
8.05
13.12
17.65
21.17
23.47
24.62
25.03
25.29
26.03
27.75
30.64
34.50
38.72
42.47
45.00
45.82
44.92
42.63
39.53
36.20
33.04
30.17
27.41
24.50
21.19
17.45
13.35
8.96
4.23
-1.06
-7.05
-13.55
-19.99
-25.52
-29.43
-31.46
-31.87
-31.25
-30.07
-28.46
-26.17
-22.87
-18.39
-12.89
-6.78
-0.41
5.98
12.31
18.47
24.20
29.11
32.86
35.35
36.84
37.90
39.13
40.89
43.07
45.13
46.38
46.27
44.72
42.18
39.40
37.14
35.81
35.25
34.90
34.03
32.24
29.70
27.04
24.99
23.87
23.39
22.75
21.06
17.69
12.47
5.51
-2.88
-12.29
-21.90
-30.39
-35.97
-36.91
-32.32
-22.61
-9.50
4.64
17.81
29.14
39.13
49.16
60.55
73.85
88.51
103.22
116.65
128.13
137.89
146.82
155.89
165.55
175.62
185.44
194.19
201.05
205.04
204.90
199.13
186.37
166.01
138.57
105.64
69.30
31.40
-6.96
-45.28
-83.21
-119.73
-153.05
-180.86
-201.19
-213.29
-217.94
-217.10
-212.97
-207.15
-200.16
-191.73
-181.49
-169.62
-157.00
-144.77
-133.66
-123.55
-113.58
-102.73
-90.58
-77.58
-64.90
-53.84
-45.24
-39.16
-34.99
-31.91
-29.17
-26.33
-23.22
-19.82
-16.27
-12.78
-9.67
-7.34
-6.10
-6.06
-7.06
-8.68
-10.42
-11.82
-12.64
-12.89
-12.76
-12.51
-12.32
-12.25
-12.26
-12.37
-12.70
-13.51
-15.01
-17.17
-19.67
-21.87
-23.12
-22.98
-21.39
-18.68
-15.32
-11.66
-7.81
-3.62
1.05
6.18
11.45
16.30
20.17
22.75
24.06
24.46
24.39
24.14
23.71
22.77
20.89
17.77
13.45
8.36
3.16
-1.46
-5.07
-7.59
-9.23
-10.40
-11.51
-12.85
-14.61
-16.86
-19.57
-22.63
-25.78
-28.69
-31.02
-32.47
-32.98
-32.74
-32.14
-31.71
-31.85
-32.70
-34.06
-35.39
-36.06
-35.50
-33.42
-29.79
-24.72
-18.35
-10.81
-2.26
7.00
16.43
25.27
32.73
38.22
41.49
42.78
42.71
42.05
41.43
41.13
40.98
40.56
39.38
37.16
34.02
30.42
26.98
24.26
22.61
22.08
22.52
23.54
24.46
24.29
21.86
16.22
7.12
-4.70
-17.55
-29.35
-38.37
-43.88
-46.26
-46.68
-46.42
-46.25
-46.29
-46.19
-45.50
-43.99
-41.75
-38.98
-35.78
-32.05
-27.55
-22.08
-15.71
-8.84
-2.13
3.72
8.23
11.36
13.48
15.17
16.93
18.95
21.08
22.88
23.93
24.02
23.21
21.76
19.96
17.96
15.75
13.20
10.17
6.64
2.74
-1.23
-4.88
-7.91
-10.23
-12.06
-13.79
-15.82
-18.31
-21.07
-23.73
-25.94
-27.64
-29.12
-30.83
-33.11
-35.90
-38.75
-40.88
-41.59
-40.45
-37.45
-32.95
-27.48
-21.52
-15.39
-9.24
-3.10
2.93
8.72
13.99
18.52
22.24
25.28
27.90
30.32
32.54
34.32
35.26
35.10
33.84
31.86
29.75
28.05
27.00
26.45
26.01
25.26
24.00
22.28
20.35
18.43
16.60
14.73
12.69
10.43
8.10
5.92
4.05
2.38
0.61
-1.65
-4.64
-8.22
-11.96
-15.21
-17.34
-17.98
-17.05
-14.71
-11.27
-7.03
-2.19
3.06
8.55
13.96
18.91
22.97
25.81
27.32
27.61
27.03
25.97
24.80
23.69
22.60
21.38
19.84
17.87
15.50
12.97
10.65
8.96
8.23
8.47
9.34
10.21
10.38
9.38
7.15
3.95
0.28
-3.41
-6.64
-8.92
-9.65
-8.40
-5.20
-0.93
2.79
4.23
2.31
-2.71
-9.24
-15.02
-18.10
-17.62
-13.97
-8.37
-2.12
3.88
9.26
13.93
17.76
20.42
21.48
20.77
18.50
15.30
11.97
9.16
7.06
5.46
3.91
1.99
-0.40
-3.05
-5.56
-7.56
-8.82
-9.40
-9.51
-9.47
-9.65
-10.32
-11.67
-13.77
-16.50
-19.62
-22.86
-25.95
-28.75
-31.26
-33.59
-35.94
-38.53
-41.62
-45.44
-50.07
-55.35
-60.75
-65.45
-68.52
-69.14
-66.77
-61.20
-52.54
-41.24
-28.07
-14.08
-0.42
11.85
22.09
30.22
36.60
41.83
46.43
50.58
54.17
56.86
58.27
58.08
56.06
52.13
46.38
39.21
31.22
23.18
15.73
9.33
4.06
-0.23
-3.83
-6.96
-9.68
-11.95
-13.73
-15.08
-16.23
-17.51
-19.18
-21.28
-23.51
-25.36
-26.38
-26.42
-25.76
-24.95
-24.47
-24.40
-24.29
-23.35
-20.80
-16.19
-9.46
-0.82
9.36
20.46
31.35
40.22
44.96
44.03
37.28
26.38
14.22
3.75
-3.29
-6.92
-8.57
-10.02
-12.33
-15.39
-18.25
-19.86
-19.76
-18.25
-16.05
-13.75
-11.52
-9.04
-5.87
-1.87
2.60
6.86
10.16
12.22
13.35
14.32
15.94
18.54
21.73
24.47
25.55
24.11
20.04
14.06
7.45
1.56
-2.62
-4.69
-4.79
-3.41
-1.13
1.56
4.28
6.70
8.55
9.66
9.93
9.44
8.42
7.11
5.67
4.15
2.51
0.72
-1.19
-3.07
-4.73
-6.03
-6.91
-7.36
-7.37
-6.91
-5.97
-4.67
-3.26
-2.10
-1.50
-1.53
-1.92
-2.19
-1.88
-0.77
0.99
2.89
4.34
4.91
4.52
3.49
2.34
1.55
1.35
1.73
2.54
3.71
5.38
7.89
11.54
16.42
22.29
28.77
35.48
42.15
48.46
53.66
56.55
55.78
50.48
40.89
28.41
15.03
2.50
-8.41
-18.00
-27.07
-36.17
-45.05
-52.78
-58.18
-60.46
-59.63
-56.48
-52.28
-48.43
-46.06
-45.82
-47.62
-50.76
-54.21
-57.13
-59.25
-60.94
-63.03
-66.26
-70.85
-76.31
-81.57
-85.25
-85.91
-82.28
-73.37
-58.74
-38.80
-14.98
10.43
34.88
56.23
73.38
86.48
96.56
104.87
112.15
118.19
121.81
121.28
115.02
102.40
84.13
62.36
40.10
20.30
5.05
-5.00
-10.33
-12.03
-10.96
-7.47
-1.43
7.26
18.33
31.09
44.65
58.16
70.85
81.82
89.72
92.79
89.37
78.59
61.02
38.82
15.19
-6.47
-23.46
-34.34
-38.96
-38.26
-33.79
-27.35
-20.64
-14.90
-10.69
-7.78
-5.32
-2.32
1.83
7.04
12.47
17.05
19.93
20.92
20.43
19.17
17.79
16.61
15.62
14.75
13.96
13.34
12.93
12.72
12.54
12.31
12.02
11.83
11.94
12.44
13.29
14.32
15.34
16.26
17.03
17.66
18.17
18.60
19.02
19.53
20.17
20.87
21.35
21.31
20.52
19.07
17.29
15.69
14.68
14.39
14.70
15.32
15.95
16.40
16.56
16.37
15.68
14.38
12.42
9.92
7.15
4.34
1.62
-1.10
-4.04
-7.38
-11.12
-15.01
-18.61
-21.44
-23.21
-23.88
-23.69
-23.02
-22.23
-21.52
-20.93
-20.39
-19.87
-19.38
-19.07
-19.05
-19.44
-20.19
-21.21
-22.32
-23.41
-24.41
-25.27
-25.89
-26.10
-25.67
-24.36
-22.03
-18.75
-14.82
-10.69
-6.82
-3.51
-0.84
1.30
3.06
4.52
5.59
6.11
5.93
5.02
3.58
1.91
0.41
-0.67
-1.22
-1.32
-1.18
-1.04
-1.06
-1.33
-1.88
-2.65
-3.67
-4.96
-6.57
-8.50
-10.70
-13.01
-15.31
-17.58
-19.96
-22.69
-25.96
-29.76
-33.81
-37.49
-40.10
-41.04
-40.05
-37.25
-33.07
-27.99
-22.37
-16.33
-9.96
-3.44
2.73
7.92
11.54
13.31
13.44
12.46
10.98
9.36
7.68
5.85
3.80
1.73
0.06
-0.77
-0.47
0.90
3.01
5.31
7.30
8.66
9.24
9.03
8.07
6.28
3.59
0.07
-3.97
-7.93
-11.12
-13.01
-13.54
-13.14
-12.61
-12.72
-13.86
-15.80
-17.78
-18.74
-17.76
-14.42
-8.86
-1.77
5.99
13.64
20.75
27.15
32.83
37.60
41.10
42.82
42.40
39.87
35.64
30.45
25.03
19.85
15.06
10.62
6.46
2.70
-0.28
-2.10
-2.47
-1.40
0.77
3.55
6.51
9.37
12.06
14.63
17.20
19.97
23.14
26.93
31.47
36.69
42.31
47.83
52.68
56.28
58.15
57.98
55.73
51.72
46.57
41.05
35.76
30.90
26.28
21.53
16.43
11.10
6.00
1.60
-1.90
-4.68
-7.12
-9.60
-12.28
-15.07
-17.79
-20.29
-22.53
-24.56
-26.47
-28.37
-30.33
-32.34
-34.33
-36.12
-37.48
-38.25
-38.40
-38.04
-37.40
-36.74
-36.19
-35.68
-34.99
-33.94
-32.51
-30.96
-29.75
-29.38
-30.06
-31.70
-33.94
-36.41
-38.85
-41.23
-43.58
-45.80
-47.62
-48.73
-48.90
-48.22
-46.98
-45.58
-44.29
-43.19
-42.26
-41.51
-40.93
-40.42
-39.65
-38.03
-34.87
-29.64
-22.32
-13.39
-3.74
5.66
14.07
21.11
26.70
31.02
34.36
37.12
39.66
42.22
44.67
46.48
46.79
44.72
39.87
32.64
24.38
16.90
11.86
9.87
10.17
10.82
9.50
4.51
-4.52
-16.53
-29.54
-41.37
-50.29
-55.27
-55.89
-52.20
-44.72
-34.43
-22.79
-11.47
-1.87
5.29
10.06
13.11
15.25
17.13
19.07
21.14
23.25
25.20
26.66
27.22
26.51
24.36
20.95
16.85
12.80
9.48
7.23
5.95
5.20
4.46
3.31
1.61
-0.60
-3.18
-6.08
-9.23
-12.58
-15.95
-19.14
-22.01
-24.56
-26.86
-28.98
-30.83
-32.17
-32.87
-33.05
-33.06
-33.31
-33.86
-34.21
-33.46
-30.72
-25.63
-18.63
-10.75
-3.17
3.28
8.39
12.40
15.75
18.73
21.38
23.58
25.24
26.43
27.39
28.42
29.70
31.20
32.58
33.39
33.17
31.68
29.04
25.67
22.17
19.07
16.58
14.58
12.76
10.80
8.61
6.23
3.64
0.63
-3.21
-8.12
-13.84
-19.46
-23.73
-25.71
-25.31
-23.45
-21.62
-21.10
-22.33
-24.65
-26.73
-27.19
-25.25
-20.90
-14.77
-7.79
-0.80
5.60
11.04
15.41
18.77
21.26
23.08
24.39
25.37
26.10
26.64
26.97
27.01
26.68
26.00
25.21
24.72
24.96
26.19
28.31
30.81
32.99
34.27
34.53
34.22
34.10
34.96
37.10
40.20
43.29
45.20
45.07
42.85
39.38
36.13
34.63
35.84
39.91
46.29
54.07
62.30
70.03
76.39
80.74
83.07
84.36
86.38
90.77
97.72
105.05
108.73
104.66
90.89
68.89
43.13
19.05
0.62
-10.93
-16.81
-19.28
-20.20
-20.66
-21.45
-23.63
-28.43
-36.60
-47.55
-59.31
-69.33
-75.76
-78.30
-78.14
-77.20
-77.08
-78.42
-80.82
-83.23
-84.48
-83.64
-80.26
-74.47
-66.93
-58.72
-50.98
-44.54
-39.71
-36.27
-33.65
-31.19
-28.30
-24.51
-19.52
-13.28
-5.97
1.82
9.23
15.31
19.28
20.76
19.86
17.13
13.24
8.77
4.09
-0.66
-5.44
-10.19
-14.77
-19.00
-22.70
-25.73
-27.97
-29.34
-29.82
-29.57
-28.98
-28.64
-29.12
-30.74
-33.45
-36.84
-40.43
-43.88
-47.17
-50.58
-54.40
-58.76
-63.38
-67.62
-70.75
-72.18
-71.66
-69.24
-65.17
-59.68
-52.98
-45.29
-36.96
-28.50
-20.48
-13.38
-7.41
-2.56
1.39
4.70
7.61
10.33
13.03
15.77
18.47
20.81
22.30
22.52
21.27
18.82
15.73
12.67
10.14
8.31
7.11
6.37
6.00
6.00
6.26
6.49
6.19
4.87
2.25
-1.65
-6.55
-12.18
-18.26
-24.46
-30.16
-34.34
-35.85
-33.83
-28.18
-19.77
-10.00
-0.27
8.55
16.22
22.95
28.91
34.03
38.06
40.75
42.08
42.30
41.71
40.59
39.08
37.35
35.60
34.07
32.84
31.74
30.38
28.37
25.60
22.40
19.51
17.76
17.72
19.44
22.44
25.88
28.97
31.25
32.67
33.51
34.14
34.67
34.95
34.61
33.31
30.97
27.83
24.30
20.79
17.55
14.65
12.08
9.88
8.21
7.33
7.51
8.96
11.70
15.53
20.02
24.59
28.74
32.14
34.80
37.01
39.16
41.55
44.20
46.82
48.90
49.88
49.32
47.03
43.21
38.38
33.34
28.92
25.72
23.89
23.13
22.93
22.86
22.83
23.16
24.48
27.52
32.92
40.87
50.73
60.76
68.19
69.78
62.96
46.96
23.46
-3.71
-29.92
-51.28
-65.92
-74.05
-77.26
-77.36
-75.55
-72.34
-67.90
-62.61
-57.24
-52.66
-49.40
-47.38
-46.00
-44.49
-42.40
-39.85
-37.38
-35.65
-35.06
-35.54
-36.55
-37.38
-37.32
-36.03
-33.56
-30.33
-26.96
-24.09
-22.14
-21.24
-21.18
-21.53
-21.78
-21.56
-20.70
-19.31
-17.68
-16.11
-14.83
-13.93
-13.42
-13.27
-13.46
-13.89
-14.34
-14.43
-13.72
-11.87
-8.75
-4.54
0.37
5.53
10.60
15.38
19.77
23.73
27.15
29.84
31.59
32.23
31.74
30.27
28.20
26.03
24.25
23.17
22.78
22.72
22.41
21.28
19.03
15.74
11.88
8.16
5.34
4.01
4.41
6.42
9.55
13.13
16.53
19.29
21.23
22.39
22.91
22.87
22.21
20.72
18.10
14.15
8.87
2.51
-4.42
-11.28
-17.43
-22.37
-25.82
-27.80
-28.52
-28.29
-27.44
-26.19
-24.69
-22.92
-20.82
-18.36
-15.64
-13.01
-11.02
-10.32
-11.34
-14.16
-18.31
-22.95
-27.05
-29.75
-30.76
-30.36
-29.32
-28.46
-28.26
-28.61
-28.92
-28.46
-26.71
-23.60
-19.52
-15.07
-10.89
-7.51
-5.30
-4.46
-5.00
-6.73
-9.26
-12.13
-14.94
-17.36
-19.09
-19.73
-18.72
-15.50
-9.75
-1.64
8.10
18.46
28.42
37.33
44.96
51.46
57.22
62.69
68.38
74.54
81.02
86.86
90.35
89.45
82.51
69.11
50.41
28.98
7.99
-9.74
-22.49
-29.95
-32.94
-32.84
-30.97
-28.19
-24.74
-20.46
-15.09
-8.68
-1.75
4.84
10.12
13.28
13.85
11.59
6.38
-1.73
-12.24
-24.01
-35.31
-44.26
-49.49
-50.65
-48.40
-43.96
-38.48
-32.62
-26.65
-20.73
-15.29
-11.04
-8.72
-8.66
-10.60
-13.79
-17.33
-20.67
-23.69
-26.61
-29.62
-32.62
-35.09
-36.33
-35.76
-33.23
-29.12
-24.17
-19.20
-14.77
-11.06
-7.94
-5.24
-2.89
-1.07
-0.19
-0.68
-2.91
-6.93
-12.43
-18.79
-25.21
-30.86
-35.05
-37.36
-37.69
-36.28
-33.61
-30.40
-27.29
-24.70
-22.63
-20.67
-18.23
-14.88
-10.58
-5.79
-1.23
2.41
4.83
6.15
6.85
7.47
8.34
9.48
10.66
11.60
12.24
12.82
13.86
15.89
19.29
24.10
30.03
36.53
42.95
48.56
52.66
54.74
54.59
52.37
48.66
44.18
39.55
35.13
31.01
27.12
23.35
19.58
15.61
11.17
5.99
0.02
-6.36
-12.29
-16.77
-18.98
-18.58
-15.88
-11.62
-6.69
-1.83
2.51
6.22
9.36
12.04
14.29
16.09
17.35
17.99
17.98
17.38
16.34
15.03
13.64
12.32
11.14
10.12
9.23
8.46
7.76
7.13
6.55
5.98
5.37
4.78
4.40
4.55
5.54
7.43
9.81
11.82
12.46
10.99
7.27
1.88
-4.21
-10.08
-15.17
-19.32
-22.63
-25.08
-26.42
-26.30
-24.46
-20.99
-16.35
-11.25
-6.24
-1.63
2.60
6.63
10.61
14.48
17.98
20.84
22.90
24.25
25.23
26.25
27.60
29.30
31.12
32.65
33.55
33.61
32.87
31.53
29.87
28.12
26.40
24.69
22.92
21.12
19.40
17.96
16.92
16.23
15.60
14.56
12.69
9.79
5.96
1.56
-2.91
-7.03
-10.50
-13.14
-14.85
-15.54
-15.17
-13.88
-11.93
-9.74
-7.71
-6.13
-5.11
-4.64
-4.66
-5.17
-6.21
-7.81
-9.88
-12.22
-14.54
-16.52
-17.97
-18.78
-18.99
-18.78
-18.44
-18.37
-18.91
-20.29
-22.47
-25.21
-28.10
-30.78
-33.08
-35.00
-36.61
-37.83
-38.40
-37.89
-36.02
-32.83
-28.81
-24.76
-21.50
-19.46
-18.55
-18.23
-17.79
-16.73
-14.87
-12.38
-9.57
-6.68
-3.76
-0.72
2.55
6.03
9.50
12.61
14.98
16.35
16.64
15.99
14.71
13.10
11.38
9.65
7.96
6.45
5.31
4.79
4.99
5.82
6.95
8.10
9.07
9.88
10.71
11.68
12.83
14.03
15.11
15.91
16.35
16.27
15.50
13.89
11.41
8.32
5.06
2.22
0.23
-0.63
-0.27
1.26
3.81
7.15
10.97
14.95
18.80
22.30
25.37
27.93
29.96
31.43
32.27
32.48
32.05
30.95
29.22
26.99
24.51
22.14
20.27
19.13
18.72
18.80
19.02
19.08
18.86
18.43
18.00
17.76
17.82
18.19
18.76
19.41
20.02
20.52
20.91
21.23
21.50
21.80
22.27
23.08
24.28
25.57
26.09
24.54
19.67
10.96
-0.86
-13.83
-25.46
-33.69
-37.81
-38.56
-37.63
-36.59
-36.16
-36.02
-35.33
-33.47
-30.53
-27.27
-24.59
-23.04
-22.53
-22.48
-22.27
-21.56
-20.35
-18.77
-16.89
-14.53
-11.46
-7.57
-3.14
1.24
4.80
6.95
7.49
6.70
5.21
3.75
2.85
2.51
2.28
1.56
-0.15
-2.94
-6.61
-10.64
-14.28
-16.88
-18.16
-18.08
-16.73
-14.19
-10.51
-6.01
-1.14
3.64
8.04
11.83
15.35
19.48
25.42
34.17
45.54
58.46
71.31
82.37
89.45
91.26
88.09
81.76
75.51
71.50
71.35
75.83
84.20
92.53
96.57
93.99
85.50
75.27
65.96
59.43
56.50
56.33
54.49
47.12
33.14
14.17
-5.80
-27.13
-50.83
-76.39
-102.14
-129.30
-158.57
-189.13
-219.11
-245.01
-269.06
-293.83
-319.98
-323.55
-289.09
-219.21
-134.05
-71.08
-29.54
-4.27
7.56
12.93
12.78
1.99
-22.21
-56.87
-94.03
-122.75
-139.58
-144.98
-141.36
-133.08
-128.77
-133.75
-147.51
-164.56
-176.42
-179.59
-172.51
-154.55
-114.36
-55.04
8.98
61.27
94.16
110.48
115.14
113.44
109.42
104.78
96.99
84.87
69.73
54.66
44.03
38.16
36.27
37.23
39.60
40.13
37.74
33.24
28.79
26.59
27.56
32.41
42.08
58.17
77.49
99.09
122.30
145.64
166.16
179.93
183.99
177.52
162.24
141.16
118.61
98.07
81.36
68.48
58.35
49.97
42.87
36.95
31.85
27.41
23.13
18.51
13.32
7.68
2.19
-2.52
-6.14
-8.91
-11.14
-13.41
-16.14
-19.43
-23.05
-26.48
-29.07
-30.20
-29.49
-26.77
-22.34
-16.89
-11.23
-6.02
-1.48
2.53
6.21
9.58
12.38
14.19
14.77
14.31
13.43
12.84
13.00
13.82
14.83
15.35
14.92
13.41
11.09
8.43
5.88
3.77
2.18
0.96
-0.14
-1.39
-2.96
-4.78
-6.66
-8.42
-10.04
-11.81
-14.22
-17.75
-22.66
-28.79
-35.55
-42.15
-47.74
-51.57
-53.13
-52.08
-48.32
-41.93
-33.23
-22.80
-11.43
0.02
10.78
20.29
28.30
34.85
40.06
44.09
47.01
48.79
49.37
48.69
46.75
43.59
39.30
34.05
28.15
22.15
16.82
12.99
11.22
11.53
13.30
15.39
16.56
15.93
13.24
8.88
3.68
-1.55
-6.17
-9.95
-12.93
-15.32
-17.45
-19.62
-22.12
-25.11
-28.58
-32.27
-35.76
-38.54
-40.17
-40.37
-39.05
-36.29
-32.31
-27.42
-22.03
-16.51
-11.20
-6.32
-2.01
1.69
4.77
7.19
8.94
9.98
10.35
10.19
9.72
9.23
8.99
9.20
9.87
10.86
11.92
12.81
13.35
13.54
13.42
13.02
12.31
11.13
9.40
7.17
4.74
2.50
0.83
-0.22
-0.90
-1.71
-3.17
-5.55
-8.81
-12.66
-16.68
-20.49
-23.77
-26.17
-27.37
-27.04
-25.05
-21.50
-16.73
-11.27
-5.62
-0.20
4.72
9.01
12.67
15.82
18.64
21.28
23.68
25.59
26.65
26.57
25.37
23.38
21.12
18.95
17.07
15.39
13.79
12.22
10.80
9.67
8.84
8.08
7.00
5.22
2.59
-0.69
-4.19
-7.43
-10.12
-12.24
-14.06
-15.93
-18.12
-20.76
-23.77
-26.89
-29.80
-32.14
-33.60
-33.86
-32.70
-30.01
-25.86
-20.48
-14.33
-7.97
-1.97
3.22
7.35
10.47
12.79
14.64
16.23
17.63
18.76
19.55
20.02
20.29
20.52
20.82
21.17
21.50
21.70
21.73
21.55
21.11
20.34
19.17
17.65
15.95
14.32
12.93
11.76
10.59
9.08
6.98
4.21
0.86
-2.87
-6.80
-10.85
-14.92
-18.83
-22.26
-24.77
-26.03
-25.94
-24.68
-22.61
-20.11
-17.36
-14.25
-10.56
-6.11
-0.97
4.43
9.44
13.38
15.73
16.27
15.09
12.46
8.76
4.27
-0.78
-6.28
-12.12
-18.11
-23.94
-29.26
-33.76
-37.28
-39.83
-41.56
-42.56
-42.83
-42.20
-40.49
-37.63
-33.77
-29.27
-24.62
-20.35
-16.98
-14.97
-14.72
-16.39
-19.81
-24.32
-28.90
-32.40
-33.93
-33.12
-30.10
-25.40
-19.66
-13.47
-7.30
-1.53
3.55
7.76
11.09
13.73
15.93
17.93
19.82
21.56
23.11
24.48
25.72
26.80
27.59
27.84
27.37
26.21
24.66
23.15
22.04
21.40
20.95
20.23
18.84
16.68
13.98
11.23
8.91
7.26
6.19
5.33
4.22
2.56
0.34
-2.18
-4.59
-6.61
-8.19
-9.48
-10.59
-11.42
-11.59
-10.57
-8.04
-4.05
0.86
5.92
10.50
14.30
17.42
20.12
22.55
24.65
26.14
26.83
26.74
26.22
25.70
25.49
25.61
25.76
25.53
24.65
23.14
21.28
19.40
17.76
16.35
14.96
13.34
11.34
9.04
6.69
4.62
3.07
2.09
1.54
1.10
0.47
-0.54
-1.95
-3.66
-5.52
-7.44
-9.45
-11.52
-13.51
-15.03
-15.57
-14.68
-12.24
-8.57
-4.31
-0.18
3.26
5.77
7.40
8.33
8.77
8.93
9.00
9.19
9.71
10.69
12.13
13.87
15.69
17.37
18.77
19.84
20.58
21.09
21.50
21.94
22.51
23.07
23.23
22.46
20.34
16.82
12.34
7.75
3.87
1.14
-0.61
-2.05
-3.97
-6.92
-10.99
-15.83
-20.89
-25.60
-29.53
-32.35
-33.79
-33.64
-31.87
-28.71
-24.68
-20.45
-16.64
-13.57
-11.24
-9.33
-7.45
-5.30
-2.85
-0.34
1.79
3.07
3.19
2.09
-0.02
-2.73
-5.59
-8.23
-10.41
-12.06
-13.16
-13.69
-13.66
-13.09
-12.09
-10.81
-9.49
-8.35
-7.54
-7.17
-7.26
-7.80
-8.82
-10.33
-12.35
-14.90
-17.90
-21.13
-24.24
-26.77
-28.36
-28.83
-28.33
-27.24
-26.01
-24.87
-23.75
-22.32
-20.14
-17.01
-13.03
-8.64
-4.43
-0.86
1.88
3.88
5.44
6.88
8.40
10.06
11.79
13.45
14.97
16.30
17.48
18.55
19.53
20.39
21.01
21.24
20.96
20.16
18.94
17.49
15.98
14.49
13.00
11.41
9.68
7.86
6.03
4.19
2.25
-0.03
-2.80
-6.07
-9.52
-12.67
-14.99
-16.13
-16.00
-14.72
-12.51
-9.60
-6.14
-2.32
1.64
5.50
9.01
12.01
14.36
16.00
16.89
17.08
16.79
16.31
15.97
15.95
16.20
16.41
16.22
15.38
13.93
12.11
10.25
8.51
6.81
4.89
2.46
-0.61
-4.20
-8.01
-11.69
-15.01
-17.97
-20.76
-23.70
-27.14
-31.29
-36.13
-41.39
-46.61
-51.18
-54.46
-55.90
-55.06
-51.71
-45.89
-37.96
-28.69
-19.13
-10.43
-3.44
1.57
5.01
7.66
10.33
13.43
16.80
19.98
22.48
24.13
25.08
25.57
25.70
25.33
24.19
22.11
19.29
16.20
13.37
11.15
9.52
8.12
6.49
4.31
1.61
-1.27
-3.83
-5.62
-6.50
-6.69
-6.66
-6.95
-7.87
-9.42
-11.27
-12.95
-13.98
-14.10
-13.24
-11.52
-9.10
-6.10
-2.52
1.76
6.85
12.72
19.06
25.28
30.69
34.70
37.11
38.12
38.31
38.30
38.60
39.44
40.78
42.38
43.74
44.16
42.85
39.21
33.12
25.13
16.34
8.04
1.24
-3.78
-7.55
-11.23
-16.11
-22.90
-31.32
-39.95
-46.77
-49.99
-48.95
-44.48
-38.60
-33.60
-31.01
-31.05
-32.81
-35.04
-36.89
-38.27
-39.51
-40.79
-41.75
-41.50
-39.15
-34.27
-27.22
-18.92
-10.51
-2.85
3.59
8.76
12.71
15.49
17.05
17.30
16.33
14.43
12.14
10.13
8.95
8.96
10.18
12.30
14.86
17.36
19.41
20.84
21.64
21.90
21.73
21.24
20.52
19.74
19.11
18.86
19.03
19.48
19.83
19.64
18.58
16.57
13.81
10.76
7.94
5.83
4.80
5.04
6.64
9.51
13.45
18.16
23.28
28.51
33.62
38.52
43.20
47.66
51.82
55.45
58.16
59.53
59.22
57.17
53.66
49.21
44.41
39.67
35.07
30.40
25.31
19.43
12.56
4.57
-4.55
-14.60
-25.09
-35.19
-43.78
-49.75
-52.39
-51.61
-48.12
-43.16
-38.17
-34.28
-32.12
-31.79
-32.93
-34.99
-37.36
-39.48
-40.79
-40.86
-39.40
-36.33
-31.83
-26.26
-20.12
-13.90
-8.08
-3.04
0.94
3.73
5.44
6.37
6.95
7.54
8.33
9.25
10.03
10.36
10.06
9.10
7.65
6.00
4.43
3.24
2.66
2.73
3.33
4.15
4.66
4.34
2.78
-0.13
-4.06
-8.42
-12.44
-15.50
-17.24
-17.65
-17.02
-15.78
-14.39
-13.26
-12.63
-12.63
-13.13
-13.76
-13.99
-13.23
-11.03
-7.24
-2.13
3.66
9.38
14.27
17.85
19.98
20.95
21.23
21.39
21.83
22.64
23.63
24.40
24.49
23.49
21.14
17.34
12.17
5.93
-0.83
-7.39
-13.00
-17.11
-19.58
-20.70
-21.08
-21.34
-21.90
-22.82
-23.91
-24.94
-25.82
-26.62
-27.52
-28.65
-29.95
-31.23
-32.23
-32.77
-32.74
-32.11
-30.84
-28.91
-26.20
-22.61
-18.11
-12.75
-6.80
-0.70
4.99
9.70
13.05
14.95
15.63
15.56
15.24
15.05
15.08
15.23
15.27
15.00
14.32
13.23
11.86
10.32
8.66
6.80
4.66
2.20
-0.47
-3.09
-5.35
-7.06
-8.26
-9.20
-10.18
-11.46
-13.08
-14.93
-16.81
-18.58
-20.14
-21.45
-22.43
-22.92
-22.69
-21.52
-19.29
-16.08
-12.17
-7.96
-3.84
-0.07
3.31
6.40
9.40
12.37
15.29
17.95
20.20
21.98
23.39
24.57
25.60
26.38
26.63
26.04
24.41
21.83
18.63
15.32
12.42
10.27
8.97
8.33
7.96
7.37
6.11
3.94
0.94
-2.44
-5.55
-7.72
-8.60
-8.29
-7.36
-6.55
-6.36
-6.72
-7.04
-6.46
-4.25
-0.07
5.95
13.25
21.10
28.71
35.36
40.34
43.16
43.84
43.11
42.37
42.93
45.24
48.45
50.75
50.08
45.29
36.92
27.10
18.48
12.70
9.67
7.90
6.04
3.21
-0.46
-4.19
-6.99
-8.46
-9.51
-11.80
-16.61
-22.98
-29.22
-33.36
-34.33
-31.87
-26.87
-21.61
-18.78
-20.14
-24.17
-28.58
-30.90
-29.43
-22.68
-9.88
7.69
26.66
42.39
52.02
52.50
41.78
19.22
-13.03
-46.06
-69.05
-75.18
-76.89
-82.17
-95.98
-115.36
-138.82
-163.84
-187.07
-205.66
-217.65
-221.92
-216.30
-200.93
-177.99
-151.33
-123.97
-97.62
-73.34
-51.83
-33.49
-16.70
-0.25
16.93
35.38
55.73
77.88
99.88
118.12
128.58
129.53
121.11
105.65
86.70
68.32
53.68
44.16
39.46
38.53
40.69
45.34
51.90
59.44
66.91
73.11
76.90
77.48
74.74
69.42
62.64
55.65
49.35
44.27
40.48
37.71
35.51
33.51
31.48
29.36
27.14
24.79
22.18
19.18
15.74
12.04
8.47
5.45
3.30
2.09
1.56
1.33
1.04
0.48
-0.42
-1.70
-3.47
-5.87
-8.95
-12.52
-16.15
-19.19
-20.99
-21.18
-19.72
-16.91
-13.26
-9.24
-5.23
-1.39
2.26
5.74
9.01
11.92
14.20
15.64
16.12
15.75
14.85
13.81
13.00
12.65
12.79
13.33
14.01
14.57
14.72
14.28
13.18
11.46
9.26
6.73
4.05
1.39
-1.09
-3.22
-4.92
-6.18
-7.09
-7.83
-8.56
-9.32
-10.09
-10.75
-11.27
-11.68
-12.04
-12.28
-12.14
-11.13
-8.77
-4.83
0.52
6.72
13.00
18.73
23.53
27.36
30.31
32.45
33.78
34.23
33.77
32.43
30.21
27.03
22.72
17.26
10.96
4.63
-0.66
-3.96
-4.87
-3.78
-1.74
-0.07
0.17
-1.58
-5.30
-10.54
-16.60
-22.64
-27.79
-31.31
-32.82
-32.44
-30.90
-29.26
-28.52
-29.18
-31.13
-33.73
-36.14
-37.64
-37.88
-36.74
-34.24
-30.40
-25.18
-18.66
-11.19
-3.38
3.95
10.06
14.54
17.47
19.32
20.71
22.08
23.47
24.59
25.00
24.44
23.05
21.34
19.96
19.42
19.85
20.97
22.32
23.50
24.35
24.98
25.64
26.50
27.53
28.49
29.02
28.78
27.49
24.97
21.12
16.03
10.02
3.74
-1.99
-6.39
-9.06
-10.12
-10.11
-9.78
-9.77
-10.40
-11.64
-13.22
-14.75
-15.79
-16.00
-15.08
-12.97
-9.76
-5.83
-1.65
2.31
5.73
8.45
10.50
11.94
12.81
13.12
12.83
12.01
10.81
9.48
8.27
7.32
6.56
5.78
4.68
3.13
1.21
-0.86
-2.84
-4.60
-6.16
-7.64
-9.10
-10.41
-11.39
-11.86
-11.87
-11.71
-11.83
-12.62
-14.22
-16.45
-18.85
-20.83
-21.79
-21.29
-19.05
-15.04
-9.51
-2.93
4.07
10.88
17.08
22.49
27.14
31.13
34.52
37.25
39.18
40.19
40.23
39.36
37.68
35.35
32.56
29.54
26.52
23.70
21.20
18.92
16.68
14.19
11.31
8.10
4.84
2.02
0.08
-0.73
-0.46
0.56
1.75
2.54
2.39
0.90
-2.19
-6.97
-13.30
-20.79
-28.80
-36.50
-43.01
-47.57
-49.65
-49.09
-46.09
-41.15
-34.94
-28.10
-21.14
-14.26
-7.43
-0.49
6.68
14.02
21.32
28.17
34.10
38.62
41.29
41.79
40.09
36.53
31.86
27.13
23.46
21.64
21.86
23.61
25.83
27.30
27.06
24.81
21.01
16.79
13.59
12.54
13.92
16.68
18.64
17.01
9.56
-4.57
-24.30
-47.02
-69.47
-88.84
-103.38
-112.50
-116.30
-115.06
-108.97
-98.37
-84.08
-67.64
-51.06
-36.25
-24.46
-15.88
-9.86
-5.26
-1.13
3.06
7.34
11.44
15.04
17.72
19.00
18.29
15.12
9.52
2.22
-5.33
-11.56
-15.29
-16.31
-15.36
-13.91
-13.57
-15.71
-21.01
-29.27
-39.39
-49.48
-57.39
-61.33
-60.54
-55.58
-48.07
-40.09
-33.31
-28.56
-25.69
-23.90
-22.25
-20.03
-16.90
-12.88
-8.14
-2.90
2.71
8.61
14.68
20.64
26.01
30.23
32.77
33.37
32.06
29.11
24.92
19.98
14.85
10.18
6.62
4.61
4.25
5.21
6.84
8.47
9.63
10.20
10.30
10.16
9.95
9.74
9.59
9.58
9.86
10.46
11.26
11.92
11.96
11.01
8.92
5.86
2.32
-1.13
-3.92
-5.58
-5.82
-4.47
-1.55
2.69
7.85
13.40
18.83
23.75
27.95
31.38
34.05
36.00
37.25
37.86
37.93
37.64
37.12
36.42
35.47
34.08
32.09
29.43
26.24
22.83
19.65
17.03
15.12
13.82
12.81
11.75
10.47
9.02
7.71
6.89
6.82
7.46
8.53
9.59
10.26
10.37
10.05
9.63
9.57
10.33
12.33
15.93
21.33
28.40
36.54
44.71
51.73
56.67
59.22
59.67
58.58
56.37
52.99
48.13
41.67
34.06
26.33
19.71
14.95
11.97
9.94
7.74
4.51
0.02
-5.44
-11.27
-16.90
-21.87
-25.79
-28.32
-29.21
-28.44
-26.32
-23.45
-20.49
-17.95
-16.07
-14.89
-14.43
-14.82
-16.23
-18.64
-21.70
-24.65
-26.56
-26.72
-24.89
-21.35
-16.67
-11.41
-5.96
-0.51
4.86
10.03
14.94
19.64
24.31
29.21
34.51
40.06
45.53
50.39
54.12
56.30
56.73
55.44
52.78
49.30
45.65
42.27
39.20
36.01
31.97
26.45
19.19
10.38
0.50
-9.91
-20.35
-30.39
-39.55
-47.31
-53.34
-57.74
-61.16
-64.65
-69.21
-75.29
-82.51
-89.68
-95.25
-97.72
-96.11
-90.10
-80.05
-66.82
-51.61
-35.71
-20.29
-6.25
5.86
15.77
23.31
28.24
30.22
28.96
24.46
17.12
7.69
-2.97
-14.22
-25.76
-37.57
-49.59
-61.56
-72.99
-83.33
-92.35
-100.20
-107.27
-113.79
-119.58
-123.96
-126.01
-125.06
-121.03
-114.58
-107.00
-99.79
-94.35
-91.54
-91.42
-93.04
-94.52
-93.35
-87.06
-74.03
-54.15
-29.00
-1.46
25.19
48.16
65.86
78.03
85.39
89.06
90.05
89.05
86.46
82.55
77.64
72.04
66.06
59.87
53.53
47.02
40.37
33.72
27.34
21.66
17.15
14.24
13.13
13.64
15.20
16.92
17.95
17.78
16.48
14.58
12.84
11.87
11.84
12.47
13.08
12.92
11.43
8.54
4.76
1.09
-1.25
-1.27
1.54
6.92
13.93
21.32
27.82
32.62
35.57
37.17
38.35
40.13
43.15
47.48
52.55
57.46
61.38
63.81
64.72
64.32
62.85
60.39
56.87
52.29
46.89
41.24
36.15
32.33
30.12
29.38
29.53
29.91
30.03
29.75
29.31
29.14
29.60
30.79
32.62
34.82
37.17
39.52
41.71
43.58
44.83
45.07
43.90
41.09
36.74
31.34
25.68
20.59
16.55
13.47
10.68
7.33
2.71
-3.38
-10.62
-18.31
-25.67
-31.94
-36.46
-38.67
-38.15
-34.88
-29.44
-23.00
-17.04
-12.81
-10.94
-11.24
-12.95
-15.06
-16.78
-17.69
-17.81
-17.44
-16.99
-16.86
-17.28
-18.34
-19.94
-21.87
-23.87
-25.72
-27.36
-28.93
-30.69
-32.94
-35.88
-39.51
-43.58
-47.59
-50.92
-52.86
-52.85
-50.59
-46.12
-39.90
-32.63
-25.12
-18.07
-11.90
-6.73
-2.49
0.94
3.52
5.12
5.53
4.62
2.45
-0.73
-4.56
-8.62
-12.55
-16.02
-18.82
-20.75
-21.76
-21.91
-21.41
-20.59
-19.72
-19.04
-18.59
-18.34
-18.18
-18.06
-17.99
-18.02
-18.19
-18.50
-18.92
-19.42
-20.07
-21.00
-22.38
-24.34
-26.84
-29.64
-32.32
-34.36
-35.24
-34.64
-32.48
-29.06
-24.90
-20.65
-16.87
-13.90
-11.88
-10.89
-11.11
-12.83
-16.29
-21.50
-27.99
-34.94
-41.44
-46.88
-51.25
-55.22
-59.83
-66.04
-74.31
-84.32
-95.04
-105.14
-113.49
-119.69
-124.22
-128.45
-134.17
-143.07
-156.16
-173.33
-193.15
-213.09
-229.93
-240.47
-242.23
-234.07
-216.31
-190.58
-159.15
-124.24
-87.56
-50.24
-13.11
22.92
56.65
86.78
112.28
132.78
148.76
161.42
172.17
182.21
192.09
201.67
210.35
217.37
222.29
225.02
225.87
225.18
223.05
219.29
213.49
205.40
195.24
183.71
171.79
160.28
149.50
139.26
129.02
118.17
106.33
93.49
80.11
67.07
55.51
46.49
40.52
37.22
35.22
32.64
27.76
19.79
9.11
-2.93
-14.78
-25.31
-34.22
-41.81
-48.46
-54.15
-58.28
-59.98
-58.61
-54.21
-47.61
-40.18
-33.34
-28.05
-24.65
-22.83
-21.99
-21.48
-20.85
-19.88
-18.55
-16.84
-14.71
-12.06
-8.85
-5.24
-1.60
1.56
3.81
4.92
5.04
4.62
4.22
4.34
5.18
6.67
8.46
10.07
10.98
10.80
9.34
6.66
3.04
-1.05
-5.14
-8.80
-11.65
-13.38
-13.66
-12.26
-9.21
-4.81
0.38
5.76
10.93
15.83
20.59
25.34
29.90
33.80
36.43
37.38
36.60
34.45
31.52
28.34
25.19
22.07
18.66
14.46
8.93
1.71
-7.11
-16.95
-26.75
-35.42
-42.20
-46.76
-49.37
-50.68
-51.42
-52.01
-52.59
-53.26
-54.36
-56.41
-59.60
-63.62
-67.67
-70.62
-71.54
-70.22
-67.48
-65.06
-65.09
-68.81
-76.82
-89.21
-105.46
-124.08
-142.43
-157.01
-164.29
-161.82
-147.94
-124.23
-95.74
-69.25
-50.03
-39.48
-34.96
-31.36
-23.43
-4.48
28.67
74.25
126.42
178.44
225.23
263.94
293.67
315.00
334.35
356.71
382.40
406.89
424.73
432.96
431.62
422.67
408.64
398.29
398.08
409.10
427.58
449.22
471.49
492.45
509.34
478.30
376.21
214.83
35.06
-123.85
-243.99
-326.05
-378.75
-411.03
-428.99
-429.87
-411.75
-378.46
-339.02
-302.05
-270.98
-245.70
-224.57
-206.77
-188.08
-166.07
-141.76
-118.72
-99.69
-85.49
-76.25
-71.84
-72.61
-77.58
-84.23
-91.33
-100.85
-112.69
-124.63
-134.28
-140.01
-142.51
-142.45
-140.52
-137.58
-133.68
-126.61
-112.70
-88.87
-55.34
-14.10
29.91
70.57
102.48
122.70
131.65
132.06
121.68
105.85
88.92
72.04
54.58
35.92
16.64
-1.24
-15.41
-24.41
-27.52
-26.50
-24.24
-22.99
-23.45
-24.86
-25.84
-25.57
-24.48
-23.38
-23.98
-27.43
-33.30
-39.71
-44.34
-45.62
-43.48
-39.28
-34.53
-31.23
-29.86
-30.04
-30.75
-31.00
-30.32
-28.79
-26.86
-24.63
-22.18
-19.36
-15.97
-11.80
-6.84
-1.33
4.30
9.59
14.31
18.21
21.20
23.15
23.87
23.07
20.59
16.55
11.61
7.02
3.98
3.36
5.12
8.50
12.31
15.61
18.11
19.52
20.45
21.75
24.08
27.60
32.04
36.90
41.60
45.51
47.84
47.76
44.39
37.19
26.47
13.60
0.83
-9.53
-16.12
-19.19
-20.32
-21.64
-24.54
-28.93
-33.35
-35.98
-35.79
-32.97
-28.70
-24.20
-20.25
-17.13
-15.18
-15.28
-18.66
-26.14
-37.11
-49.19
-58.77
-62.51
-58.71
-48.13
-33.71
-19.42
-8.94
-4.56
-6.77
-14.41
-25.36
-37.31
-48.42
-57.80
-65.50
-72.50
-80.52
-91.55
-107.12
-127.26
-149.68
-169.84
-182.15
-182.14
-168.17
-141.96
-107.45
-68.85
-29.03
10.68
49.50
85.82
116.86
139.65
152.76
157.41
157.14
156.14
157.20
160.54
164.28
165.73
163.04
156.13
146.57
136.75
128.66
123.16
119.66
116.71
112.77
107.07
99.99
92.81
87.07
83.82
83.20
84.51
86.61
88.37
89.00
88.05
85.27
80.52
73.71
64.87
54.23
42.17
29.14
15.67
2.22
-10.95
-23.76
-36.35
-48.80
-60.94
-72.09
-81.19
-87.19
-89.61
-88.90
-86.48
-84.10
-83.01
-83.44
-84.53
-84.76
-82.37
-76.12
-65.64
-51.88
-36.84
-23.06
-12.92
-8.08
-9.04
-14.81
-22.91
-29.94
-32.79
-29.28
-18.79
-2.73
15.73
32.76
45.19
51.62
52.54
48.85
42.06
33.99
26.36
20.44
17.23
17.80
23.07
33.19
45.18
55.81
63.37
67.93
70.29
71.18
70.94
69.69
67.76
62.86
54.32
44.05
34.52
25.63
14.52
-2.58
-27.79
-60.47
-101.84
-150.98
-204.54
-258.00
-308.28
-353.16
-391.20
-421.17
-416.45
-363.58
-271.89
-166.98
-71.21
3.16
51.68
73.60
72.00
54.37
26.06
-5.92
-32.68
-46.13
-42.48
-21.09
15.34
63.35
119.76
175.39
223.10
260.65
289.85
301.86
291.86
260.97
215.86
164.05
110.41
60.78
21.87
-1.43
-8.83
-3.94
4.49
9.37
5.44
-9.62
-33.21
-59.48
-82.78
-100.18
-105.74
-100.86
-91.19
-83.67
-81.51
-82.04
-79.50
-71.43
-55.97
-33.84
-8.59
16.51
38.04
54.71
68.35
82.30
98.94
115.81
129.97
137.80
136.54
122.24
91.96
45.74
-13.56
-81.49
-152.05
-216.97
-267.23
-281.37
-247.32
-175.04
-90.39
-16.60
35.41
65.54
79.64
84.75
85.89
83.57
77.43
69.55
64.51
65.91
73.28
81.84
85.88
79.01
57.31
22.52
-17.70
-53.12
-76.03
-84.00
-79.36
-66.84
-51.45
-37.34
-26.07
-16.38
-5.49
8.56
25.68
43.37
57.58
64.35
61.44
49.67
32.48
14.38
-1.05
-11.94
-18.04
-17.87
-10.17
3.71
19.39
31.21
35.13
30.29
19.37
6.71
-2.10
-2.61
5.82
21.73
41.32
59.69
72.68
78.24
75.63
67.51
58.42
52.12
49.80
49.07
45.18
33.26
9.82
-27.60
-76.42
-129.12
-176.20
-209.51
-224.90
-223.36
-209.27
-176.58
-130.80
-85.64
-53.14
-35.89
-28.05
-20.71
-6.73
18.55
55.63
98.43
138.79
169.04
183.63
180.91
166.67
146.49
129.52
124.64
135.01
158.35
187.92
214.20
227.75
223.15
198.27
157.91
110.16
60.48
10.23
-37.78
-80.57
-115.67
-139.75
-152.68
-153.26
-142.06
-124.85
-110.82
-108.31
-121.13
-148.45
-184.77
-226.94
-269.14
-303.99
-325.41
-329.13
-312.90
-276.34
-223.51
-136.08
-24.78
82.92
166.45
221.18
250.19
255.60
242.12
210.79
167.22
116.69
67.21
25.60
-7.66
-31.83
-51.15
-70.36
-95.23
-125.44
-158.07
-185.12
-196.75
-186.72
-154.01
-103.98
-30.77
52.08
124.20
171.67
193.74
195.29
179.37
150.94
111.17
64.51
15.37
-29.72
-66.69
-95.68
-113.40
-120.96
-119.49
-109.49
-89.42
-59.69
-20.92
23.99
68.73
104.42
121.95
116.87
90.52
49.95
3.50
-40.19
-73.97
-94.22
-100.31
-93.36
-73.62
-41.93
-1.44
40.15
72.52
86.99
78.06
44.80
-8.68
-72.63
-134.22
-180.88
-203.80
-199.64
-168.87
-117.57
-56.67
1.32
47.56
78.91
96.98
105.41
107.54
108.35
111.75
119.50
132.16
151.07
177.74
211.87
250.37
269.87
254.78
209.44
152.84
101.56
63.08
37.89
22.84
13.58
6.30
1.41
0.52
3.63
9.06
15.41
22.24
29.41
36.31
42.70
49.01
55.98
63.10
68.89
72.53
74.14
74.15
72.70
69.61
65.95
63.08
61.61
61.57
63.26
67.07
72.50
77.25
77.80
70.18
51.44
20.58
-20.96
-69.32
-119.33
-165.70
-203.53
-228.48
-237.20
-228.67
-205.89
-175.94
-147.69
-128.27
-120.03
-120.05
-122.64
-123.52
-122.73
-124.94
-136.83
-163.13
-203.62
-252.70
-301.41
-340.66
-364.02
-369.09
-357.32
-332.85
-300.86
-266.08
-231.90
-200.21
-172.08
-148.51
-130.67
-119.25
-113.39
-109.90
-103.67
-89.38
-63.63
-26.38
19.15
68.08
116.29
162.20
207.05
253.21
301.84
351.11
396.24
431.13
451.00
454.31
443.19
422.24
396.41
369.28
342.34
315.38
287.57
258.38
227.86
196.40
164.38
131.95
99.33
67.14
36.64
9.59
-12.18
-27.45
-36.09
-39.23
-38.99
-37.81
-37.61
-39.16
-41.83
-44.03
-44.09
-41.17
-35.75
-29.48
-24.31
-21.60
-21.65
-23.87
-27.35
-31.48
-36.01
-40.96
-46.20
-51.34
-55.95
-59.83
-63.16
-66.37
-69.66
-72.62
-74.16
-72.96
-68.13
-59.78
-49.15
-38.30
-29.28
-23.42
-20.83
-20.51
-20.94
-20.82
-19.57
-17.47
-15.34
-14.02
-14.05
-15.50
-18.20
-21.79
-25.84
-29.90
-33.62
-36.87
-39.81
-42.88
-46.68
-51.60
-57.66
-64.33
-70.80
-76.28
-80.31
-82.92
-84.57
-85.85
-87.24
-89.02
-91.19
-93.57
-95.73
-97.07
-96.99
-95.25
-92.23
-89.13
-87.66
-89.41
-95.03
-103.73
-113.31
-120.83
-123.50
-119.45
-108.47
-92.06
-72.85
-53.72
-36.86
-23.14
-12.19
-2.58
7.63
20.19
36.08
55.12
76.09
97.10
116.23
132.14
144.88
156.18
168.69
184.62
204.57
227.23
249.84
269.41
283.36
291.18
294.83
297.56
302.07
309.27
318.23
326.45
330.57
326.11
310.25
283.28
247.51
205.21
157.92
107.32
56.28
9.51
-29.12
-55.44
-65.61
-59.11
-40.99
-20.54
-7.26
-7.81
-24.86
-60.55
-114.19
-180.73
-252.00
-318.87
-372.04
-402.67
-405.23
-365.28
-287.43
-200.89
-139.17
-114.74
-116.34
-122.82
-117.13
-94.27
-61.23
-33.01
-20.89
-24.50
-34.75
-41.57
-39.70
-29.88
-17.00
-6.66
-3.68
-8.51
-16.02
-21.28
-23.17
-23.93
-26.29
-31.15
-37.32
-42.97
-45.94
-41.92
-29.09
-9.14
14.42
38.29
60.12
79.25
96.91
111.29
125.28
140.56
155.64
166.37
167.48
154.13
124.33
80.48
22.63
-34.03
-71.25
-81.01
-68.35
-44.24
-18.51
3.00
20.23
32.53
39.78
39.74
29.46
8.47
-19.84
-49.10
-72.79
-83.95
-79.56
-60.63
-34.41
-10.83
3.07
6.88
6.56
10.93
26.99
55.69
92.80
130.13
159.82
178.17
186.38
188.40
187.92
186.47
182.91
175.56
163.41
147.09
128.73
110.73
94.12
78.02
60.34
38.85
12.68
-17.49
-49.87
-82.17
-112.24
-138.30
-159.00
-173.46
-181.50
-183.78
-181.65
-176.84
-170.92
-164.89
-159.03
-153.11
-146.73
-139.70
-132.18
-124.62
-117.62
-111.69
-107.02
-103.39
-100.18
-96.58
-91.91
-85.84
-78.54
-70.67
-63.18
-57.11
-53.37
-52.50
-54.07
-56.26
-55.99
-49.71
-34.80
-10.87
19.97
53.85
86.78
116.10
141.01
162.12
180.25
195.42
206.56
211.98
210.32
201.30
185.96
166.36
144.96
123.99
104.93
88.08
72.49
56.27
37.40
14.70
-11.54
-39.45
-66.15
-88.75
-105.19
-114.80
-118.28
-117.18
-113.12
-107.34
-100.55
-93.15
-85.66
-78.84
-73.51
-70.01
-67.88
-65.87
-62.44
-56.51
-48.06
-38.16
-28.44
-20.21
-13.85
-8.75
-3.88
1.51
7.42
13.19
18.04
21.51
23.74
25.34
26.84
28.46
29.91
30.69
30.34
28.74
26.03
22.49
18.46
14.16
9.81
5.56
1.45
-2.58
-6.67
-10.97
-15.57
-20.44
-25.47
-30.41
-34.81
-38.12
-39.84
-39.67
-37.72
-34.46
-30.52
-26.42
-22.36
-18.24
-13.86
-9.19
-4.42
0.07
4.00
7.25
9.92
12.07
13.68
14.51
14.30
12.87
10.27
6.81
2.94
-0.86
-4.23
-7.00
-9.23
-11.15
-13.03
-15.05
-17.23
-19.40
-21.36
-22.97
-24.31
-25.65
-27.39
-29.85
-33.14
-37.13
-41.41
-45.43
-48.53
-50.11
-49.74
-47.31
-43.05
-37.50
-31.25
-24.76
-18.24
-11.70
-5.21
0.95
6.20
9.96
11.86
12.06
11.27
10.40
10.30
11.45
14.03
17.98
23.19
29.44
36.33
43.25
49.49
54.40
57.69
59.38
59.78
59.20
57.83
55.67
52.71
48.99
44.69
40.06
35.26
30.36
25.34
20.19
14.97
9.79
4.71
-0.16
-4.68
-8.63
-11.66
-13.48
-13.89
-12.90
-10.76
-7.82
-4.49
-1.11
2.07
4.87
7.17
8.90
9.99
10.40
10.10
9.10
7.47
5.41
3.26
1.40
0.14
-0.45
-0.56
-0.55
-0.77
-1.33
-2.15
-2.97
-3.58
-3.93
-4.11
-4.23
-4.31
-4.19
-3.66
-2.57
-1.03
0.59
1.81
2.21
1.62
0.17
-1.75
-3.70
-5.33
-6.48
-7.21
-7.63
-7.80
-7.64
-6.93
-5.50
-3.35
-0.72
1.93
4.15
5.70
6.55
6.89
6.98
6.99
6.94
6.81
6.62
6.45
6.40
6.54
6.81
7.03
6.98
6.49
5.54
4.21
2.65
1.01
-0.63
-2.28
-3.98
-5.81
-7.71
-9.56
-11.14
-12.26
-12.89
-13.20
-13.54
-14.25
-15.49
-17.12
-18.70
-19.68
-19.66
-18.49
-16.29
-13.37
-9.98
-6.27
-2.30
1.86
6.03
9.88
13.04
15.22
16.36
16.66
16.48
16.14
15.82
15.50
15.06
14.39
13.52
12.64
11.98
11.71
11.85
12.18
12.47
12.46
12.12
11.57
11.03
10.72
10.68
10.77
10.68
10.10
8.82
6.88
4.50
1.93
-0.69
-3.41
-6.38
-9.73
-13.34
-16.90
-19.90
-21.87
-22.57
-22.02
-20.44
-18.15
-15.43
-12.48
-9.41
-6.27
-3.09
0.05
3.04
5.71
7.91
9.51
10.51
11.01
11.20
11.27
11.35
11.51
11.73
11.96
12.20
12.47
12.77
13.05
13.16
12.95
12.32
11.30
10.10
9.02
8.29
7.94
7.79
7.49
6.76
5.47
3.78
1.98
0.37
-0.98
-2.19
-3.55
-5.27
-7.38
-9.63
-11.59
-12.79
-13.01
-12.28
-10.92
-9.28
-7.62
-5.93
-4.01
-1.64
1.20
4.22
6.97
8.99
10.09
10.45
10.50
10.69
11.21
11.97
12.64
12.91
12.71
12.20
11.75
11.67
12.05
12.73
13.35
13.61
13.40
12.88
12.38
12.18
12.37
12.81
13.21
13.37
13.27
13.12
13.15
13.45
13.76
13.59
12.37
9.73
5.62
0.30
-5.75
-11.99
-17.89
-22.99
-26.87
-29.27
-30.09
-29.43
-27.58
-24.91
-21.78
-18.51
-15.36
-12.48
-9.94
-7.69
-5.60
-3.54
-1.40
0.73
2.67
4.19
5.22
5.86
6.32
6.89
7.73
8.85
10.11
11.33
12.36
13.09
13.50
13.62
13.44
12.95
12.12
10.94
9.48
7.88
6.33
4.98
3.84
2.79
1.58
-0.02
-2.04
-4.26
-6.34
-7.93
-8.94
-9.48
-9.83
-10.16
-10.42
-10.35
-9.59
-7.93
-5.43
-2.45
0.45
2.75
4.16
4.68
4.56
4.16
3.76
3.45
3.09
2.45
1.37
-0.16
-1.95
-3.69
-5.13
-6.15
-6.83
-7.31
-7.72
-8.10
-8.37
-8.43
-8.20
-7.76
-7.26
-6.88
-6.74
-6.84
-7.04
-7.19
-7.18
-6.99
-6.75
-6.63
-6.76
-7.19
-7.85
-8.62
-9.37
-10.05
-10.61
-11.01
-11.15
-10.86
-9.98
-8.41
-6.18
-3.52
-0.73
1.89
4.15
6.04
7.63
9.02
10.27
11.34
12.17
12.75
13.13
13.41
13.71
14.04
14.30
14.34
14.01
13.29
12.28
11.23
10.37
9.85
9.65
9.58
9.36
8.75
7.66
6.21
4.65
3.30
2.34
1.77
1.38
0.89
0.07
-1.13
-2.63
-4.23
-5.77
-7.14
-8.34
-9.32
-10.03
-10.33
-10.13
-9.37
-8.12
-6.52
-4.75
-2.96
-1.21
0.46
2.05
3.54
4.85
5.88
6.52
6.75
6.63
6.33
6.04
5.92
6.02
6.25
6.44
6.46
6.25
5.83
5.29
4.72
4.16
3.60
3.02
2.46
2.00
1.71
1.56
1.46
1.17
0.51
-0.59
-1.94
-3.21
-4.01
-4.11
-3.59
-2.76
-2.03
-1.73
-1.95
-2.53
-3.17
-3.57
-3.47
-2.78
-1.54
0.09
1.86
3.54
4.97
6.11
7.00
7.70
8.17
8.29
7.94
7.12
6.06
5.11
4.59
4.56
4.83
4.98
4.69
3.89
2.81
1.86
1.41
1.58
2.16
2.78
3.00
2.61
1.64
0.34
-0.95
-1.95
-2.61
-3.10
-3.68
-4.58
-5.86
-7.34
-8.71
-9.66
-10.08
-10.03
-9.68
-9.19
-8.58
-7.77
-6.64
-5.23
-3.66
-2.15
-0.87
0.18
1.14
2.18
3.37
4.57
5.54
6.02
5.88
5.23
4.32
3.41
2.70
2.19
1.82
1.48
1.14
0.86
0.69
0.71
0.90
1.19
1.49
1.65
1.58
1.25
0.67
-0.05
-0.76
-1.32
-1.68
-1.87
-2.01
-2.25
-2.68
-3.26
-3.89
-4.42
-4.81
-5.10
-5.37
-5.66
-5.83
-5.62
-4.77
-3.19
-1.10
1.05
2.81
3.93
4.50
4.89
5.49
6.43
7.51
8.34
8.58
8.12
7.18
6.12
5.27
4.71
4.29
3.78
3.01
2.06
1.14
0.55
0.46
0.82
1.37
1.78
1.81
1.36
0.56
-0.35
-1.16
-1.73
-2.06
-2.27
-2.44
-2.62
-2.87
-3.17
-3.58
-4.16
-4.96
-5.91
-6.81
-7.40
-7.41
-6.74
-5.48
-3.92
-2.40
-1.19
-0.35
0.23
0.76
1.48
2.47
3.64
4.76
5.55
5.80
5.45
4.65
3.62
2.66
1.93
1.48
1.26
1.19
1.25
1.50
2.02
2.82
3.80
4.72
5.33
5.47
5.16
4.55
3.85
3.24
2.75
2.35
1.92
1.42
0.83
0.21
-0.37
-0.92
-1.49
-2.22
-3.23
-4.52
-5.93
-7.10
-7.69
-7.46
-6.41
-4.78
-2.96
-1.26
0.17
1.33
2.36
3.31
4.15
4.71
4.82
4.41
3.56
2.48
1.43
0.59
0.04
-0.31
-0.61
-1.00
-1.52
-2.11
-2.64
-2.99
-3.15
-3.20
-3.25
-3.43
-3.73
-4.09
-4.35
-4.42
-4.30
-4.12
-4.06
-4.27
-4.78
-5.48
-6.24
-6.97
-7.66
-8.44
-9.39
-10.47
-11.51
-12.27
-12.56
-12.35
-11.80
-11.14
-10.56
-10.15
-9.84
-9.51
-9.05
-8.41
-7.66
-6.86
-6.07
-5.27
-4.36
-3.14
-1.47
0.69
3.22
5.82
8.17
10.07
11.50
12.64
13.68
14.72
15.64
16.25
16.35
15.94
15.20
14.42
13.85
13.54
13.39
13.17
12.65
11.70
10.35
8.68
6.83
4.95
3.15
1.49
0.05
-1.10
-1.84
-2.06
-1.73
-0.93
0.17
1.35
2.42
3.31
4.04
4.69
5.32
5.90
6.29
6.30
5.77
4.61
2.93
0.93
-1.07
-2.79
-4.07
-4.92
-5.48
-5.92
-6.33
-6.70
-6.95
-7.04
-7.04
-7.10
-7.38
-7.88
-8.44
-8.77
-8.63
-7.92
-6.83
-5.66
-4.72
-4.19
-4.02
-4.04
-4.05
-3.95
-3.78
-3.64
-3.60
-3.68
-3.82
-3.97
-4.10
-4.20
-4.26
-4.23
-4.02
-3.52
-2.72
-1.67
-0.52
0.60
1.61
2.44
3.12
3.64
4.06
4.46
4.98
5.77
6.85
8.15
9.41
10.32
10.68
10.49
9.94
9.31
8.85
8.63
8.56
8.42
8.03
7.29
6.29
5.15
4.01
2.92
1.85
0.77
-0.34
-1.42
-2.40
-3.25
-4.01
-4.87
-5.98
-7.37
-8.91
-10.29
-11.20
-11.44
-11.03
-10.17
-9.09
-7.93
-6.73
-5.43
-4.03
-2.56
-1.19
-0.09
0.69
1.17
1.52
1.85
2.23
2.61
2.88
2.93
2.73
2.33
1.88
1.52
1.34
1.37
1.53
1.68
1.67
1.38
0.81
0.09
-0.61
-1.08
-1.28
-1.30
-1.35
-1.64
-2.24
-3.09
-3.98
-4.74
-5.32
-5.83
-6.49
-7.42
-8.60
-9.78
-10.66
-10.93
-10.48
-9.38
-7.88
-6.27
-4.80
-3.59
-2.59
-1.68
-0.71
0.35
1.44
2.42
3.21
3.81
4.28
4.80
5.40
6.02
6.50
6.68
6.51
6.13
5.74
5.53
5.53
5.60
5.51
5.11
4.39
3.52
2.74
2.23
2.03
2.00
1.96
1.77
1.43
1.03
0.69
0.44
0.18
-0.26
-0.99
-2.02
-3.21
-4.34
-5.24
-5.79
-6.00
-5.94
-5.65
-5.16
-4.47
-3.58
-2.51
-1.32
-0.07
1.13
2.20
3.00
3.50
3.68
3.62
3.47
3.33
3.25
3.17
2.97
2.58
2.03
1.48
1.13
1.12
1.38
1.69
1.78
1.47
0.80
-0.00
-0.64
-0.95
-0.97
-0.90
-1.00
-1.44
-2.16
-2.97
-3.63
-4.00
-4.16
-4.34
-4.75
-5.46
-6.33
-7.09
-7.45
-7.26
-6.61
-5.70
-4.77
-3.98
-3.33
-2.66
-1.81
-0.70
0.59
1.91
3.02
3.81
4.26
4.48
4.64
4.84
5.09
5.26
5.22
4.88
4.29
3.58
2.91
2.42
2.11
1.91
1.72
1.46
1.09
0.63
0.11
-0.44
-1.07
-1.78
-2.59
-3.41
-4.12
-4.60
-4.82
-4.88
-4.96
-5.29
-5.99
-7.01
-8.14
-9.07
-9.56
-9.48
-8.91
-8.02
-7.01
-5.96
-4.86
-3.60
-2.15
-0.57
0.91
2.05
2.76
3.06
3.16
3.27
3.46
3.68
3.80
3.67
3.29
2.74
2.19
1.74
1.47
1.37
1.34
1.26
1.03
0.61
0.02
-0.60
-1.11
-1.44
-1.66
-1.93
-2.44
-3.25
-4.26
-5.22
-5.87
-6.06
-5.81
-5.28
-4.65
-4.02
-3.41
-2.80
-2.13
-1.43
-0.68
0.15
1.14
2.41
4.04
6.05
8.38
10.94
13.59
16.23
18.78
21.17
23.39
25.44
27.35
29.08
30.54
31.61
32.20
32.37
32.27
32.14
32.13
32.19
32.11
31.64
30.62
29.14
27.42
25.66
23.87
21.78
19.01
15.24
10.45
4.99
-0.56
-5.67
-10.05
-13.70
-16.84
-19.70
-22.33
-24.64
-26.47
-27.72
-28.43
-28.72
-28.63
-28.16
-27.25
-25.96
-24.62
-23.72
-23.64
-24.47
-25.78
-26.86
-27.02
-25.97
-23.92
-21.50
-19.36
-17.87
-17.02
-16.52
-16.01
-15.29
-14.28
-12.99
-11.41
-9.48
-7.16
-4.51
-1.77
0.74
2.71
3.99
4.63
4.83
4.80
4.73
4.66
4.59
4.49
4.31
4.05
3.65
3.02
2.02
0.62
-1.14
-3.05
-4.84
-6.34
-7.46
-8.31
-9.05
-9.77
-10.41
-10.79
-10.71
-10.08
-9.00
-7.75
-6.61
-5.70
-4.95
-4.10
-2.87
-1.20
0.74
2.51
3.69
4.06
3.73
3.07
2.45
2.16
2.19
2.38
2.56
2.72
2.94
3.35
3.96
4.66
5.20
5.34
4.99
4.20
3.20
2.25
1.51
1.01
0.56
-0.15
-1.41
-3.36
-5.84
-8.44
-10.64
-12.02
-12.44
-12.06
-11.17
-10.04
-8.77
-7.26
-5.41
-3.16
-0.69
1.74
3.80
5.33
6.31
6.89
7.25
7.54
7.83
8.10
8.27
8.31
8.26
8.22
8.31
8.55
8.82
8.92
8.68
8.07
7.21
6.38
5.77
5.47
5.33
5.09
4.55
3.63
2.46
1.29
0.34
-0.29
-0.63
-0.93
-1.46
-2.49
-4.15
-6.33
-8.76
-11.03
-12.80
-13.89
-14.40
-14.62
-14.85
-15.30
-15.95
-16.60
-16.99
-16.93
-16.35
-15.31
-13.89
-12.15
-10.09
-7.73
-5.17
-2.65
-0.48
1.11
2.02
2.42
2.59
2.84
3.32
3.94
4.52
4.84
4.83
4.61
4.43
4.48
4.84
5.38
5.86
6.03
5.78
5.16
4.39
3.69
3.18
2.79
2.27
1.36
-0.08
-1.92
-3.74
-4.99
-5.25
-4.42
-2.74
-0.72
1.18
2.71
3.94
5.13
6.57
8.36
10.35
12.25
13.79
14.88
15.59
16.00
16.03
15.50
14.19
12.17
9.82
7.82
6.72
6.63
7.06
7.16
6.15
3.75
0.44
-2.88
-5.26
-6.16
-5.68
-4.35
-2.78
-1.36
-0.14
1.06
2.37
3.73
4.84
5.35
5.06
4.06
2.70
1.42
0.57
0.27
0.41
0.74
1.05
1.23
1.35
1.54
1.91
2.48
3.12
3.57
3.56
2.94
1.74
0.27
-1.09
-1.96
-2.20
-1.92
-1.47
-1.21
-1.34
-1.85
-2.52
-3.08
-3.40
-3.47
-3.46
-3.51
-3.70
-3.94
-4.09
-3.95
-3.42
-2.55
-1.45
-0.30
0.74
1.51
1.95
2.01
1.72
1.11
0.23
-0.85
-1.98
-2.96
-3.58
-3.63
-3.03
-1.86
-0.35
1.28
2.86
4.41
6.04
7.88
9.94
12.01
13.77
14.88
15.20
14.81
13.97
13.03
12.26
11.76
11.47
11.16
10.53
9.30
7.25
4.30
0.54
-3.85
-8.62
-13.54
-18.44
-23.14
-27.46
-31.18
-34.08
-36.02
-36.97
-37.01
-36.32
-35.04
-33.33
-31.28
-29.03
-26.77
-24.72
-23.01
-21.57
-20.13
-18.29
-15.69
-12.20
-7.93
-3.27
1.35
5.61
9.30
12.39
14.88
16.76
17.95
18.42
18.20
17.43
16.33
15.15
14.06
13.12
12.31
11.55
10.79
10.02
9.31
8.70
8.21
7.75
7.19
6.43
5.43
4.35
3.34
2.58
2.15
1.99
1.93
1.76
1.31
0.48
-0.65
-1.92
-3.05
-3.80
-4.04
-3.81
-3.30
-2.69
-2.10
-1.48
-0.67
0.54
2.23
4.38
6.78
9.17
11.32
13.03
14.25
14.97
15.21
14.98
14.31
13.28
12.05
10.81
9.70
8.80
7.98
7.10
6.02
4.75
3.44
2.34
1.61
1.24
1.06
0.82
0.35
-0.35
-1.10
-1.71
-2.06
-2.22
-2.38
-2.80
-3.63
-4.92
-6.53
-8.25
-9.84
-11.09
-11.82
-11.98
-11.61
-10.82
-9.74
-8.46
-7.01
-5.37
-3.58
-1.75
-0.06
1.34
2.38
3.13
3.74
4.35
4.97
5.48
5.66
5.33
4.51
3.37
2.27
1.55
1.39
1.73
2.32
2.81
2.96
2.70
2.18
1.62
1.26
1.16
1.27
1.43
1.47
1.31
0.91
0.27
-0.64
-1.85
-3.38
-5.13
-6.93
-8.58
-9.91
-10.82
-11.32
-11.44
-11.20
-10.59
-9.58
-8.17
-6.46
-4.58
-2.72
-1.05
0.33
1.35
2.02
2.40
2.60
2.74
2.93
3.20
3.48
3.68
3.74
3.67
3.58
3.59
3.70
3.83
3.81
3.49
2.87
2.04
1.16
0.31
-0.51
-1.36
-2.25
-3.15
-3.95
-4.55
-4.97
-5.33
-5.75
-6.36
-7.17
-8.09
-8.95
-9.56
-9.77
-9.47
-8.68
-7.48
-6.05
-4.55
-3.08
-1.62
-0.09
1.61
3.45
5.29
6.91
8.12
8.85
9.18
9.30
9.39
9.56
9.76
9.85
9.72
9.33
8.76
8.15
7.59
7.09
6.52
5.75
4.67
3.35
1.97
0.77
-0.11
-0.68
-1.12
-1.60
-2.24
-3.02
-3.79
-4.39
-4.72
-4.75
-4.56
-4.27
-3.99
-3.78
-3.63
-3.47
-3.26
-2.94
-2.50
-1.94
-1.29
-0.54
0.31
1.27
2.25
3.09
3.61
3.68
3.33
2.77
2.28
2.07
2.20
2.53
2.83
2.89
2.65
2.17
1.63
1.17
0.87
0.69
0.56
0.39
0.18
-0.04
-0.21
-0.27
-0.24
-0.16
-0.10
-0.09
-0.15
-0.28
-0.47
-0.74
-1.06
-1.39
-1.68
-1.88
-1.97
-1.96
-1.82
-1.49
-0.84
0.28
1.90
3.90
6.03
8.01
9.65
10.86
11.67
12.04
11.89
11.06
9.43
7.01
4.09
1.09
-1.54
-3.48
-4.71
-5.41
-5.91
-6.48
-7.25
-8.15
-9.00
-9.61
-9.87
-9.85
-9.72
-9.67
-9.77
-10.00
-10.24
-10.38
-10.44
-10.52
-10.81
-11.43
-12.34
-13.38
-14.28
-14.81
-14.85
-14.42
-13.64
-12.61
-11.36
-9.82
-7.91
-5.62
-3.03
-0.36
2.13
4.27
6.04
7.56
9.02
10.53
12.04
13.37
14.33
14.85
15.04
15.15
15.36
15.67
15.89
15.72
14.95
13.60
11.94
10.34
9.04
8.08
7.29
6.40
5.20
3.63
1.79
-0.12
-1.90
-3.42
-4.66
-5.74
-6.84
-8.16
-9.86
-11.93
-14.22
-16.41
-18.17
-19.17
-19.23
-18.27
-16.33
-13.45
-9.75
-5.38
-0.54
4.44
9.16
13.16
15.93
17.10
16.58
14.65
11.96
9.33
7.42
6.48
6.20
5.94
5.02
3.11
0.40
-2.53
-4.97
-6.38
-6.55
-5.64
-3.96
-1.87
0.34
2.48
4.44
6.19
7.70
8.95
9.91
10.50
10.64
10.28
9.46
8.25
6.80
5.26
3.76
2.40
1.28
0.49
0.13
0.31
1.09
2.47
4.31
6.33
8.14
9.38
9.80
9.44
8.65
7.84
7.41
7.45
7.78
8.07
7.99
7.41
6.41
5.19
3.95
2.82
1.80
0.84
-0.13
-1.11
-2.10
-3.03
-3.82
-4.41
-4.79
-5.00
-5.17
-5.44
-5.88
-6.49
-7.20
-7.87
-8.46
-8.99
-9.62
-10.47
-11.56
-12.76
-13.79
-14.30
-14.11
-13.20
-11.81
-10.26
-8.84
-7.68
-6.76
-5.93
-5.05
-4.07
-3.04
-2.07
-1.32
-0.87
-0.77
-1.00
-1.46
-2.07
-2.72
-3.32
-3.81
-4.17
-4.36
-4.37
-4.20
-3.88
-3.48
-3.04
-2.59
-2.11
-1.60
-1.04
-0.49
-0.02
0.29
0.40
0.35
0.24
0.17
0.21
0.37
0.52
0.55
0.35
-0.08
-0.62
-1.09
-1.33
-1.24
-0.90
-0.46
-0.02
0.38
0.82
1.43
2.31
3.37
4.41
5.18
5.48
5.32
4.84
4.27
3.83
3.62
3.59
3.68
3.80
3.93
4.15
4.54
5.17
6.00
6.86
7.53
7.78
7.52
6.85
5.97
5.14
4.54
4.19
4.00
3.83
3.59
3.31
3.09
3.01
3.11
3.28
3.38
3.31
3.10
2.95
3.12
3.84
5.18
6.94
8.79
10.33
11.22
11.21
10.09
7.71
4.07
-0.59
-5.69
-10.35
-13.64
-14.91
-14.03
-11.50
-8.14
-4.89
-2.35
-0.80
-0.10
0.03
-0.14
-0.43
-0.79
-1.24
-1.82
-2.48
-3.13
-3.67
-4.02
-4.19
-4.27
-4.40
-4.65
-5.04
-5.43
-5.69
-5.71
-5.54
-5.31
-5.21
-5.37
-5.77
-6.25
-6.51
-6.32
-5.51
-4.16
-2.50
-0.90
0.26
0.69
0.29
-0.85
-2.49
-4.29
-5.98
-7.36
-8.38
-9.09
-9.65
-10.22
-10.97
-11.94
-13.01
-13.87
-14.13
-13.45
-11.68
-8.94
-5.56
-1.97
1.47
4.51
6.99
8.87
10.16
10.92
11.31
11.51
11.64
11.74
11.66
11.23
10.35
9.04
7.49
5.90
4.43
3.14
2.07
1.26
0.82
0.89
1.54
2.73
4.29
5.94
7.42
8.55
9.28
9.66
9.81
9.80
9.67
9.40
8.94
8.28
7.47
6.61
5.80
5.08
4.35
3.43
2.17
0.52
-1.40
-3.34
-5.00
-6.16
-6.79
-7.01
-7.04
-7.06
-7.15
-7.30
-7.44
-7.56
-7.69
-7.96
-8.48
-9.29
-10.35
-11.58
-12.84
-14.01
-14.92
-15.46
-15.54
-15.18
-14.50
-13.65
-12.71
-11.64
-10.32
-8.61
-6.55
-4.39
-2.49
-1.15
-0.46
-0.22
-0.13
0.10
0.50
0.93
1.12
0.93
0.41
-0.16
-0.47
-0.34
0.22
0.99
1.73
2.26
2.59
2.84
3.16
3.63
4.17
4.67
5.02
5.17
5.19
5.20
5.31
5.53
5.78
5.95
5.95
5.77
5.52
5.35
5.38
5.70
6.30
7.13
8.15
9.34
10.71
12.22
13.75
15.12
16.12
16.62
16.62
16.29
15.84
15.45
15.14
14.76
14.08
12.90
11.18
9.09
6.94
5.01
3.49
2.34
1.39
0.40
-0.78
-2.16
-3.60
-4.90
-5.91
-6.63
-7.16
-7.70
-8.38
-9.20
-10.06
-10.81
-11.38
-11.85
-12.39
-13.19
-14.29
-15.51
-16.52
-16.92
-16.45
-15.06
-12.91
-10.33
-7.67
-5.17
-2.96
-1.05
0.61
2.02
3.09
3.68
3.64
2.94
1.74
0.33
-0.96
-1.93
-2.56
-3.02
-3.50
-4.12
-4.85
-5.57
-6.11
-6.36
-6.33
-6.07
-5.67
-5.19
-4.66
-4.07
-3.39
-2.59
-1.61
-0.41
0.99
2.53
4.03
5.26
5.95
5.87
4.94
3.28
1.26
-0.62
-1.87
-2.22
-1.65
-0.42
1.12
2.71
4.22
5.64
7.01
8.31
9.47
10.36
10.91
11.05
10.84
10.32
9.57
8.64
7.59
6.42
5.17
3.82
2.39
0.96
-0.40
-1.58
-2.54
-3.23
-3.72
-4.10
-4.49
-4.98
-5.54
-6.05
-6.30
-6.14
-5.55
-4.74
-4.03
-3.74
-4.06
-4.90
-5.99
-6.96
-7.55
-7.72
-7.57
-7.31
-7.08
-6.94
-6.79
-6.57
-6.21
-5.75
-5.29
-4.92
-4.65
-4.40
-4.05
-3.48
-2.64
-1.59
-0.41
0.74
1.79
2.66
3.33
3.82
4.16
4.34
4.40
4.38
4.33
4.31
4.39
4.60
4.92
5.31
5.67
5.96
6.12
6.18
6.17
6.13
6.03
5.83
5.46
4.90
4.20
3.49
2.91
2.58
2.52
2.64
2.87
3.14
3.51
4.07
4.96
6.19
7.65
9.12
10.35
11.23
11.74
12.02
12.25
12.49
12.72
12.75
12.38
11.48
10.09
8.39
6.67
5.16
4.01
3.17
2.52
1.86
1.10
0.20
-0.70
-1.47
-1.97
-2.21
-2.33
-2.56
-3.06
-3.85
-4.78
-5.63
-6.28
-6.76
-7.26
-8.01
-9.05
-10.25
-11.23
-11.62
-11.19
-9.96
-8.18
-6.21
-4.36
-2.77
-1.42
-0.15
1.19
2.69
4.34
6.02
7.62
8.98
9.96
10.45
10.32
9.40
7.51
4.47
0.20
-5.10
-10.99
-16.79
-21.81
-25.46
-27.43
-27.65
-26.24
-23.37
-19.27
-14.31
-9.02
-4.12
-0.29
1.96
2.51
1.62
-0.13
-2.13
-3.89
-5.17
-6.01
-6.61
-7.20
-7.96
-8.97
-10.31
-12.04
-14.22
-16.80
-19.53
-21.92
-23.35
-23.30
-21.55
-18.29
-14.05
-9.49
-5.16
-1.38
1.82
4.50
6.83
8.92
10.82
12.52
13.97
15.17
16.15
16.95
17.63
18.19
18.55
18.62
18.33
17.69
16.82
15.88
15.01
14.27
13.61
12.94
12.16
11.28
10.36
9.50
8.77
8.16
7.54
6.81
5.91
4.88
3.91
3.19
2.85
2.91
3.30
3.88
4.53
5.18
5.81
6.43
7.02
7.54
7.89
8.06
8.03
7.90
7.80
7.88
8.17
8.58
8.87
8.73
7.90
6.26
3.81
0.73
-2.78
-6.49
-10.21
-13.69
-16.71
-19.04
-20.53
-21.16
-21.02
-20.32
-19.24
-17.92
-16.43
-14.81
-13.10
-11.40
-9.83
-8.53
-7.60
-7.01
-6.60
-6.12
-5.31
-4.00
-2.19
-0.03
2.24
4.39
6.29
7.97
9.49
10.93
12.28
13.49
14.46
15.14
15.45
15.32
14.61
13.20
11.09
8.43
5.56
2.86
0.59
-1.23
-2.84
-4.56
-6.67
-9.13
-11.65
-13.77
-15.06
-15.27
-14.47
-12.91
-10.91
-8.80
-6.79
-5.09
-3.89
-3.37
-3.60
-4.52
-5.86
-7.29
-8.49
-9.26
-9.57
-9.47
-9.04
-8.30
-7.28
-6.04
-4.70
-3.42
-2.30
-1.35
-0.48
0.44
1.48
2.63
3.77
4.73
5.40
5.75
5.84
5.79
5.67
5.51
5.25
4.85
4.24
3.46
2.61
1.81
1.13
0.54
-0.07
-0.83
-1.81
-2.93
-4.04
-4.92
-5.44
-5.60
-5.55
-5.48
-5.59
-5.92
-6.37
-6.71
-6.75
-6.35
-5.54
-4.50
-3.40
-2.39
-1.44
-0.44
0.78
2.33
4.14
6.01
7.67
8.90
9.62
9.90
9.93
9.90
9.93
10.01
10.05
9.93
9.58
9.09
8.62
8.37
8.45
8.83
9.38
9.92
10.33
10.56
10.66
10.70
10.67
10.47
9.95
8.98
7.58
5.88
4.16
2.63
1.42
0.40
-0.70
-2.16
-4.09
-6.35
-8.56
-10.26
-11.18
-11.31
-10.84
-10.06
-9.11
-7.98
-6.51
-4.62
-2.38
-0.06
2.02
3.64
4.75
5.51
6.12
6.74
7.40
8.00
8.40
8.50
8.27
7.75
7.04
6.23
5.37
4.46
3.48
2.41
1.30
0.22
-0.75
-1.60
-2.39
-3.25
-4.26
-5.41
-6.53
-7.39
-7.82
-7.84
-7.63
-7.46
-7.55
-7.92
-8.39
-8.65
-8.41
-7.52
-6.08
-4.34
-2.58
-1.02
0.30
1.42
2.45
3.37
4.01
4.09
3.36
1.75
-0.53
-3.03
-5.22
-6.68
-7.25
-7.03
-6.33
-5.51
-4.79
-4.23
-3.73
-3.12
-2.22
-1.00
0.45
1.91
3.18
4.11
4.66
4.92
4.97
4.87
4.56
3.97
3.00
1.65
0.02
-1.69
-3.27
-4.56
-5.49
-6.10
-6.40
-6.39
-5.96
-4.96
-3.29
-1.00
1.72
4.57
7.23
9.50
11.26
12.52
13.30
13.69
13.78
13.72
13.65
13.71
13.91
14.17
14.32
14.17
13.60
12.57
11.19
9.61
7.99
6.47
5.07
3.71
2.26
0.62
-1.25
-3.24
-5.19
-6.96
-8.52
-9.97
-11.52
-13.38
-15.58
-17.92
-20.03
-21.44
-21.83
-21.15
-19.66
-17.79
-15.92
-14.18
-12.43
-10.38
-7.76
-4.58
-1.07
2.31
5.16
7.20
8.30
8.50
7.91
6.73
5.22
3.68
2.33
1.26
0.33
-0.76
-2.30
-4.44
-7.05
-9.82
-12.30
-14.12
-14.97
-14.78
-13.57
-11.57
-9.10
-6.57
-4.35
-2.72
-1.82
-1.61
-1.96
-2.71
-3.73
-4.89
-6.06
-7.03
-7.58
-7.55
-6.87
-5.64
-4.07
-2.37
-0.70
0.93
2.58
4.35
6.27
8.30
10.34
12.28
14.09
15.75
17.29
18.74
20.06
21.15
21.91
22.25
22.17
21.75
21.17
20.59
20.09
19.63
19.04
18.12
16.77
15.05
13.16
11.34
9.75
8.38
7.06
5.54
3.68
1.50
-0.79
-2.93
-4.76
-6.28
-7.66
-9.09
-10.64
-12.16
-13.36
-13.89
-13.56
-12.43
-10.77
-8.93
-7.15
-5.48
-3.85
-2.12
-0.24
1.67
3.36
4.58
5.24
5.39
5.29
5.21
5.34
5.67
6.06
6.31
6.28
5.96
5.45
4.89
4.34
3.82
3.24
2.53
1.68
0.70
-0.37
-1.50
-2.69
-3.96
-5.32
-6.74
-8.17
-9.57
-10.88
-12.06
-13.07
-13.84
-14.34
-14.54
-14.41
-13.98
-13.24
-12.19
-10.80
-9.09
-7.11
-4.94
-2.71
-0.52
1.55
3.44
5.08
6.40
7.32
7.80
7.89
7.71
7.42
7.11
6.80
6.41
5.86
5.11
4.26
3.42
2.71
2.14
1.61
0.95
-0.01
-1.35
-3.01
-4.84
-6.60
-8.10
-9.21
-9.92
-10.35
-10.71
-11.23
-11.99
-12.94
-13.88
-14.54
-14.74
-14.40
-13.58
-12.34
-10.73
-8.74
-6.37
-3.69
-0.90
1.74
4.01
5.79
7.11
8.11
8.96
9.74
10.45
11.01
11.33
11.38
11.17
10.85
10.54
10.42
10.54
10.87
11.22
11.41
11.29
10.85
10.23
9.57
8.97
8.37
7.61
6.52
5.09
3.46
1.88
0.57
-0.41
-1.19
-1.96
-2.90
-4.03
-5.23
-6.32
-7.06
-7.31
-6.99
-6.10
-4.71
-2.90
-0.74
1.70
4.28
6.73
8.68
9.76
9.71
8.60
6.78
4.81
3.22
2.26
1.84
1.61
1.19
0.46
-0.45
-1.21
-1.52
-1.33
-0.83
-0.39
-0.32
-0.71
-1.40
-2.08
-2.46
-2.45
-2.17
-1.85
-1.77
-2.03
-2.62
-3.38
-4.13
-4.78
-5.34
-5.92
-6.66
-7.56
-8.49
-9.17
-9.31
-8.72
-7.44
-5.69
-3.77
-1.94
-0.34
1.01
2.21
3.34
4.42
5.42
6.26
6.86
7.21
7.37
7.45
7.57
7.84
8.25
8.71
9.06
9.15
8.90
8.34
7.54
6.58
5.51
4.37
3.24
2.23
1.43
0.87
0.42
-0.26
-1.58
-3.81
-6.95
-10.55
-13.87
-16.16
-16.97
-16.40
-15.09
-13.92
-13.59
-14.31
-15.76
-17.28
-18.26
-18.38
-17.70
-16.44
-14.82
-12.91
-10.69
-8.13
-5.37
-2.65
-0.31
1.47
2.68
3.46
4.02
4.52
5.08
5.68
6.31
6.92
7.45
7.88
8.15
8.26
8.24
8.13
7.96
7.70
7.28
6.61
5.69
4.61
3.55
2.62
1.84
1.06
0.07
-1.27
-2.88
-4.46
-5.63
-6.12
-5.90
-5.18
-4.25
-3.33
-2.47
-1.53
-0.36
1.11
2.75
4.26
5.35
5.84
5.84
5.67
5.68
6.13
6.99
8.01
8.84
9.20
9.07
8.64
8.21
8.04
8.18
8.53
8.89
9.09
9.07
8.81
8.27
7.34
5.80
3.48
0.29
-3.66
-8.11
-12.78
-17.44
-21.95
-26.16
-29.81
-32.52
-33.78
-33.16
-30.52
-26.13
-20.57
-14.61
-8.93
-3.90
0.41
4.18
7.65
10.95
14.07
16.87
19.19
20.95
22.19
23.01
23.49
23.62
23.35
22.58
21.34
19.74
18.00
16.34
14.93
13.80
12.83
11.82
10.62
9.17
7.52
5.84
4.24
2.78
1.41
-0.00
-1.56
-3.32
-5.24
-7.23
-9.17
-10.94
-12.46
-13.66
-14.47
-14.87
-14.85
-14.42
-13.60
-12.41
-10.86
-9.04
-7.01
-4.94
-2.93
-1.12
0.41
1.63
2.57
3.27
3.77
4.11
4.31
4.36
4.28
4.12
3.95
3.81
3.73
3.71
3.70
3.65
3.53
3.27
2.82
2.11
1.13
-0.10
-1.45
-2.77
-3.95
-4.92
-5.73
-6.45
-7.21
-8.05
-8.98
-9.91
-10.67
-11.07
-10.97
-10.29
-9.10
-7.57
-5.88
-4.16
-2.45
-0.71
1.11
2.97
4.74
6.27
7.44
8.26
8.81
9.19
9.41
9.38
8.98
8.10
6.84
5.41
4.12
3.22
2.79
2.72
2.78
2.68
2.23
1.39
0.26
-0.99
-2.18
-3.23
-4.15
-5.04
-5.99
-7.06
-8.22
-9.36
-10.38
-11.22
-11.93
-12.59
-13.29
-14.01
-14.62
-14.89
-14.57
-13.50
-11.70
-9.37
-6.83
-4.39
-2.21
-0.31
1.41
3.08
4.75
6.39
7.96
9.44
10.86
12.27
13.67
14.94
15.94
16.49
16.51
16.04
15.21
14.15
12.99
11.77
10.50
9.15
7.77
6.44
5.30
4.44
3.85
3.40
2.91
2.20
1.18
-0.10
-1.50
-2.90
-4.19
-5.35
-6.39
-7.28
-7.96
-8.30
-8.19
-7.54
-6.38
-4.80
-3.03
-1.34
0.06
1.08
1.81
2.46
3.25
4.25
5.40
6.49
7.31
7.76
7.90
7.90
7.97
8.23
8.67
9.19
9.58
9.69
9.43
8.85
8.11
7.39
6.82
6.47
6.31
6.27
6.29
6.30
6.20
5.88
5.23
4.17
2.77
1.22
-0.22
-1.30
-1.90
-2.10
-2.16
-2.41
-3.20
-4.71
-6.86
-9.36
-11.77
-13.69
-14.95
-15.62
-15.98
-16.33
-16.78
-17.23
-17.39
-17.02
-16.01
-14.48
-12.69
-10.91
-9.27
-7.75
-6.23
-4.57
-2.75
-0.88
0.89
2.44
3.72
4.80
5.78
6.68
7.45
7.96
8.13
7.97
7.66
7.42
7.43
7.69
8.00
8.09
7.73
6.87
5.63
4.25
2.99
2.03
1.44
1.19
1.25
1.67
2.52
3.85
5.52
7.14
8.12
7.87
6.12
3.04
-0.73
-4.36
-7.23
-9.14
-10.46
-11.76
-13.57
-15.97
-18.57
-20.70
-21.77
-21.51
-20.08
-17.96
-15.66
-13.51
-11.58
-9.79
-8.02
-6.34
-4.95
-4.09
-3.91
-4.33
-5.10
-5.86
-6.37
-6.58
-6.68
-6.94
-7.62
-8.80
-10.33
-11.89
-13.13
-13.82
-13.93
-13.62
-13.10
-12.54
-11.90
-11.03
-9.72
-7.85
-5.48
-2.82
-0.16
2.26
4.35
6.21
8.03
9.98
12.12
14.37
16.54
18.44
19.95
21.08
21.89
22.47
22.81
22.83
22.40
21.45
20.01
18.27
16.47
14.80
13.31
11.95
10.57
9.08
7.53
6.08
4.92
4.15
3.70
3.32
2.71
1.74
0.45
-0.85
-1.82
-2.17
-1.84
-0.96
0.16
1.28
2.22
2.95
3.53
4.02
4.37
4.46
4.16
3.43
2.37
1.21
0.20
-0.51
-1.01
-1.52
-2.29
-3.46
-4.96
-6.55
-7.96
-9.00
-9.69
-10.13
-10.46
-10.72
-10.85
-10.74
-10.32
-9.62
-8.79
-7.98
-7.36
-6.99
-6.87
-6.95
-7.13
-7.33
-7.44
-7.39
-7.15
-6.74
-6.20
-5.56
-4.83
-3.95
-2.88
-1.62
-0.27
1.08
2.33
3.47
4.53
5.57
6.56
7.41
8.01
8.29
8.26
8.01
7.67
7.32
7.00
6.66
6.31
5.92
5.55
5.24
5.00
4.84
4.69
4.47
4.08
3.44
2.53
1.46
0.41
-0.42
-0.92
-1.14
-1.28
-1.60
-2.30
-3.41
-4.83
-6.34
-7.73
-8.90
-9.80
-10.42
-10.75
-10.76
-10.38
-9.59
-8.41
-6.96
-5.40
-3.89
-2.54
-1.41
-0.46
0.37
1.13
1.81
2.39
2.82
3.09
3.25
3.42
3.67
4.01
4.38
4.61
4.63
4.41
4.05
3.69
3.47
3.41
3.43
3.36
3.08
2.55
1.85
1.20
0.76
0.57
0.50
0.29
-0.29
-1.32
-2.67
-4.05
-5.14
-5.77
-5.97
-5.87
-5.60
-5.19
-4.55
-3.61
-2.40
-1.08
0.11
0.95
1.39
1.51
1.53
1.66
1.97
2.43
2.89
3.17
3.22
3.04
2.74
2.42
2.18
2.03
1.91
1.76
1.56
1.33
1.13
1.01
0.97
0.97
0.90
0.66
0.22
-0.40
-1.09
-1.73
-2.23
-2.59
-2.91
-3.29
-3.78
-4.35
-4.90
-5.27
-5.35
-5.09
-4.50
-3.68
-2.72
-1.68
-0.58
0.61
1.95
3.50
5.18
6.84
8.26
9.22
9.62
9.52
9.11
8.61
8.17
7.84
7.60
7.40
7.27
7.26
7.39
7.62
7.80
7.74
7.34
6.64
5.80
5.09
4.70
4.67
4.86
4.98
4.77
4.08
2.99
1.73
0.58
-0.33
-1.07
-1.86
-2.90
-4.24
-5.66
-6.80
-7.33
-7.13
-6.33
-5.19
-3.99
-2.85
-1.72
-0.52
0.81
2.23
3.57
4.67
5.40
5.75
5.78
5.60
5.35
5.13
4.95
4.82
4.66
4.42
4.11
3.74
3.39
3.09
2.85
2.65
2.42
2.06
1.56
0.93
0.24
-0.40
-0.90
-1.27
-1.55
-1.86
-2.30
-2.94
-3.79
-4.81
-5.94
-7.11
-8.22
-9.14
-9.69
-9.77
-9.32
-8.43
-7.23
-5.85
-4.31
-2.57
-0.51
1.86
4.45
7.02
9.25
10.81
11.42
10.91
9.26
6.66
3.49
0.24
-2.63
-4.78
-6.11
-6.71
-6.78
-6.50
-5.97
-5.23
-4.39
-3.63
-3.17
-3.15
-3.54
-4.14
-4.65
-4.86
-4.76
-4.49
-4.31
-4.38
-4.74
-5.32
-6.01
-6.77
-7.65
-8.68
-9.82
-10.86
-11.48
-11.38
-10.34
-8.38
-5.68
-2.58
0.48
2.97
4.32
4.06
2.04
-1.44
-5.60
-9.43
-12.07
-13.12
-12.82
-11.84
-10.90
-10.47
-10.60
-11.02
-11.37
-11.41
-11.05
-10.28
-9.08
-7.37
-5.06
-2.14
1.26
4.87
8.35
11.38
13.74
15.35
16.23
16.50
16.32
15.87
15.27
14.55
13.66
12.50
11.00
9.15
7.14
5.25
3.78
2.96
2.77
3.02
3.44
3.80
4.08
4.43
5.04
5.99
7.15
8.19
8.75
8.62
7.88
6.80
5.78
5.07
4.77
4.78
4.94
5.11
5.26
5.42
5.65
5.95
6.27
6.54
6.66
6.60
6.37
6.03
5.67
5.42
5.34
5.47
5.73
5.99
6.11
5.99
5.63
5.05
4.31
3.46
2.53
1.58
0.74
0.18
0.10
0.56
1.44
2.44
3.14
3.16
2.26
0.29
-2.76
-6.83
-11.63
-16.67
-21.26
-24.61
-26.18
-25.78
-23.71
-20.57
-16.99
-13.38
-9.85
-6.33
-2.81
0.56
3.50
5.71
7.13
7.93
8.45
8.94
9.47
9.93
10.08
9.80
9.13
8.28
7.51
6.94
6.52
6.08
5.44
4.55
3.50
2.35
1.01
-0.84
-3.55
-7.25
-11.58
-15.75
-18.84
-20.21
-19.90
-18.64
-17.50
-17.44
-18.90
-21.71
-25.20
-28.56
-31.12
-32.46
-32.48
-31.34
-29.31
-26.69
-23.75
-20.62
-17.43
-14.28
-11.32
-8.68
-6.44
-4.54
-2.74
-0.78
1.51
4.07
6.66
8.92
10.56
11.50
11.88
11.95
11.92
11.85
11.59
10.92
9.69
7.92
5.81
3.68
1.82
0.40
-0.52
-1.01
-1.15
-1.01
-0.61
0.02
0.83
1.77
2.84
4.02
5.33
6.76
8.26
9.67
10.84
11.60
11.86
11.63
11.02
10.22
9.39
8.70
8.23
7.96
7.82
7.64
7.29
6.65
5.73
4.60
3.37
2.15
0.99
-0.12
-1.20
-2.25
-3.23
-4.08
-4.77
-5.34
-5.89
-6.55
-7.41
-8.45
-9.52
-10.35
-10.69
-10.33
-9.28
-7.72
-5.91
-4.01
-2.08
-0.00
2.33
4.87
7.37
9.43
10.72
11.15
10.96
10.60
10.46
10.71
11.21
11.62
11.66
11.23
10.50
9.73
9.17
8.90
8.80
8.68
8.36
7.77
6.96
6.03
5.07
4.11
3.17
2.18
1.12
-0.07
-1.41
-2.90
-4.52
-6.18
-7.80
-9.32
-10.66
-11.73
-12.41
-12.52
-11.93
-10.57
-8.55
-6.06
-3.33
-0.53
2.24
4.89
7.23
9.03
10.00
10.01
9.22
7.99
6.77
5.92
5.50
5.30
4.97
4.23
3.06
1.67
0.41
-0.43
-0.75
-0.69
-0.55
-0.62
-1.08
-1.89
-2.85
-3.69
-4.25
-4.52
-4.67
-4.95
-5.59
-6.68
-8.18
-9.96
-11.84
-13.61
-15.15
-16.34
-17.08
-17.26
-16.79
-15.63
-13.80
-11.44
-8.78
-6.09
-3.60
-1.44
0.42
2.07
3.69
5.37
7.06
8.59
9.73
10.35
10.48
10.31
10.12
10.10
10.32
10.67
10.97
11.10
11.02
10.78
10.48
10.17
9.82
9.37
8.77
7.97
7.00
5.89
4.73
3.56
2.42
1.27
0.03
-1.43
-3.15
-5.06
-6.96
-8.57
-9.64
-10.07
-9.86
-9.16
-8.09
-6.74
-5.13
-3.26
-1.20
0.93
2.94
4.68
6.08
7.18
8.11
8.98
9.81
10.54
11.03
11.14
10.87
10.35
9.79
9.37
9.19
9.15
9.10
8.91
8.49
7.92
7.27
6.61
5.95
5.20
4.28
3.19
2.01
0.86
-0.16
-1.06
-1.92
-2.91
-4.14
-5.61
-7.22
-8.74
-9.93
-10.60
-10.67
-10.21
-9.33
-8.16
-6.74
-5.05
-3.07
-0.88
1.33
3.28
4.73
5.64
6.17
6.58
7.07
7.70
8.30
8.62
8.53
8.06
7.42
6.85
6.50
6.37
6.36
6.32
6.16
5.89
5.53
5.10
4.61
4.02
3.34
2.58
1.77
0.95
0.12
-0.75
-1.69
-2.71
-3.82
-5.01
-6.28
-7.65
-9.06
-10.39
-11.44
-11.97
-11.82
-10.96
-9.53
-7.75
-5.83
-3.85
-1.81
0.35
2.55
4.64
6.31
7.33
7.65
7.39
6.90
6.51
6.44
6.68
7.06
7.37
7.42
7.20
6.78
6.30
5.80
5.30
4.72
4.01
3.14
2.14
1.09
0.08
-0.86
-1.70
-2.52
-3.41
-4.49
-5.83
-7.46
-9.32
-11.30
-13.27
-15.10
-16.71
-18.01
-18.94
-19.43
-19.40
-18.82
-17.78
-16.39
-14.82
-13.20
-11.58
-9.94
-8.30
-6.75
-5.49
-4.70
-4.45
-4.61
-4.81
-4.63
-3.72
-2.00
0.35
2.96
5.45
7.60
9.40
11.05
12.72
14.50
16.24
17.70
18.58
18.77
18.35
17.57
16.67
15.74
14.69
13.25
11.25
8.69
5.86
3.21
1.16
-0.11
-0.76
-1.17
-1.76
-2.79
-4.16
-5.57
-6.61
-7.02
-6.78
-6.11
-5.29
-4.51
-3.77
-2.94
-1.88
-0.56
0.86
2.12
3.00
3.41
3.47
3.36
3.30
3.38
3.54
3.63
3.55
3.25
2.82
2.43
2.25
2.35
2.68
3.09
3.38
3.39
3.09
2.58
2.02
1.57
1.29
1.09
0.85
0.43
-0.19
-0.98
-1.87
-2.84
-3.94
-5.21
-6.60
-7.97
-9.07
-9.67
-9.66
-9.06
-8.01
-6.69
-5.26
-3.81
-2.38
-0.98
0.42
1.84
3.27
4.64
5.82
6.63
7.02
7.02
6.86
6.75
6.81
7.01
7.19
7.18
6.91
6.45
5.95
5.53
5.23
4.92
4.47
3.73
2.72
1.54
0.36
-0.66
-1.47
-2.12
-2.77
-3.55
-4.54
-5.70
-6.88
-7.97
-8.91
-9.78
-10.68
-11.65
-12.57
-13.18
-13.21
-12.52
-11.18
-9.47
-7.72
-6.15
-4.74
-3.30
-1.66
0.22
2.13
3.76
4.82
5.18
4.98
4.45
3.84
3.28
2.78
2.29
1.80
1.41
1.24
1.40
1.87
2.52
3.13
3.45
3.33
2.75
1.80
0.66
-0.51
-1.61
-2.64
-3.63
-4.58
-5.45
-6.16
-6.60
-6.73
-6.61
-6.40
-6.28
-6.37
-6.63
-6.89
-6.89
-6.40
-5.33
-3.79
-2.00
-0.17
1.54
3.11
4.62
6.11
7.55
8.81
9.70
10.06
9.84
9.13
8.10
6.95
5.84
4.84
3.96
3.20
2.55
2.09
1.87
1.90
2.09
2.21
2.04
1.40
0.28
-1.20
-2.77
-4.22
-5.42
-6.39
-7.22
-8.00
-8.75
-9.45
-10.02
-10.47
-10.81
-11.10
-11.38
-11.63
-11.80
-11.76
-11.41
-10.67
-9.52
-8.02
-6.31
-4.51
-2.76
-1.08
0.53
2.14
3.81
5.51
7.16
8.62
9.75
10.52
11.01
11.41
11.92
12.67
13.66
14.70
15.60
16.19
16.44
16.43
16.25
15.83
14.98
13.42
11.08
8.11
4.93
2.08
-0.07
-1.46
-2.29
-2.94
-3.71
-4.71
-5.84
-6.93
-7.84
-8.54
-9.09
-9.57
-10.00
-10.31
-10.36
-10.04
-9.28
-8.14
-6.75
-5.28
-3.86
-2.53
-1.24
0.10
1.53
3.02
4.45
5.67
6.59
7.23
7.69
8.11
8.54
8.97
9.23
9.16
8.59
7.44
5.69
3.31
0.29
-3.36
-7.52
-11.87
-15.93
-19.09
-20.78
-20.61
-18.50
-14.70
-9.74
-4.36
0.66
4.66
7.24
8.39
8.40
7.77
7.00
6.37
5.98
5.81
5.84
6.11
6.69
7.51
8.32
8.79
8.58
7.61
6.02
4.15
2.32
0.66
-0.91
-2.65
-4.79
-7.35
-10.13
-12.75
-14.90
-16.41
-17.35
-17.93
-18.34
-18.62
-18.69
-18.40
-17.65
-16.50
-15.16
-13.86
-12.74
-11.81
-10.95
-10.02
-8.92
-7.68
-6.39
-5.22
-4.30
-3.69
-3.41
-3.45
-3.70
-4.06
-4.36
-4.44
-4.15
-3.42
-2.21
-0.52
1.56
3.89
6.29
8.59
10.65
12.43
14.02
15.51
16.97
18.36
19.49
20.15
20.15
19.43
18.11
16.40
14.54
12.70
10.95
9.26
7.58
5.84
4.07
2.32
0.70
-0.72
-1.96
-3.05
-4.05
-4.93
-5.63
-6.06
-6.18
-6.08
-5.96
-6.07
-6.59
-7.59
-8.95
-10.41
-11.72
-12.70
-13.31
-13.62
-13.72
-13.63
-13.30
-12.60
-11.41
-9.65
-7.43
-4.95
-2.50
-0.31
1.51
2.97
4.22
5.38
6.54
7.66
8.63
9.36
9.80
10.03
10.17
10.35
10.61
10.93
11.19
11.28
11.13
10.74
10.22
9.70
9.25
8.86
8.43
7.82
6.94
5.81
4.55
3.29
2.05
0.78
-0.62
-2.19
-3.83
-5.36
-6.62
-7.56
-8.31
-9.03
-9.79
-10.49
-10.89
-10.67
-9.66
-7.87
-5.51
-2.89
-0.31
1.98
3.89
5.37
6.45
7.15
7.49
7.52
7.31
6.98
6.66
6.49
6.56
6.83
7.17
7.36
7.25
6.80
6.10
5.33
4.66
4.14
3.72
3.24
2.54
1.58
0.43
-0.75
-1.78
-2.57
-3.22
-3.90
-4.85
-6.16
-7.76
-9.41
-10.77
-11.57
-11.68
-11.19
-10.25
-9.06
-7.71
-6.20
-4.48
-2.52
-0.38
1.80
3.84
5.58
6.93
7.92
8.57
8.94
9.04
8.85
8.35
7.54
6.48
5.28
4.09
3.02
2.10
1.23
0.28
-0.86
-2.16
-3.46
-4.53
-5.16
-5.35
-5.22
-4.93
-4.60
-4.20
-3.63
-2.84
-1.96
-1.27
-1.14
-1.84
-3.40
-5.62
-8.10
-10.43
-12.27
-13.47
-14.07
-14.20
-13.98
-13.51
-12.74
-11.56
-9.88
-7.76
-5.40
-3.13
-1.30
-0.04
0.69
1.10
1.46
1.86
2.22
2.34
2.03
1.26
0.18
-0.98
-2.06
-3.06
-4.07
-5.19
-6.28
-6.98
-6.80
-5.33
-2.47
1.56
6.33
11.41
16.51
21.44
26.05
30.06
33.07
34.67
34.63
32.99
30.13
26.53
22.70
18.97
15.54
12.48
9.81
7.51
5.56
3.86
2.33
0.87
-0.58
-2.10
-3.76
-5.59
-7.64
-9.83
-12.03
-14.00
-15.50
-16.35
-16.54
-16.21
-15.61
-14.93
-14.21
-13.35
-12.18
-10.62
-8.77
-6.90
-5.34
-4.25
-3.61
-3.18
-2.72
-2.05
-1.23
-0.41
0.21
0.56
0.65
0.56
0.35
0.02
-0.44
-1.03
-1.60
-1.98
-1.96
-1.41
-0.33
1.17
2.86
4.54
6.03
7.28
8.34
9.31
10.26
11.10
11.71
11.91
11.66
11.06
10.34
9.74
9.35
9.13
8.88
8.40
7.55
6.36
4.99
3.65
2.50
1.63
1.04
0.63
0.26
-0.17
-0.73
-1.44
-2.27
-3.19
-4.19
-5.26
-6.40
-7.60
-8.87
-10.17
-11.50
-12.78
-13.93
-14.82
-15.33
-15.35
-14.81
-13.71
-12.10
-10.07
-7.72
-5.22
-2.75
-0.47
1.45
2.97
4.13
5.01
5.73
6.33
6.79
7.06
7.11
6.94
6.62
6.21
5.70
5.01
4.08
2.87
1.49
0.17
-0.86
-1.46
-1.64
-1.62
-1.65
-1.89
-2.35
-2.89
-3.30
-3.44
-3.34
-3.14
-3.07
-3.26
-3.72
-4.34
-4.94
-5.37
-5.58
-5.56
-5.36
-5.00
-4.44
-3.60
-2.45
-0.99
0.65
2.28
3.71
4.80
5.55
6.04
6.43
6.82
7.20
7.43
7.33
6.78
5.85
4.76
3.77
3.06
2.65
2.39
2.11
1.66
1.06
0.37
-0.27
-0.78
-1.11
-1.27
-1.28
-1.17
-1.00
-0.86
-0.80
-0.88
-1.13
-1.55
-2.13
-2.84
-3.63
-4.41
-5.09
-5.57
-5.83
-5.89
-5.80
-5.56
-5.09
-4.28
-2.98
-1.17
0.96
3.12
4.93
6.16
6.75
6.90
6.89
6.92
7.05
7.19
7.18
6.94
6.49
5.97
5.48
5.05
4.61
4.01
3.14
2.04
0.84
-0.21
-0.94
-1.30
-1.38
-1.41
-1.56
-1.97
-2.59
-3.33
-4.08
-4.79
-5.46
-6.14
-6.83
-7.47
-7.96
-8.17
-8.06
-7.63
-6.90
-5.93
-4.75
-3.38
-1.87
-0.28
1.29
2.78
4.12
5.25
6.08
6.55
6.64
6.36
5.83
5.15
4.44
3.68
2.83
1.82
0.62
-0.70
-2.01
-3.18
-4.11
-4.81
-5.30
-5.63
-5.82
-5.82
-5.63
-5.21
-4.59
-3.85
-3.09
-2.43
-2.00
-1.90
-2.20
-2.91
-3.95
-5.21
-6.52
-7.69
-8.56
-9.01
-8.96
-8.41
-7.43
-6.11
-4.60
-2.97
-1.27
0.53
2.44
4.42
6.33
7.97
9.15
9.77
9.87
9.58
9.10
8.57
8.05
7.47
6.76
5.87
4.80
3.66
2.53
1.51
0.65
-0.06
-0.63
-1.14
-1.64
-2.11
-2.55
-2.90
-3.12
-3.25
-3.36
-3.60
-4.07
-4.82
-5.75
-6.72
-7.55
-8.16
-8.52
-8.71
-8.78
-8.74
-8.52
-8.01
-7.12
-5.85
-4.26
-2.47
-0.63
1.13
2.75
4.21
5.50
6.60
7.46
8.04
8.31
8.31
8.16
7.95
7.74
7.47
7.03
6.31
5.31
4.18
3.14
2.40
2.03
1.95
1.97
1.88
1.54
0.95
0.13
-0.85
-1.91
-3.03
-4.15
-5.21
-6.19
-7.09
-7.93
-8.76
-9.55
-10.24
-10.73
-10.89
-10.64
-9.91
-8.70
-7.02
-4.93
-2.58
-0.17
2.09
4.01
5.53
6.69
7.61
8.41
9.14
9.75
10.14
10.19
9.86
9.24
8.50
7.87
7.47
7.27
7.10
6.72
6.00
4.93
3.68
2.45
1.40
0.54
-0.26
-1.14
-2.18
-3.32
-4.38
-5.18
-5.66
-5.86
-5.97
-6.16
-6.55
-7.16
-7.89
-8.59
-9.13
-9.43
-9.47
-9.26
-8.75
-7.91
-6.70
-5.13
-3.27
-1.24
0.84
2.85
4.73
6.45
7.99
9.33
10.43
11.19
11.54
11.39
10.76
9.73
8.47
7.17
5.97
4.92
4.00
3.11
2.20
1.27
0.38
-0.39
-1.00
-1.49
-1.94
-2.47
-3.11
-3.78
-4.34
-4.65
-4.65
-4.47
-4.32
-4.46
-5.02
-5.97
-7.08
-8.12
-8.92
-9.44
-9.76
-9.97
-10.01
-9.68
-8.73
-6.94
-4.36
-1.27
1.84
4.47
6.36
7.46
7.99
8.22
8.37
8.46
8.34
7.86
6.88
5.45
3.71
1.90
0.23
-1.18
-2.33
-3.29
-4.18
-5.06
-5.88
-6.49
-6.72
-6.48
-5.84
-4.99
-4.18
-3.58
-3.20
-2.94
-2.64
-2.26
-1.88
-1.68
-1.78
-2.22
-2.83
-3.35
-3.55
-3.31
-2.66
-1.71
-0.57
0.74
2.26
4.04
6.05
8.16
10.13
11.72
12.77
13.22
13.13
12.64
11.88
10.97
9.99
9.02
8.10
7.31
6.69
6.31
6.15
6.15
6.15
5.98
5.49
4.64
3.49
2.19
0.92
-0.24
-1.28
-2.28
-3.34
-4.48
-5.66
-6.75
-7.70
-8.47
-9.11
-9.74
-10.39
-11.04
-11.53
-11.65
-11.15
-9.94
-8.07
-5.76
-3.33
-1.05
0.95
2.70
4.29
5.82
7.28
8.54
9.46
9.96
10.07
9.90
9.62
9.31
8.96
8.54
7.95
7.15
6.10
4.82
3.43
2.04
0.79
-0.25
-1.09
-1.82
-2.56
-3.34
-4.12
-4.82
-5.35
-5.68
-5.87
-6.05
-6.34
-6.83
-7.56
-8.49
-9.48
-10.36
-10.89
-10.88
-10.25
-9.09
-7.58
-5.93
-4.30
-2.68
-1.00
0.86
2.90
4.99
6.87
8.30
9.09
9.22
8.82
8.13
7.37
6.71
6.17
5.70
5.12
4.30
3.13
1.66
0.00
-1.66
-3.15
-4.34
-5.19
-5.70
-5.92
-5.92
-5.79
-5.65
-5.54
-5.49
-5.43
-5.30
-5.06
-4.74
-4.48
-4.41
-4.59
-5.00
-5.53
-6.06
-6.53
-6.88
-7.07
-7.00
-6.48
-5.31
-3.44
-0.94
1.91
4.76
7.28
9.31
10.79
11.78
12.34
12.54
12.46
12.17
11.80
11.41
11.02
10.52
9.79
8.77
7.51
6.19
5.01
4.07
3.35
2.66
1.79
0.64
-0.70
-2.05
-3.17
-3.98
-4.55
-5.07
-5.76
-6.71
-7.86
-9.03
-10.01
-10.62
-10.85
-10.77
-10.50
-10.16
-9.74
-9.11
-8.12
-6.64
-4.62
-2.21
0.39
2.96
5.37
7.56
9.56
11.40
13.01
14.30
15.14
15.50
15.42
15.05
14.51
13.87
13.11
12.14
10.88
9.28
7.40
5.37
3.32
1.43
-0.23
-1.57
-2.56
-3.20
-3.57
-3.81
-4.06
-4.42
-4.90
-5.45
-5.95
-6.34
-6.63
-6.87
-7.12
-7.41
-7.68
-7.85
-7.85
-7.64
-7.21
-6.52
-5.52
-4.14
-2.38
-0.32
1.90
4.13
6.23
8.09
9.66
10.84
11.56
11.76
11.43
10.66
9.60
8.42
7.24
6.09
4.92
3.62
2.10
0.33
-1.58
-3.46
-5.04
-6.15
-6.68
-6.71
-6.41
-5.97
-5.47
-4.91
-4.20
-3.33
-2.42
-1.77
-1.67
-2.35
-3.78
-5.68
-7.63
-9.20
-10.05
-10.08
-9.34
-8.00
-6.31
-4.44
-2.51
-0.54
1.50
3.68
5.97
8.29
10.47
12.41
14.05
15.42
16.63
17.69
18.58
19.18
19.35
18.99
18.09
16.76
15.13
13.34
11.45
9.43
7.17
4.61
1.78
-1.16
-4.04
-6.66
-8.95
-10.92
-12.60
-13.99
-15.04
-15.71
-16.01
-16.07
-16.07
-16.16
-16.40
-16.70
-16.90
-16.81
-16.33
-15.43
-14.17
-12.64
-10.88
-8.93
-6.78
-4.46
-2.04
0.33
2.49
4.28
5.63
6.55
7.15
7.56
7.88
8.19
8.47
8.65
8.68
8.50
8.14
7.70
7.32
7.06
6.88
6.63
6.08
5.07
3.63
1.98
0.44
-0.74
-1.51
-2.05
-2.62
-3.46
-4.62
-5.96
-7.27
-8.38
-9.24
-9.95
-10.60
-11.20
-11.57
-11.51
-10.79
-9.37
-7.34
-4.96
-2.50
-0.18
1.89
3.71
5.31
6.74
7.96
8.90
9.43
9.46
9.01
8.17
7.13
6.08
5.16
4.37
3.66
2.90
2.05
1.15
0.26
-0.54
-1.22
-1.82
-2.38
-2.88
-3.31
-3.60
-3.76
-3.84
-3.95
-4.16
-4.48
-4.88
-5.32
-5.78
-6.27
-6.78
-7.28
-7.68
-7.83
-7.64
-7.05
-6.10
-4.90
-3.60
-2.34
-1.20
-0.17
0.78
1.73
2.70
3.68
4.61
5.35
5.80
5.90
5.68
5.22
4.64
4.05
3.49
2.92
2.24
1.32
0.09
-1.40
-2.93
-4.24
-5.05
-5.25
-4.93
-4.34
-3.76
-3.40
-3.28
-3.31
-3.34
-3.34
-3.40
-3.67
-4.24
-5.07
-5.99
-6.79
-7.32
-7.53
-7.49
-7.26
-6.86
-6.23
-5.29
-4.02
-2.43
-0.64
1.21
2.99
4.63
6.08
7.30
8.27
8.97
9.37
9.50
9.42
9.19
8.88
8.53
8.12
7.66
7.14
6.58
6.00
5.40
4.77
4.07
3.28
2.44
1.63
0.92
0.34
-0.17
-0.67
-1.21
-1.77
-2.29
-2.74
-3.14
-3.60
-4.21
-4.98
-5.78
-6.38
-6.58
-6.27
-5.49
-4.38
-3.10
-1.73
-0.25
1.43
3.35
5.48
7.64
9.60
11.19
12.31
13.00
13.40
13.62
13.72
13.65
13.32
12.65
11.66
10.45
9.18
8.02
7.03
6.18
5.33
4.35
3.12
1.63
0.02
-1.54
-2.87
-3.89
-4.62
-5.17
-5.67
-6.22
-6.85
-7.52
-8.22
-8.95
-9.74
-10.62
-11.54
-12.37
-12.91
-12.94
-12.36
-11.19
-9.56
-7.67
-5.69
-3.71
-1.71
0.33
2.38
4.35
6.08
7.41
8.22
8.54
8.43
8.02
7.41
6.64
5.72
4.62
3.40
2.13
0.95
-0.02
-0.72
-1.20
-1.61
-2.12
-2.80
-3.61
-4.39
-4.90
-4.99
-4.70
-4.22
-3.79
-3.64
-3.78
-4.07
-4.32
-4.40
-4.42
-4.59
-5.14
-6.10
-7.23
-8.14
-8.39
-7.78
-6.37
-4.45
-2.35
-0.29
1.64
3.48
5.25
6.90
8.25
9.09
9.28
8.83
7.91
6.79
5.70
4.79
4.07
3.40
2.62
1.62
0.39
-0.96
-2.23
-3.23
-3.86
-4.08
-3.97
-3.64
-3.20
-2.76
-2.35
-1.99
-1.69
-1.52
-1.54
-1.81
-2.32
-3.03
-3.84
-4.66
-5.40
-6.03
-6.49
-6.69
-6.55
-5.98
-4.92
-3.41
-1.54
0.54
2.65
4.63
6.37
7.81
8.93
9.75
10.29
10.53
10.42
9.96
9.24
8.42
7.67
7.09
6.61
6.05
5.24
4.12
2.81
1.58
0.68
0.19
0.02
-0.11
-0.43
-1.05
-1.86
-2.64
-3.11
-3.15
-2.89
-2.63
-2.71
-3.32
-4.39
-5.62
-6.60
-7.06
-6.93
-6.36
-5.62
-4.90
-4.24
-3.50
-2.52
-1.17
0.56
2.53
4.56
6.45
8.04
9.25
10.03
10.39
10.34
9.90
9.14
8.12
6.95
5.75
4.61
3.55
2.55
1.59
0.65
-0.26
-1.07
-1.75
-2.28
-2.69
-3.01
-3.29
-3.55
-3.79
-3.99
-4.11
-4.12
-4.02
-3.83
-3.67
-3.66
-3.94
-4.55
-5.47
-6.59
-7.74
-8.72
-9.35
-9.48
-9.03
-8.03
-6.59
-4.84
-2.95
-1.00
0.94
2.85
4.69
6.35
7.69
8.56
8.90
8.71
8.09
7.21
6.20
5.17
4.13
3.08
1.98
0.82
-0.35
-1.45
-2.39
-3.09
-3.53
-3.70
-3.61
-3.31
-2.90
-2.51
-2.28
-2.34
-2.74
-3.41
-4.19
-4.87
-5.33
-5.55
-5.67
-5.89
-6.35
-7.08
-7.93
-8.66
-9.01
-8.84
-8.11
-6.93
-5.42
-3.69
-1.76
0.31
2.47
4.56
6.39
7.75
8.50
8.66
8.36
7.82
7.17
6.47
5.66
4.66
3.45
2.11
0.79
-0.37
-1.30
-2.01
-2.53
-2.87
-3.01
-2.92
-2.63
-2.23
-1.86
-1.68
-1.73
-1.96
-2.20
-2.29
-2.15
-1.83
-1.51
-1.41
-1.67
-2.33
-3.25
-4.23
-5.03
-5.49
-5.54
-5.18
-4.43
-3.33
-1.90
-0.18
1.79
3.93
6.09
8.07
9.68
10.77
11.34
11.52
11.52
11.52
11.54
11.47
11.11
10.36
9.23
7.88
6.46
5.13
3.95
2.92
2.07
1.40
0.93
0.60
0.30
-0.09
-0.65
-1.36
-2.13
-2.85
-3.43
-3.90
-4.35
-4.85
-5.44
-6.10
-6.75
-7.36
-7.95
-8.55
-9.17
-9.71
-10.00
-9.85
-9.15
-7.90
-6.26
-4.38
-2.38
-0.28
1.89
4.06
6.05
7.66
8.74
9.31
9.51
9.52
9.44
9.19
8.65
7.70
6.38
4.86
3.37
2.10
1.09
0.26
-0.50
-1.23
-1.94
-2.54
-2.98
-3.25
-3.35
-3.36
-3.35
-3.34
-3.38
-3.46
-3.56
-3.63
-3.69
-3.79
-4.08
-4.73
-5.76
-7.02
-8.18
-8.88
-8.86
-8.10
-6.82
-5.30
-3.75
-2.22
-0.59
1.24
3.28
5.34
7.15
8.45
9.13
9.24
8.96
8.44
7.82
7.06
6.11
4.89
3.42
1.79
0.15
-1.32
-2.53
-3.44
-4.07
-4.45
-4.61
-4.56
-4.33
-3.97
-3.62
-3.45
-3.56
-3.95
-4.47
-4.91
-5.08
-4.92
-4.53
-4.14
-4.03
-4.36
-5.15
-6.25
-7.39
-8.32
-8.82
-8.79
-8.26
-7.27
-5.87
-4.09
-1.93
0.56
3.26
5.89
8.15
9.76
10.64
10.92
10.85
10.74
10.74
10.81
10.77
10.42
9.70
8.66
7.52
6.47
5.65
5.02
4.46
3.78
2.91
1.86
0.78
-0.20
-1.02
-1.73
-2.50
-3.47
-4.72
-6.14
-7.57
-8.80
-9.78
-10.53
-11.21
-11.96
-12.80
-13.58
-14.04
-13.96
-13.19
-11.82
-10.05
-8.13
-6.22
-4.33
-2.37
-0.22
2.12
4.53
6.75
8.58
9.90
10.73
11.18
11.34
11.24
10.89
10.27
9.46
8.56
7.70
6.96
6.38
5.90
5.44
4.88
4.17
3.27
2.20
1.03
-0.18
-1.35
-2.43
-3.36
-4.10
-4.62
-4.94
-5.14
-5.34
-5.69
-6.31
-7.20
-8.27
-9.33
-10.09
-10.34
-9.94
-8.93
-7.51
-5.97
-4.53
-3.28
-2.11
-0.78
0.93
3.04
5.34
7.47
9.07
10.00
10.37
10.43
10.42
10.36
10.07
9.31
7.94
6.08
4.05
2.19
0.74
-0.32
-1.16
-2.01
-2.96
-3.94
-4.74
-5.16
-5.15
-4.79
-4.27
-3.78
-3.44
-3.28
-3.27
-3.40
-3.67
-4.13
-4.81
-5.73
-6.80
-7.89
-8.80
-9.34
-9.37
-8.82
-7.75
-6.27
-4.56
-2.76
-0.91
1.00
3.05
5.22
7.36
9.23
10.60
11.31
11.40
11.02
10.42
9.78
9.20
8.67
8.16
7.64
7.11
6.54
5.88
5.06
4.09
3.08
2.24
1.82
1.93
2.54
3.43
4.32
4.98
5.34
5.49
5.64
5.99
6.72
7.92
9.62
11.79
14.25
16.78
19.06
20.92
22.30
23.37
24.27
25.04
25.43
25.03
23.53
20.93
17.63
14.39
11.94
10.74
10.81
11.72
12.72
12.97
11.74
8.53
3.20
-3.95
-12.29
-20.97
-29.15
-36.17
-41.62
-45.33
-47.28
-47.55
-46.30
-43.79
-40.36
-36.42
-32.33
-28.38
-24.77
-21.63
-19.03
-17.01
-15.59
-14.70
-14.26
-14.13
-14.19
-14.31
-14.38
-14.29
-13.90
-13.13
-11.97
-10.56
-9.05
-7.62
-6.35
-5.19
-4.02
-2.71
-1.23
0.39
2.03
3.53
4.76
5.69
6.39
7.00
7.71
8.64
9.78
10.98
12.05
12.80
13.18
13.23
13.07
12.78
12.37
11.80
11.01
10.00
8.88
7.76
6.73
5.83
5.01
4.20
3.33
2.39
1.37
0.26
-0.94
-2.23
-3.53
-4.73
-5.68
-6.25
-6.37
-6.04
-5.30
-4.19
-2.78
-1.13
0.70
2.55
4.32
5.91
7.31
8.57
9.68
10.57
11.09
11.09
10.50
9.43
8.08
6.70
5.48
4.47
3.65
2.93
2.22
1.50
0.75
-0.03
-0.79
-1.50
-2.12
-2.64
-3.06
-3.41
-3.75
-4.09
-4.46
-4.89
-5.44
-6.15
-6.99
-7.89
-8.73
-9.39
-9.84
-10.13
-10.31
-10.43
-10.40
-10.07
-9.31
-8.08
-6.46
-4.57
-2.53
-0.40
1.80
4.05
6.29
8.39
10.17
11.45
12.08
11.96
11.14
9.80
8.21
6.72
5.56
4.77
4.23
3.69
2.95
1.95
0.79
-0.35
-1.31
-2.01
-2.42
-2.60
-2.60
-2.48
-2.31
-2.16
-2.14
-2.32
-2.74
-3.39
-4.24
-5.21
-6.16
-6.96
-7.44
-7.48
-7.01
-6.07
-4.75
-3.17
-1.44
0.34
2.13
3.90
5.64
7.34
8.98
10.47
11.67
12.46
12.76
12.57
12.03
11.32
10.66
10.14
9.75
9.40
8.99
8.48
7.84
7.12
6.35
5.53
4.69
3.83
3.02
2.31
1.73
1.23
0.74
0.15
-0.60
-1.51
-2.51
-3.53
-4.51
-5.44
-6.33
-7.16
-7.85
-8.26
-8.21
-7.60
-6.43
-4.84
-3.02
-1.14
0.72
2.56
4.41
6.19
7.75
8.87
9.42
9.38
8.94
8.35
7.84
7.50
7.27
7.01
6.61
6.09
5.52
5.02
4.63
4.29
3.85
3.19
2.24
1.05
-0.25
-1.51
-2.56
-3.34
-3.87
-4.24
-4.61
-5.11
-5.81
-6.65
-7.55
-8.41
-9.22
-10.00
-10.79
-11.56
-12.14
-12.31
-11.89
-10.82
-9.21
-7.26
-5.17
-3.08
-1.04
0.91
2.75
4.41
5.76
6.76
7.39
7.72
7.82
7.75
7.54
7.14
6.55
5.74
4.78
3.76
2.78
1.92
1.19
0.52
-0.16
-0.95
-1.90
-2.99
-4.12
-5.21
-6.17
-6.95
-7.56
-8.04
-8.43
-8.80
-9.18
-9.59
-9.99
-10.38
-10.72
-11.00
-11.19
-11.22
-11.01
-10.45
-9.45
-8.01
-6.21
-4.22
-2.25
-0.45
1.14
2.59
3.97
5.33
6.62
7.73
8.53
8.97
9.06
8.89
8.55
8.13
7.65
7.10
6.47
5.75
5.03
4.38
3.92
3.67
3.57
3.48
3.23
2.69
1.82
0.74
-0.39
-1.42
-2.29
-3.03
-3.72
-4.43
-5.19
-6.00
-6.83
-7.63
-8.34
-8.89
-9.16
-9.05
-8.48
-7.41
-5.86
-3.95
-1.87
0.16
2.04
3.72
5.30
6.87
8.48
10.04
11.39
12.35
12.86
12.93
12.70
12.27
11.74
11.14
10.52
9.92
9.38
8.93
8.53
8.08
7.50
6.74
5.87
4.97
4.13
3.37
2.66
1.91
1.06
0.10
-0.95
-2.05
-3.22
-4.53
-6.03
-7.69
-9.36
-10.79
-11.76
-12.17
-12.09
-11.65
-10.99
-10.09
-8.87
-7.23
-5.18
-2.88
-0.60
1.47
3.20
4.62
5.77
6.69
7.35
7.73
7.80
7.61
7.25
6.78
6.25
5.69
5.10
4.52
4.00
3.55
3.10
2.58
1.89
0.98
-0.13
-1.38
-2.66
-3.86
-4.89
-5.71
-6.34
-6.87
-7.42
-8.10
-8.99
-10.10
-11.33
-12.52
-13.48
-14.01
-14.03
-13.56
-12.68
-11.48
-9.98
-8.12
-5.83
-3.12
-0.16
2.73
5.21
7.05
8.20
8.81
9.08
9.15
9.03
8.69
8.09
7.30
6.44
5.66
5.02
4.47
3.93
3.28
2.48
1.51
0.42
-0.75
-1.92
-3.02
-4.02
-4.90
-5.72
-6.51
-7.29
-7.98
-8.48
-8.73
-8.79
-8.80
-8.96
-9.34
-9.89
-10.40
-10.60
-10.36
-9.68
-8.68
-7.51
-6.21
-4.71
-2.88
-0.66
1.86
4.43
6.75
8.58
9.81
10.50
10.78
10.78
10.61
10.37
10.10
9.82
9.51
9.09
8.54
7.86
7.16
6.54
6.06
5.66
5.20
4.55
3.64
2.57
1.47
0.47
-0.37
-1.09
-1.75
-2.41
-3.08
-3.75
-4.42
-5.14
-5.97
-6.95
-8.06
-9.17
-10.06
-10.42
-10.05
-8.87
-7.00
-4.73
-2.33
-0.04
2.09
4.08
5.97
7.68
9.05
9.93
10.28
10.26
10.11
10.07
10.22
10.47
10.59
10.38
9.77
8.85
7.85
6.97
6.35
5.94
5.57
5.07
4.30
3.29
2.16
1.12
0.28
-0.35
-0.88
-1.50
-2.33
-3.36
-4.52
-5.68
-6.75
-7.72
-8.60
-9.39
-10.00
-10.32
-10.18
-9.50
-8.28
-6.59
-4.58
-2.40
-0.17
2.00
4.03
5.84
7.39
8.58
9.37
9.73
9.70
9.34
8.77
8.09
7.37
6.67
5.99
5.36
4.78
4.27
3.85
3.50
3.15
2.68
1.95
0.90
-0.47
-2.00
-3.51
-4.80
-5.75
-6.37
-6.81
-7.21
-7.67
-8.21
-8.79
-9.38
-9.98
-10.61
-11.29
-11.92
-12.35
-12.40
-11.91
-10.82
-9.18
-7.15
-4.93
-2.71
-0.59
1.36
3.15
4.79
6.24
7.40
8.15
8.35
7.97
7.10
5.92
4.71
3.66
2.85
2.25
1.69
1.00
0.09
-0.99
-2.11
-3.10
-3.85
-4.37
-4.76
-5.13
-5.49
-5.78
-5.81
-5.50
-4.86
-4.09
-3.48
-3.30
-3.72
-4.68
-6.01
-7.43
-8.65
-9.48
-9.82
-9.66
-9.06
-8.12
-6.95
-5.60
-4.08
-2.41
-0.59
1.31
3.17
4.83
6.20
7.27
8.06
8.63
8.95
8.95
8.59
7.88
7.02
6.29
5.94
6.02
6.34
6.56
6.37
5.68
4.60
3.46
2.49
1.78
1.22
0.56
-0.34
-1.46
-2.63
-3.67
-4.47
-5.16
-5.92
-6.93
-8.13
-9.28
-9.99
-9.96
-9.12
-7.65
-5.87
-4.10
-2.45
-0.83
0.94
3.00
5.31
7.67
9.80
11.52
12.74
13.52
13.93
14.05
13.88
13.40
12.61
11.56
10.38
9.21
8.16
7.34
6.72
6.26
5.84
5.30
4.54
3.51
2.31
1.08
0.00
-0.80
-1.32
-1.65
-1.94
-2.32
-2.87
-3.61
-4.54
-5.69
-7.06
-8.63
-10.26
-11.76
-12.88
-13.45
-13.44
-12.89
-11.91
-10.54
-8.79
-6.63
-4.09
-1.34
1.40
3.84
5.78
7.17
8.06
8.57
8.79
8.78
8.56
8.17
7.63
7.00
6.33
5.64
4.89
4.06
3.11
2.06
0.93
-0.20
-1.24
-2.09
-2.66
-2.90
-2.85
-2.64
-2.49
-2.62
-3.11
-3.96
-4.96
-5.90
-6.61
-7.07
-7.37
-7.72
-8.24
-8.94
-9.66
-10.14
-10.09
-9.31
-7.75
-5.56
-3.07
-0.61
1.50
3.14
4.37
5.33
6.16
6.88
7.36
7.47
7.17
6.59
5.93
5.40
5.02
4.67
4.16
3.36
2.35
1.31
0.44
-0.21
-0.73
-1.28
-1.96
-2.74
-3.44
-3.89
-4.02
-3.94
-3.85
-3.93
-4.25
-4.74
-5.27
-5.75
-6.24
-6.88
-7.77
-8.84
-9.87
-10.49
-10.44
-9.66
-8.32
-6.74
-5.20
-3.79
-2.40
-0.83
1.07
3.29
5.61
7.74
9.41
10.45
10.90
10.90
10.68
10.45
10.28
10.14
9.89
9.43
8.72
7.87
7.03
6.30
5.67
5.02
4.25
3.31
2.27
1.25
0.35
-0.43
-1.08
-1.63
-2.11
-2.55
-3.00
-3.56
-4.28
-5.11
-5.94
-6.61
-7.01
-7.13
-7.01
-6.65
-5.97
-4.87
-3.28
-1.26
1.00
3.27
5.34
7.11
8.54
9.65
10.44
10.89
10.99
10.75
10.26
9.58
8.81
7.98
7.14
6.31
5.49
4.72
4.02
3.40
2.86
2.33
1.75
0.98
-0.03
-1.31
-2.74
-4.15
-5.36
-6.27
-6.89
-7.33
-7.76
-8.32
-9.09
-10.06
-11.24
-12.58
-13.98
-15.29
-16.34
-16.94
-17.02
-16.64
-15.95
-15.09
-14.17
-13.18
-12.12
-10.97
-9.78
-8.65
-7.66
-6.86
-6.30
-6.06
-6.30
-7.13
-8.58
-10.34
-11.76
-11.94
-9.96
-5.24
2.18
11.63
21.95
31.91
40.55
47.36
52.28
55.48
57.13
57.31
56.10
53.67
50.41
46.87
43.55
40.69
38.20
35.67
32.60
28.63
23.70
18.04
12.07
6.26
0.95
-3.69
-7.70
-11.22
-14.37
-17.24
-19.76
-21.85
-23.47
-24.66
-25.59
-26.46
-27.41
-28.47
-29.56
-30.55
-31.31
-31.81
-32.04
-32.05
-31.88
-31.57
-31.16
-30.64
-29.99
-29.09
-27.82
-26.11
-24.00
-21.64
-19.22
-16.90
-14.70
-12.55
-10.32
-7.91
-5.31
-2.62
0.01
2.43
4.50
6.12
7.22
7.85
8.16
8.44
9.01
10.05
11.59
13.45
15.34
17.03
18.45
19.62
20.65
21.58
22.34
22.79
22.78
22.28
21.30
19.92
18.22
16.25
14.02
11.56
8.97
6.36
3.92
1.84
0.25
-0.83
-1.53
-2.04
-2.59
-3.30
-4.21
-5.21
-6.21
-7.13
-7.99
-8.87
-9.85
-10.98
-12.24
-13.58
-14.95
-16.34
-17.73
-19.12
-20.39
-21.32
-21.68
-21.24
-19.93
-17.82
-15.19
-12.34
-9.50
-6.75
-4.02
-1.17
1.85
4.94
7.80
10.10
11.60
12.26
12.27
11.94
11.55
11.26
11.04
10.79
10.36
9.73
8.91
7.97
7.01
6.05
5.13
4.24
3.44
2.75
2.20
1.79
1.48
1.22
0.94
0.59
0.16
-0.36
-0.96
-1.63
-2.33
-3.03
-3.66
-4.19
-4.55
-4.72
-4.65
-4.29
-3.50
-2.13
-0.08
2.59
5.69
8.87
11.79
14.25
16.17
17.63
18.74
19.59
20.20
20.52
20.46
19.84
18.48
16.14
12.63
7.91
2.15
-4.24
-10.72
-16.72
-21.78
-25.63
-28.22
-29.65
-30.13
-29.93
-29.29
-28.44
-27.60
-26.97
-26.75
-27.05
-27.87
-29.05
-30.35
-31.51
-32.32
-32.68
-32.57
-31.95
-30.78
-29.00
-26.56
-23.52
-19.97
-16.11
-12.17
-8.37
-4.83
-1.62
1.28
3.90
6.24
8.20
9.64
10.43
10.56
10.16
9.49
8.89
8.60
8.70
9.10
9.62
10.10
10.45
10.73
11.06
11.54
12.20
12.95
13.61
13.99
14.01
13.67
13.11
12.50
11.93
11.40
10.79
10.00
8.98
7.82
6.66
5.68
4.92
4.37
3.95
3.64
3.54
3.82
4.61
5.90
7.55
9.26
10.80
12.03
12.92
13.52
13.87
13.92
13.61
12.88
11.78
10.44
9.03
7.69
6.52
5.55
4.75
4.09
3.53
3.02
2.54
2.07
1.63
1.27
1.02
0.85
0.68
0.44
0.07
-0.36
-0.75
-1.01
-1.16
-1.32
-1.69
-2.44
-3.59
-4.98
-6.33
-7.37
-7.86
-7.73
-7.03
-5.86
-4.39
-2.74
-1.03
0.69
2.39
4.04
5.61
7.00
8.11
8.83
9.06
8.81
8.18
7.32
6.34
5.30
4.18
2.99
1.78
0.72
-0.02
-0.38
-0.40
-0.29
-0.23
-0.31
-0.47
-0.56
-0.45
-0.11
0.34
0.74
0.95
0.91
0.62
0.10
-0.70
-1.81
-3.27
-5.02
-6.93
-8.74
-10.20
-11.05
-11.14
-10.41
-8.92
-6.85
-4.43
-1.89
0.52
2.65
4.40
5.72
6.58
6.96
6.83
6.25
5.33
4.29
3.32
2.57
2.05
1.63
1.15
0.50
-0.29
-1.02
-1.49
-1.56
-1.32
-0.95
-0.68
-0.61
-0.69
-0.74
-0.59
-0.23
0.22
0.53
0.52
0.15
-0.49
-1.26
-2.09
-2.99
-4.03
-5.19
-6.38
-7.37
-7.97
-8.09
-7.77
-7.17
-6.48
-5.81
-5.13
-4.37
-3.41
-2.18
-0.73
0.83
2.33
3.59
4.46
4.94
5.09
5.14
5.26
5.56
5.99
6.41
6.68
6.72
6.61
6.44
6.25
5.99
5.51
4.73
3.67
2.50
1.44
0.68
0.24
0.04
-0.06
-0.21
-0.46
-0.83
-1.33
-1.96
-2.73
-3.62
-4.55
-5.40
-6.04
-6.35
-6.25
-5.67
-4.58
-3.06
-1.25
0.66
2.48
4.12
5.60
6.97
8.26
9.36
10.11
10.31
9.95
9.17
8.26
7.46
6.87
6.44
5.97
5.30
4.38
3.30
2.23
1.37
0.87
0.75
0.94
1.25
1.47
1.41
1.05
0.47
-0.11
-0.51
-0.64
-0.63
-0.74
-1.22
-2.24
-3.74
-5.52
-7.33
-8.95
-10.32
-11.42
-12.26
-12.76
-12.75
-12.06
-10.67
-8.75
-6.65
-4.74
-3.26
-2.25
-1.58
-1.08
-0.67
-0.36
-0.27
-0.47
-0.92
-1.50
-2.05
-2.48
-2.79
-3.03
-3.22
-3.31
-3.15
-2.63
-1.69
-0.48
0.71
1.59
1.92
1.66
1.00
0.27
-0.21
-0.28
-0.00
0.32
0.30
-0.34
-1.65
-3.40
-5.18
-6.59
-7.41
-7.67
-7.55
-7.27
-6.88
-6.29
-5.32
-3.88
-2.07
-0.16
1.55
2.86
3.76
4.38
4.88
5.35
5.75
5.93
5.77
5.20
4.30
3.21
2.09
1.06
0.17
-0.56
-1.15
-1.62
-2.01
-2.39
-2.79
-3.19
-3.54
-3.76
-3.76
-3.50
-3.02
-2.40
-1.76
-1.22
-0.88
-0.79
-1.02
-1.53
-2.27
-3.11
-3.95
-4.64
-5.10
-5.27
-5.12
-4.63
-3.81
-2.65
-1.21
0.43
2.18
3.94
5.62
7.16
8.52
9.70
10.70
11.57
12.28
12.80
13.09
13.11
12.95
12.73
12.66
12.84
13.26
13.73
13.95
13.62
12.58
10.89
8.79
6.59
4.55
2.76
1.12
-0.52
-2.22
-3.91
-5.34
-6.35
-6.91
-7.25
-7.74
-8.67
-10.04
-11.48
-12.45
-12.47
-11.39
-9.45
-7.16
-5.05
-3.44
-2.34
-1.51
-0.61
0.58
2.13
3.91
5.69
7.22
8.40
9.24
9.86
10.38
10.82
11.03
10.78
9.80
7.98
5.48
2.63
-0.13
-2.50
-4.40
-6.00
-7.57
-9.38
-11.51
-13.86
-16.24
-18.42
-20.21
-21.48
-22.13
-22.08
-21.27
-19.74
-17.62
-15.09
-12.34
-9.53
-6.71
-3.89
-1.02
1.94
5.04
8.26
11.58
14.92
18.17
21.21
23.90
26.17
27.98
29.36
30.43
31.27
31.97
32.53
32.89
32.95
32.63
31.95
31.04
30.12
29.44
29.24
29.57
30.23
30.58
29.71
26.64
20.76
12.18
1.80
-8.96
-18.70
-26.58
-32.52
-37.11
-41.14
-45.12
-49.07
-52.59
-55.15
-56.40
-56.27
-54.96
-52.72
-49.74
-46.02
-41.44
-35.94
-29.63
-22.84
-16.09
-9.90
-4.63
-0.38
2.92
5.46
7.35
8.61
9.24
9.24
8.75
8.01
7.34
6.99
7.08
7.58
8.31
9.02
9.46
9.46
8.98
8.12
7.04
5.92
4.87
3.88
2.87
1.75
0.51
-0.82
-2.17
-3.47
-4.75
-6.04
-7.36
-8.71
-10.03
-11.25
-12.32
-13.21
-13.91
-14.33
-14.28
-13.55
-11.99
-9.61
-6.67
-3.54
-0.62
1.85
3.77
5.21
6.25
6.94
7.27
7.18
6.64
5.71
4.55
3.32
2.17
1.18
0.39
-0.21
-0.63
-0.90
-0.99
-0.88
-0.51
0.18
1.17
2.35
3.54
4.50
5.08
5.24
5.12
4.96
4.99
5.35
5.96
6.67
7.29
7.77
8.19
8.78
9.69
10.93
12.30
13.52
14.33
14.67
14.66
14.50
14.34
14.18
13.91
13.44
12.77
11.99
11.20
10.43
9.57
8.44
6.96
5.23
3.54
2.27
1.62
1.58
1.83
1.96
1.60
0.59
-0.94
-2.70
-4.41
-5.87
-7.06
-8.08
-9.05
-10.03
-10.99
-11.86
-12.57
-13.15
-13.72
-14.46
-15.48
-16.78
-18.17
-19.34
-19.96
-19.82
-18.91
-17.40
-15.51
-13.38
-11.02
-8.30
-5.14
-1.62
1.96
5.18
7.59
9.00
9.44
9.19
8.63
8.08
7.71
7.49
7.31
7.02
6.57
5.99
5.40
4.88
4.47
4.13
3.80
3.44
3.08
2.78
2.61
2.64
2.84
3.10
3.29
3.20
2.68
1.64
0.10
-1.82
-3.94
-6.06
-8.01
-9.65
-10.85
-11.48
-11.44
-10.70
-9.31
-7.43
-5.28
-3.05
-0.83
1.35
3.53
5.72
7.85
9.77
11.30
12.26
12.62
12.43
11.87
11.13
10.35
9.57
8.77
7.88
6.90
5.88
4.94
4.18
3.64
3.26
2.89
2.38
1.66
0.73
-0.33
-1.41
-2.42
-3.35
-4.26
-5.22
-6.30
-7.48
-8.63
-9.58
-10.17
-10.36
-10.19
-9.79
-9.25
-8.58
-7.66
-6.36
-4.64
-2.56
-0.27
2.09
4.47
6.88
9.29
11.58
13.46
14.61
14.83
14.12
12.74
11.06
9.46
8.16
7.21
6.52
5.95
5.38
4.73
3.97
3.13
2.23
1.34
0.48
-0.31
-0.98
-1.48
-1.74
-1.74
-1.54
-1.31
-1.29
-1.67
-2.55
-3.84
-5.32
-6.67
-7.64
-8.11
-8.10
-7.74
-7.15
-6.41
-5.48
-4.31
-2.85
-1.12
0.76
2.59
4.17
5.37
6.16
6.57
6.67
6.50
6.04
5.32
4.41
3.46
2.68
2.24
2.21
2.53
3.01
3.42
3.57
3.39
2.94
2.40
1.96
1.73
1.63
1.51
1.12
0.30
-0.92
-2.35
-3.69
-4.75
-5.48
-6.04
-6.66
-7.53
-8.67
-9.88
-10.85
-11.29
-11.05
-10.14
-8.74
-7.03
-5.15
-3.18
-1.12
0.98
3.01
4.82
6.24
7.17
7.55
7.43
6.94
6.22
5.40
4.60
3.90
3.30
2.75
2.18
1.56
0.89
0.18
-0.58
-1.42
-2.37
-3.41
-4.47
-5.40
-6.13
-6.63
-6.96
-7.22
-7.45
-7.66
-7.86
-8.08
-8.39
-8.86
-9.53
-10.36
-11.22
-11.97
-12.50
-12.73
-12.60
-12.06
-11.09
-9.67
-7.82
-5.60
-3.07
-0.35
2.40
4.90
6.88
8.09
8.48
8.19
7.50
6.70
5.99
5.40
4.87
4.33
3.74
3.10
2.43
1.76
1.12
0.52
0.02
-0.33
-0.47
-0.43
-0.23
0.06
0.38
0.66
0.81
0.74
0.31
-0.52
-1.75
-3.26
-4.96
-6.71
-8.43
-9.94
-10.97
-11.24
-10.48
-8.70
-6.16
-3.38
-0.83
1.25
2.96
4.63
6.59
8.94
11.49
13.83
15.60
16.63
17.05
17.08
16.97
16.80
16.52
15.98
15.08
13.81
12.31
10.78
9.37
8.20
7.21
6.34
5.48
4.60
3.80
3.19
2.91
2.99
3.30
3.61
3.68
3.32
2.52
1.37
0.06
-1.25
-2.47
-3.62
-4.75
-5.85
-6.85
-7.53
-7.65
-7.04
-5.66
-3.73
-1.57
0.43
2.01
3.12
3.88
4.48
5.01
5.39
5.40
4.89
3.87
2.57
1.29
0.24
-0.60
-1.45
-2.53
-3.88
-5.28
-6.33
-6.67
-6.21
-5.13
-3.82
-2.71
-2.05
-1.85
-1.97
-2.18
-2.30
-2.29
-2.19
-2.17
-2.32
-2.71
-3.36
-4.26
-5.43
-6.88
-8.57
-10.28
-11.67
-12.33
-11.99
-10.59
-8.40
-5.86
-3.43
-1.46
-0.05
0.87
1.50
1.97
2.37
2.68
2.80
2.67
2.29
1.72
1.08
0.50
0.02
-0.34
-0.64
-0.95
-1.27
-1.55
-1.71
-1.64
-1.32
-0.78
-0.16
0.41
0.80
0.96
0.95
0.83
0.66
0.39
-0.07
-0.83
-1.95
-3.38
-4.97
-6.52
-7.82
-8.69
-9.06
-8.91
-8.31
-7.35
-6.15
-4.74
-3.13
-1.29
0.80
3.03
5.21
7.09
8.48
9.34
9.78
9.98
10.09
10.16
10.11
9.89
9.47
8.93
8.37
7.86
7.39
6.89
6.34
5.75
5.22
4.89
4.80
4.89
5.00
4.93
4.60
4.04
3.39
2.77
2.24
1.71
1.05
0.12
-1.10
-2.49
-3.82
-4.85
-5.41
-5.51
-5.23
-4.73
-4.08
-3.29
-2.28
-0.96
0.73
2.73
4.84
6.80
8.40
9.50
10.09
10.31
10.27
10.06
9.67
9.04
8.12
6.96
5.71
4.58
3.74
3.24
2.98
2.77
2.40
1.82
1.07
0.32
-0.28
-0.62
-0.70
-0.62
-0.51
-0.51
-0.72
-1.17
-1.83
-2.64
-3.57
-4.58
-5.69
-6.89
-8.14
-9.31
-10.23
-10.68
-10.53
-9.76
-8.49
-6.91
-5.21
-3.47
-1.70
0.14
1.99
3.67
4.92
5.54
5.49
4.90
4.03
3.11
2.20
1.24
0.14
-1.07
-2.19
-2.92
-3.02
-2.45
-1.44
-0.38
0.39
0.71
0.68
0.61
0.78
1.30
2.01
2.58
2.68
2.20
1.29
0.26
-0.65
-1.39
-2.14
-3.15
-4.59
-6.38
-8.23
-9.76
-10.70
-10.94
-10.56
-9.66
-8.38
-6.77
-4.91
-2.90
-0.90
0.91
2.33
3.23
3.56
3.37
2.78
1.96
1.06
0.18
-0.63
-1.40
-2.16
-2.89
-3.51
-3.95
-4.13
-4.05
-3.79
-3.47
-3.21
-3.07
-3.02
-3.01
-2.96
-2.83
-2.63
-2.44
-2.31
-2.31
-2.46
-2.77
-3.22
-3.79
-4.45
-5.18
-5.96
-6.75
-7.43
-7.87
-7.90
-7.43
-6.44
-5.04
-3.37
-1.59
0.24
2.10
4.00
5.91
7.67
9.07
9.92
10.15
9.84
9.27
8.76
8.49
8.51
8.64
8.64
8.31
7.66
6.88
6.22
5.90
5.91
6.09
6.16
5.93
5.32
4.46
3.54
2.72
2.09
1.59
1.10
0.51
-0.21
-1.02
-1.77
-2.34
-2.65
-2.78
-2.86
-3.04
-3.31
-3.51
-3.35
-2.58
-1.10
0.94
3.20
5.35
7.16
8.59
9.78
10.82
11.73
12.39
12.66
12.46
11.87
11.06
10.24
9.56
9.06
8.70
8.40
8.08
7.79
7.61
7.68
8.12
8.98
10.20
11.62
13.02
14.27
15.41
16.61
18.06
19.87
21.92
23.94
25.61
26.80
27.58
28.29
29.27
30.77
32.84
35.38
38.22
41.25
44.38
47.45
50.12
51.92
52.35
51.10
48.17
43.82
38.39
32.07
24.78
16.26
6.30
-4.94
-16.87
-28.53
-38.91
-47.28
-53.39
-57.50
-60.16
-61.93
-63.15
-63.85
-63.85
-62.99
-61.25
-58.87
-56.20
-53.53
-50.95
-48.37
-45.59
-42.52
-39.26
-36.13
-33.47
-31.53
-30.36
-29.81
-29.65
-29.65
-29.68
-29.71
-29.71
-29.65
-29.44
-28.92
-27.92
-26.32
-24.06
-21.23
-18.01
-14.68
-11.49
-8.62
-6.18
-4.18
-2.55
-1.25
-0.25
0.48
0.96
1.26
1.46
1.65
1.90
2.24
2.66
3.14
3.68
4.32
5.10
6.01
6.98
7.86
8.46
8.66
8.49
8.11
7.73
7.48
7.35
7.18
6.78
5.99
4.86
3.54
2.20
0.98
-0.07
-0.95
-1.66
-2.17
-2.38
-2.21
-1.60
-0.52
0.97
2.78
4.78
6.79
8.65
10.23
11.49
12.41
13.00
13.25
13.08
12.44
11.36
9.97
8.52
7.27
6.39
5.89
5.67
5.52
5.29
4.91
4.41
3.92
3.54
3.30
3.17
3.04
2.82
2.45
1.95
1.41
0.91
0.48
0.05
-0.52
-1.36
-2.56
-4.04
-5.63
-7.08
-8.15
-8.74
-8.83
-8.49
-7.78
-6.74
-5.38
-3.68
-1.67
0.57
2.85
4.95
6.67
7.86
8.50
8.64
8.43
7.98
7.36
6.60
5.72
4.80
3.91
3.17
2.61
2.19
1.82
1.45
1.10
0.86
0.79
0.92
1.09
1.12
0.75
-0.11
-1.40
-2.92
-4.38
-5.58
-6.47
-7.22
-8.11
-9.45
-11.43
-14.01
-16.94
-19.79
-22.10
-23.54
-23.91
-23.18
-21.45
-18.82
-15.48
-11.64
-7.62
-3.77
-0.45
2.10
3.79
4.70
5.02
4.94
4.64
4.18
3.51
2.59
1.39
-0.02
-1.50
-2.87
-4.03
-5.04
-6.14
-7.56
-9.44
-11.67
-13.96
-15.93
-17.32
-18.05
-18.19
-17.92
-17.38
-16.63
-15.70
-14.66
-13.66
-12.89
-12.49
-12.53
-12.86
-13.24
-13.36
-12.96
-11.90
-10.22
-8.08
-5.72
-3.34
-1.08
1.05
3.14
5.29
7.57
9.96
12.36
14.59
16.47
17.87
18.72
19.01
18.79
18.16
17.26
16.26
15.33
14.58
14.09
13.86
13.85
13.99
14.20
14.34
14.29
13.96
13.38
12.65
11.92
11.30
10.84
10.49
10.17
9.79
9.35
8.81
8.12
7.20
5.98
4.48
2.89
1.51
0.62
0.36
0.64
1.25
1.93
2.61
3.33
4.23
5.41
6.83
8.33
9.68
10.66
11.15
11.10
10.54
9.59
8.43
7.27
6.31
5.67
5.34
5.25
5.29
5.40
5.56
5.72
5.83
5.78
5.52
5.10
4.66
4.36
4.29
4.34
4.34
4.06
3.40
2.38
1.14
-0.16
-1.44
-2.70
-4.01
-5.38
-6.72
-7.84
-8.53
-8.63
-8.08
-6.99
-5.50
-3.80
-1.99
-0.11
1.85
3.87
5.86
7.66
9.00
9.66
9.49
8.57
7.16
5.59
4.22
3.21
2.52
1.96
1.33
0.59
-0.16
-0.69
-0.85
-0.63
-0.21
0.14
0.25
0.13
-0.02
0.02
0.39
0.99
1.57
1.86
1.65
0.92
-0.20
-1.56
-3.01
-4.48
-5.93
-7.31
-8.52
-9.45
-9.93
-9.86
-9.18
-7.94
-6.24
-4.20
-1.98
0.31
2.52
4.52
6.13
7.22
7.69
7.58
7.04
6.24
5.33
4.34
3.23
1.98
0.66
-0.64
-1.75
-2.60
-3.22
-3.71
-4.19
-4.71
-5.23
-5.66
-5.90
-5.87
-5.53
-4.88
-3.99
-2.99
-2.08
-1.49
-1.41
-1.93
-3.01
-4.48
-6.11
-7.69
-9.04
-10.05
-10.63
-10.74
-10.29
-9.23
-7.58
-5.43
-2.97
-0.41
2.03
4.24
6.15
7.76
9.11
10.15
10.83
11.06
10.82
10.16
9.25
8.31
7.54
7.05
6.80
6.69
6.57
6.39
6.13
5.89
5.77
5.81
5.96
6.14
6.28
6.35
6.38
6.38
6.35
6.18
5.78
5.05
3.93
2.49
0.84
-0.83
-2.38
-3.70
-4.72
-5.41
-5.73
-5.59
-4.92
-3.67
-1.90
0.21
2.38
4.35
5.95
7.14
8.01
8.68
9.22
9.61
9.77
9.59
9.04
8.18
7.15
6.15
5.37
4.86
4.59
4.42
4.21
3.87
3.42
2.95
2.57
2.32
2.17
1.97
1.56
0.81
-0.24
-1.42
-2.48
-3.26
-3.77
-4.23
-4.95
-6.13
-7.70
-9.39
-10.74
-11.43
-11.35
-10.62
-9.48
-8.14
-6.64
-4.89
-2.80
-0.40
2.09
4.34
6.03
6.95
7.16
6.86
6.30
5.67
5.00
4.23
3.29
2.16
0.94
-0.21
-1.14
-1.76
-2.07
-2.12
-1.98
-1.70
-1.31
-0.87
-0.46
-0.18
-0.10
-0.27
-0.64
-1.13
-1.66
-2.19
-2.80
-3.64
-4.84
-6.46
-8.35
-10.24
-11.78
-12.71
-12.89
-12.35
-11.23
-9.71
-7.94
-6.00
-3.99
-1.99
-0.15
1.38
2.46
3.05
3.20
3.06
2.80
2.53
2.31
2.07
1.74
1.27
0.68
0.08
-0.38
-0.59
-0.53
-0.27
0.02
0.21
0.21
0.06
-0.16
-0.34
-0.39
-0.35
-0.31
-0.41
-0.76
-1.40
-2.31
-3.34
-4.38
-5.29
-6.05
-6.70
-7.34
-8.01
-8.69
-9.21
-9.36
-8.91
-7.75
-5.91
-3.57
-1.00
1.52
3.83
5.83
7.51
8.82
9.71
10.10
9.99
9.47
8.74
8.06
7.58
7.35
7.19
6.90
6.35
5.59
4.83
4.33
4.27
4.61
5.15
5.61
5.76
5.52
4.96
4.21
3.42
2.67
1.94
1.21
0.46
-0.31
-1.07
-1.80
-2.50
-3.22
-3.98
-4.77
-5.45
-5.86
-5.77
-5.04
-3.68
-1.82
0.27
2.33
4.18
5.78
7.16
8.39
9.48
10.34
10.86
10.89
10.41
9.47
8.21
6.82
5.46
4.21
3.13
2.22
1.51
1.02
0.74
0.63
0.57
0.43
0.11
-0.40
-1.03
-1.66
-2.13
-2.35
-2.34
-2.21
-2.14
-2.32
-2.87
-3.78
-4.96
-6.26
-7.54
-8.68
-9.61
-10.27
-10.53
-10.28
-9.43
-7.98
-6.10
-3.98
-1.88
0.04
1.69
3.04
4.09
4.81
5.17
5.15
4.77
4.09
3.22
2.28
1.37
0.55
-0.16
-0.78
-1.35
-1.88
-2.35
-2.76
-3.06
-3.23
-3.29
-3.25
-3.17
-3.13
-3.20
-3.45
-3.94
-4.67
-5.61
-6.68
-7.81
-8.94
-10.08
-11.30
-12.68
-14.25
-15.95
-17.62
-19.03
-19.98
-20.31
-20.01
-19.12
-17.75
-16.02
-14.02
-11.91
-9.90
-8.26
-7.29
-7.17
-7.91
-9.23
-10.68
-11.75
-12.01
-11.22
-9.35
-6.51
-2.94
1.00
4.80
7.92
9.94
10.70
10.45
9.75
9.23
9.30
10.06
11.23
12.44
13.38
13.97
14.29
14.41
14.33
13.88
12.88
11.23
9.06
6.64
4.31
2.38
0.98
0.11
-0.33
-0.42
-0.20
0.35
1.25
2.52
4.15
6.06
8.15
10.26
12.21
13.82
14.99
15.71
16.01
16.01
15.76
15.25
14.44
13.29
11.84
10.22
8.59
7.14
5.97
5.08
4.42
3.86
3.30
2.69
2.02
1.34
0.69
0.13
-0.31
-0.63
-0.89
-1.17
-1.59
-2.22
-3.08
-4.09
-5.13
-6.04
-6.70
-7.02
-6.93
-6.44
-5.53
-4.28
-2.76
-1.10
0.58
2.24
3.87
5.46
6.92
8.07
8.72
8.75
8.26
7.48
6.71
6.06
5.49
4.79
3.77
2.41
0.86
-0.58
-1.68
-2.35
-2.69
-2.91
-3.18
-3.60
-4.12
-4.64
-5.01
-5.22
-5.30
-5.36
-5.47
-5.68
-5.94
-6.23
-6.52
-6.85
-7.31
-7.97
-8.80
-9.69
-10.42
-10.75
-10.53
-9.70
-8.31
-6.49
-4.38
-2.07
0.35
2.82
5.21
7.35
9.00
9.97
10.20
9.80
9.03
8.15
7.34
6.64
5.97
5.22
4.30
3.22
2.06
0.95
-0.06
-0.92
-1.63
-2.19
-2.56
-2.71
-2.62
-2.34
-1.98
-1.72
-1.68
-1.94
-2.46
-3.12
-3.75
-4.26
-4.64
-5.03
-5.64
-6.57
-7.79
-9.05
-10.03
-10.39
-9.98
-8.88
-7.31
-5.55
-3.79
-2.15
-0.66
0.69
1.88
2.85
3.55
3.95
4.02
3.80
3.31
2.60
1.71
0.70
-0.41
-1.54
-2.63
-3.56
-4.21
-4.51
-4.46
-4.18
-3.86
-3.66
-3.64
-3.72
-3.76
-3.62
-3.25
-2.73
-2.20
-1.79
-1.53
-1.40
-1.33
-1.32
-1.43
-1.71
-2.18
-2.71
-3.08
-3.03
-2.39
-1.12
0.66
2.75
5.01
7.32
9.70
12.12
14.53
16.80
18.75
20.21
21.09
21.42
21.34
21.04
20.70
20.41
20.19
19.97
19.67
19.24
18.67
18.02
17.32
16.58
15.71
14.59
13.03
10.93
8.30
5.29
2.18
-0.74
-3.27
-5.35
-7.07
-8.57
-9.94
-11.20
-12.24
-12.96
-13.28
-13.27
-13.02
-12.66
-12.20
-11.59
-10.76
-9.61
