1.594068355000000000e+09
-2.999999999999999889e-02
5.059999999999999609e+00
1.791000000000000014e+01
7.934000000000000341e+01
2.282899999999999920e+02
-4.874499999999999886e+02
-1.063000000000000078e+01
1.411800000000000068e+02
2.473000000000000043e+01
2.796000000000000085e+01
2.339999999999999858e+00
4.400000000000000022e-01
1.416000000000000014e+01
-5.771000000000000085e+01
-3.299000000000000199e+01
-2.085999999999999943e+01
2.801999999999999957e+01
1.536999999999999922e+01
2.529999999999999805e+00
-1.084999999999999964e+01
6.059999999999999609e+00
8.390000000000000568e+00
1.315000000000000036e+01
1.290000000000000036e+00
-1.433999999999999986e+01
1.659999999999999920e+00
1.477999999999999936e+01
-2.770000000000000018e+00
5.330000000000000071e+00
8.019999999999999574e+00
-3.099999999999999978e-01
2.798000000000000043e+01
3.069999999999999929e+01
-1.032300000000000040e+02
-2.353000000000000114e+01
2.178999999999999915e+01
2.794000000000000128e+01
1.146000000000000085e+01
-1.027999999999999936e+01
-1.103999999999999915e+01
3.315999999999999659e+01
4.229999999999999716e+01
-6.868999999999999773e+01
-3.930000000000000160e+00
2.189999999999999947e+00
-9.179999999999999716e+00
2.726999999999999957e+01
2.869999999999999929e+01
6.038000000000000256e+01
-3.114000000000000057e+01
-5.871000000000000085e+01
9.812000000000000455e+01
-5.632000000000000028e+01
1.736399999999999864e+02
1.120000000000000107e+00
-9.232999999999999829e+01
-1.403199999999999932e+02
-1.447800000000000011e+02
-2.839999999999999858e+01
3.411999999999999744e+01
6.837999999999999545e+01
1.081000000000000050e+01
1.994000000000000128e+01
-6.070000000000000284e+00
3.900000000000000133e-01
-1.400000000000000000e+01
-1.105999999999999943e+02
7.306000000000000227e+01
1.192199999999999989e+02
-5.140999999999999659e+01
2.700000000000000178e-01
6.940000000000000568e+01
2.994000000000000128e+01
-3.882999999999999829e+01
3.385000000000000142e+01
-1.071000000000000085e+01
1.699799999999999898e+02
-2.239699999999999989e+02
-2.490800000000000125e+02
1.751000000000000156e+01
1.756299999999999955e+02
1.172300000000000040e+02
1.812999999999999901e+01
8.000000000000000444e-01
-3.900000000000000000e+01
-2.912999999999999901e+01
-1.851000000000000156e+01
1.848000000000000043e+01
-9.769999999999999574e+00
-3.745000000000000284e+01
2.578999999999999915e+01
4.813000000000000256e+01
-1.969999999999999973e+00
-8.609999999999999432e+00
-1.778999999999999915e+01
5.509999999999999787e+00
2.689000000000000057e+01
-2.246999999999999886e+01
-2.998999999999999844e+01
5.267999999999999972e+01
3.603000000000000114e+01
-2.348000000000000043e+01
-7.889999999999999680e+00
6.229999999999999716e+01
-2.142999999999999972e+01
-6.135999999999999943e+01
-6.870000000000000284e+01
-1.260999999999999943e+01
2.700000000000000178e+00
2.321000000000000085e+01
3.836999999999999744e+01
-5.360000000000000320e+00
1.530000000000000027e+00
-7.870000000000000107e+00
-1.637999999999999901e+01
9.279999999999999361e+00
1.190000000000000036e+01
-4.599999999999999645e+00
8.490000000000000213e+00
-4.240000000000000213e+00
-1.335999999999999943e+01
-7.450000000000000178e+00
-8.109999999999999432e+00
4.209999999999999964e+00
8.220000000000000639e+00
-7.259999999999999787e+00
7.650000000000000355e+00
5.809999999999999609e+00
-4.330000000000000071e+00
1.058999999999999986e+01
6.740000000000000213e+00
-3.379999999999999893e+00
-4.690000000000000391e+00
-7.969999999999999751e+00
-2.870000000000000107e+00
1.449999999999999956e+00
8.009999999999999787e+00
2.816000000000000014e+01
-1.039000000000000057e+01
-9.080000000000000071e+00
-2.044000000000000128e+01
-1.140000000000000036e+01
-1.603999999999999915e+01
3.099999999999999978e-01
-3.879999999999999893e+00
-1.678000000000000114e+01
-9.720000000000000639e+00
1.017999999999999972e+01
-8.599999999999999867e-01
1.399999999999999911e+00
1.901999999999999957e+01
7.580000000000000071e+00
2.040000000000000036e+00
1.617999999999999972e+01
-4.190000000000000391e+00
-2.175000000000000000e+01
-8.890000000000000568e+00
8.310000000000000497e+00
2.490000000000000213e+00
1.469999999999999973e+00
1.770000000000000018e+00
2.132000000000000028e+01
1.008000000000000007e+01
-1.885000000000000142e+01
5.169999999999999929e+00
-3.839999999999999858e+00
-1.910999999999999943e+01
-5.879999999999999893e+00
-4.400000000000000022e-01
-1.164000000000000057e+01
-3.910000000000000142e+00
1.737999999999999901e+01
2.119000000000000128e+01
1.328999999999999915e+01
2.350000000000000089e+00
-1.311999999999999922e+01
7.120000000000000107e+00
-3.409000000000000341e+01
-2.144000000000000128e+01
2.578000000000000114e+01
1.452999999999999936e+01
5.019999999999999574e+00
1.428999999999999915e+01
-2.390000000000000124e+00
2.048000000000000043e+01
-2.410000000000000142e+00
-4.129999999999999716e+01
-6.209999999999999964e+00
-5.000000000000000278e-02
-6.549999999999999822e+00
1.356000000000000050e+01
2.296999999999999886e+01
2.899999999999999800e-01
8.910000000000000142e+00
9.699999999999999289e+00
-1.434999999999999964e+01
-6.999999999999999556e-01
-2.221000000000000085e+01
-1.026999999999999957e+01
1.383999999999999986e+01
-4.077000000000000313e+01
2.669999999999999929e+01
1.610000000000000142e+01
-3.709999999999999964e+00
2.362000000000000099e+01
7.679999999999999716e+00
-9.320000000000000284e+00
1.964999999999999858e+01
-4.311999999999999744e+01
-2.755999999999999872e+01
4.095000000000000284e+01
1.862999999999999901e+01
-4.839999999999999858e+00
-8.029999999999999361e+00
-2.941000000000000014e+01
-5.360999999999999943e+01
-1.657100000000000080e+02
1.373400000000000034e+02
2.700000000000000000e+01
9.012000000000000455e+01
4.857999999999999829e+01
-8.990000000000000568e+01
-2.580999999999999872e+01
-2.892999999999999972e+01
-2.589999999999999858e+00
-1.560999999999999943e+01
-1.009999999999999964e+01
4.739999999999999858e+01
-1.183000000000000007e+01
3.350000000000000089e+00
6.349999999999999645e+00
-5.349999999999999645e+00
5.200000000000000178e-01
-2.060000000000000053e+00
-2.246999999999999886e+01
1.126999999999999957e+01
3.770000000000000018e+00
-1.547000000000000064e+01
1.901999999999999957e+01
-3.509999999999999787e+00
-2.208999999999999986e+01
2.392000000000000171e+01
-1.358000000000000007e+01
-2.887000000000000099e+01
4.007000000000000028e+01
2.155000000000000071e+01
1.090000000000000080e+00
1.830000000000000071e+01
-3.571000000000000085e+01
-3.080999999999999872e+01
-1.356000000000000050e+01
3.609999999999999876e+00
-6.290000000000000036e+00
6.099999999999999645e+00
-1.209999999999999964e+00
-6.110000000000000320e+00
1.481000000000000050e+01
2.289000000000000057e+01
4.277000000000000313e+01
-3.206000000000000227e+01
-2.864999999999999858e+01
2.676999999999999957e+01
1.785999999999999943e+01
-4.559999999999999609e+00
2.628000000000000114e+01
1.172000000000000064e+01
-1.180000000000000071e+01
3.459999999999999964e+00
-4.193999999999999773e+01
-1.928000000000000114e+01
1.621999999999999886e+01
-1.158000000000000007e+01
-2.064999999999999858e+01
2.603000000000000114e+01
2.119000000000000128e+01
-2.617000000000000171e+01
4.089000000000000057e+01
2.498999999999999844e+01
-9.500000000000000000e+00
1.756200000000000045e+02
-1.197300000000000040e+02
-1.235499999999999972e+02
-1.277999999999999936e+01
-1.236999999999999922e+01
6.179999999999999716e+00
-1.459999999999999964e+00
-3.274000000000000199e+01
1.642999999999999972e+01
2.698000000000000043e+01
-4.625999999999999801e+01
-2.129999999999999893e+00
1.575000000000000000e+01
-2.764000000000000057e+01
2.930000000000000160e+00
2.700000000000000000e+01
6.099999999999999867e-01
1.891000000000000014e+01
8.960000000000000853e+00
-9.300000000000000488e-01
2.042000000000000171e+01
-9.400000000000000355e+00
-4.161999999999999744e+01
2.208999999999999986e+01
1.573000000000000043e+01
-2.637999999999999901e+01
4.496000000000000085e+01
-1.605000000000000071e+01
2.555000000000000071e+01
9.929999999999999716e+00
-5.969999999999999751e+00
2.339999999999999858e+00
5.654999999999999716e+01
-5.647999999999999687e+01
-8.525000000000000000e+01
1.218100000000000023e+02
1.832999999999999829e+01
-3.896000000000000085e+01
2.042999999999999972e+01
1.328999999999999915e+01
1.728999999999999915e+01
1.620000000000000107e+00
-1.987000000000000099e+01
-1.875000000000000000e+01
-6.700000000000000400e-01
-1.757999999999999829e+01
-3.439999999999999947e+00
9.000000000000000222e-01
-1.314000000000000057e+01
3.760000000000000142e+01
-1.399999999999999911e+00
5.628000000000000114e+01
-4.679999999999999716e+00
-3.825000000000000000e+01
-3.640999999999999659e+01
-4.042000000000000171e+01
4.221999999999999886e+01
-1.653000000000000114e+01
1.712999999999999901e+01
4.459999999999999964e+00
-3.286999999999999744e+01
1.873000000000000043e+01
1.907000000000000028e+01
-2.344999999999999929e+01
2.126000000000000156e+01
3.299000000000000199e+01
3.990999999999999659e+01
6.889000000000000057e+01
-7.576000000000000512e+01
-3.971000000000000085e+01
1.324000000000000021e+01
-2.912000000000000099e+01
-6.517000000000000171e+01
1.846999999999999886e+01
6.190000000000000391e+00
8.550000000000000711e+00
3.173999999999999844e+01
3.467000000000000171e+01
1.169999999999999929e+01
4.321000000000000085e+01
6.075999999999999801e+01
-6.260999999999999943e+01
-3.603000000000000114e+01
-1.392999999999999972e+01
2.373000000000000043e+01
1.574000000000000021e+01
2.071999999999999886e+01
-2.292000000000000171e+01
-2.846000000000000085e+01
-1.213000000000000078e+01
6.268999999999999773e+01
-3.284000000000000341e+01
-2.401000000000000156e+01
-1.378999999999999915e+01
-7.940000000000000391e+00
-3.360999999999999943e+01
8.339999999999999858e+00
5.459000000000000341e+01
-1.676999999999999957e+01
1.737999999999999901e+01
4.549999999999999822e+00
-2.630000000000000071e+01
2.625000000000000000e+01
1.796000000000000085e+01
-1.388000000000000078e+01
-1.878000000000000114e+01
-3.789000000000000057e+01
-7.199999999999999734e-01
4.790000000000000036e+00
1.389000000000000057e+01
2.792999999999999972e+01
1.907999999999999829e+01
2.307999999999999829e+01
-3.602000000000000313e+01
-7.570000000000000284e+00
-1.064000000000000057e+01
3.417000000000000171e+01
9.398999999999999488e+01
-1.293000000000000114e+02
1.292999999999999972e+01
-1.795900000000000034e+02
5.465999999999999659e+01
9.909000000000000341e+01
3.695000000000000284e+01
-2.648000000000000043e+01
1.431000000000000050e+01
-1.389999999999999902e+00
-5.207999999999999829e+01
4.868999999999999773e+01
8.880000000000000782e+00
-4.036999999999999744e+01
1.018999999999999950e+01
7.169999999999999929e+00
-2.703999999999999915e+01
2.657000000000000028e+01
-6.899999999999999467e-01
-3.001000000000000156e+01
2.028999999999999915e+01
1.058999999999999986e+01
-2.010999999999999943e+01
-6.280000000000000249e+00
-2.462000000000000099e+01
-7.299999999999999822e+00
2.737000000000000099e+01
4.219999999999999751e+00
1.050000000000000000e+01
2.314000000000000057e+01
-5.400000000000000355e-01
5.769999999999999574e+00
2.108999999999999986e+01
-6.919999999999999929e+00
-9.330000000000000071e+00
-1.368999999999999950e+01
-2.112999999999999901e+01
-8.599999999999999867e-01
2.123999999999999844e+01
-6.070000000000000284e+00
1.600000000000000000e+01
4.889999999999999680e+00
-5.446000000000000085e+01
1.998000000000000043e+01
4.309999999999999609e+00
-1.151999999999999957e+01
3.943999999999999773e+01
-2.289999999999999858e+01
-4.078999999999999915e+01
1.442999999999999972e+01
1.973999999999999844e+01
9.509999999999999787e+00
4.921000000000000085e+01
-5.160999999999999943e+01
-2.626000000000000156e+01
9.099999999999999645e+00
-1.550000000000000000e+01
3.660000000000000142e+00
1.216999999999999993e+01
-2.751999999999999957e+01
4.990000000000000213e+00
8.660000000000000142e+00
-2.014000000000000057e+01
1.528999999999999915e+01
8.970000000000000639e+00
-7.040000000000000036e+00
4.845000000000000284e+01
-9.509999999999999787e+00
-2.267999999999999972e+01
-1.153599999999999994e+02
-1.669999999999999929e+01
3.946000000000000085e+01
4.047999999999999687e+01
1.560000000000000053e+00
-1.325999999999999979e+01
1.278999999999999915e+01
-7.089999999999999858e+00
1.300000000000000000e+01
-6.600000000000000311e-01
-3.089999999999999858e+01
3.950000000000000178e+00
2.096999999999999886e+01
3.740000000000000213e+00
-9.759999999999999787e+00
6.559999999999999609e+00
-1.183000000000000007e+01
2.714000000000000057e+01
1.667999999999999972e+01
-1.330000000000000071e+01
6.679999999999999716e+00
2.582999999999999829e+01
-6.946999999999999886e+01
-1.129999999999999893e+00
-1.391000000000000014e+01
-2.389999999999999858e+01
2.910999999999999943e+01
9.740000000000000213e+00
-4.469999999999999751e+00
3.642000000000000171e+01
6.889999999999999680e+00
4.471000000000000085e+01
7.740000000000000213e+00
-1.489000000000000057e+01
1.002999999999999936e+01
4.227000000000000313e+01
-6.465000000000000568e+01
1.576999999999999957e+01
-9.234999999999999432e+01
-9.451999999999999602e+01
8.254999999999999716e+01
1.692000000000000171e+01
-1.270000000000000018e+00
6.381000000000000227e+01
2.975000000000000000e+01
3.133999999999999986e+01
-3.488000000000000256e+01
-1.833999999999999986e+01
-5.059000000000000341e+01
-4.559999999999999609e+00
-1.798999999999999844e+01
-3.247999999999999687e+01
-5.125000000000000000e+01
-1.931500000000000057e+02
1.122800000000000011e+02
2.134900000000000091e+02
4.052000000000000313e+01
-5.860999999999999943e+01
-8.849999999999999645e+00
9.339999999999999858e+00
2.058999999999999986e+01
-7.110000000000000320e+00
-6.767000000000000171e+01
-1.479399999999999977e+02
2.936700000000000159e+02
4.714900000000000091e+02
-3.390199999999999818e+02
-8.423000000000000398e+01
-1.409999999999999964e+01
-2.441000000000000014e+01
-4.561999999999999744e+01
-1.180000000000000071e+01
3.359999999999999876e+00
4.775999999999999801e+01
-3.296999999999999886e+01
-1.942000000000000171e+01
-1.698400000000000034e+02
1.561399999999999864e+02
9.281000000000000227e+01
1.566999999999999993e+01
-8.453000000000000114e+01
-1.878999999999999915e+01
4.517999999999999972e+01
-2.778999999999999915e+01
5.167999999999999972e+01
2.898500000000000227e+02
-3.321000000000000085e+01
3.803999999999999915e+01
-2.672300000000000182e+02
7.328000000000000114e+01
-5.490000000000000213e+00
1.939000000000000057e+01
5.842000000000000171e+01
-1.308000000000000114e+02
1.295200000000000102e+02
-1.397500000000000000e+02
-2.763399999999999750e+02
-3.182999999999999829e+01
1.952899999999999920e+02
2.398999999999999844e+01
4.014999999999999858e+01
7.890999999999999659e+01
1.015600000000000023e+02
5.597999999999999687e+01
7.779999999999999716e+01
-1.200300000000000011e+02
-3.008600000000000136e+02
1.162900000000000063e+02
2.875699999999999932e+02
-3.760999999999999943e+01
-4.620000000000000284e+01
-2.082999999999999829e+01
-3.981000000000000227e+01
-9.573000000000000398e+01
-7.284999999999999432e+01
1.686899999999999977e+02
3.102500000000000000e+02
-2.485999999999999943e+01
-1.171299999999999955e+02
-2.317000000000000171e+01
1.252800000000000011e+02
2.023000000000000043e+01
6.559999999999999609e+00
1.287299999999999898e+02
-1.816500000000000057e+02
-9.190999999999999659e+01
8.678000000000000114e+01
7.248999999999999488e+01
-8.565999999999999659e+01
7.419999999999999929e+00
9.810000000000000497e+00
-3.051999999999999957e+01
1.026999999999999957e+01
-2.739000000000000057e+01
-5.209999999999999964e+00
4.949000000000000199e+01
1.497000000000000064e+01
7.169999999999999929e+00
-2.149999999999999911e+00
-1.750000000000000000e+00
6.889999999999999680e+00
1.010000000000000009e+00
-1.967999999999999972e+01
1.614000000000000057e+01
1.072000000000000064e+01
-2.187000000000000099e+01
1.100999999999999979e+01
9.019999999999999574e+00
-1.158999999999999986e+01
1.050000000000000000e+01
1.238000000000000078e+01
-5.750000000000000000e+00
-5.599999999999999645e+00
1.350000000000000000e+01
-6.339999999999999858e+00
4.559999999999999609e+00
-8.369999999999999218e+00
-7.849999999999999645e+00
7.629999999999999893e+00
1.036999999999999922e+01
-2.629999999999999893e+00
2.049999999999999822e+00
5.290000000000000036e+00
-4.110000000000000320e+00
6.110000000000000320e+00
1.860000000000000098e+00
-7.339999999999999858e+00
2.180000000000000160e+00
7.099999999999999645e-01
-3.259999999999999787e+00
4.889999999999999680e+00
5.500000000000000444e-01
-3.169999999999999929e+00
1.479999999999999982e+00
2.020000000000000018e+00
-3.699999999999999956e-01
2.359999999999999876e+00
-2.640000000000000124e+00
-6.240000000000000213e+00
-9.050000000000000711e+00
1.367999999999999972e+01
6.830000000000000071e+00
5.320000000000000284e+00
-6.950000000000000178e+00
-4.049999999999999822e+00
-5.200000000000000178e-01
9.939999999999999503e+00
-2.399999999999999911e+00
-4.030000000000000249e+00
1.340000000000000080e+00
-3.979999999999999982e+00
-2.589999999999999858e+00
5.740000000000000213e+00
6.899999999999999467e-01
-2.509999999999999787e+00
1.479999999999999982e+00
-2.970000000000000195e+00
-2.660000000000000142e+00
3.580000000000000071e+00
-4.599999999999999645e+00
-3.600000000000000089e+00
1.739999999999999991e+00
-5.219999999999999751e+00
6.049999999999999822e+00
3.214000000000000057e+01
-5.669999999999999929e+00
-2.371999999999999886e+01
-1.299000000000000021e+01
4.309999999999999609e+00
-1.071000000000000085e+01
2.450000000000000178e+00
1.510000000000000009e+00
-5.410000000000000142e+00
8.310000000000000497e+00
3.400000000000000244e-01
-1.594999999999999929e+01
2.589999999999999858e+00
4.389999999999999680e+00
3.939999999999999947e+00
6.719999999999999751e+00
2.370000000000000107e+00
1.909999999999999920e+00
-2.520000000000000018e+00
1.949999999999999956e+00
6.040000000000000036e+00
7.250000000000000000e+00
-3.332999999999999829e+01
1.239000000000000057e+01
8.699999999999999289e+00
-1.919999999999999929e+00
1.302999999999999936e+01
2.339999999999999858e+00
-8.250000000000000000e+00
3.129999999999999893e+00
2.700000000000000178e+00
-8.580000000000000071e+00
2.399999999999999911e+00
2.040000000000000036e+00
-9.560000000000000497e+00
9.179999999999999716e+00
1.969999999999999973e+00
-3.629999999999999893e+00
2.279999999999999805e+00
-2.099999999999999922e-01
-1.820000000000000062e+00
4.089999999999999858e+00
-9.769999999999999574e+00
-1.135999999999999943e+01
1.503999999999999915e+01
1.790000000000000036e+00
-1.632999999999999829e+01
6.200000000000000178e+00
7.700000000000000178e+00
1.090000000000000080e+00
6.410000000000000142e+00
-5.879999999999999893e+00
-8.839999999999999858e+00
-3.810000000000000053e+00
3.499999999999999778e-01
3.800000000000000044e-01
3.930000000000000160e+00
3.589999999999999858e+00
1.122000000000000064e+01
-1.000000000000000056e-01
-5.429999999999999716e+00
6.899999999999999467e-01
-1.344999999999999929e+01
1.123000000000000043e+01
8.550000000000000711e+00
5.200000000000000178e-01
-9.289999999999999147e+00
-4.389999999999999680e+00
9.899999999999999911e-01
5.950000000000000178e+00
1.662000000000000099e+01
4.000000000000000222e-01
-1.318999999999999950e+01
3.680000000000000160e+00
-6.070000000000000284e+00
3.279999999999999805e+00
1.105000000000000071e+01
-4.099999999999999645e+00
-7.719999999999999751e+00
-1.590000000000000080e+00
5.309999999999999609e+00
2.640000000000000124e+00
1.275000000000000000e+01
-2.209999999999999964e+00
-9.960000000000000853e+00
9.400000000000000355e+00
-4.120000000000000107e+00
-1.422000000000000064e+01
1.082000000000000028e+01
1.360999999999999943e+01
3.299999999999999822e+00
8.869999999999999218e+00
-1.923999999999999844e+01
2.240000000000000213e+00
5.559999999999999609e+00
-6.790000000000000036e+00
-4.700000000000000178e+00
5.250000000000000000e+00
-5.549999999999999822e+00
4.139999999999999680e+00
8.449999999999999289e+00
1.419999999999999929e+00
-2.379999999999999893e+00
5.370000000000000107e+00
-7.629999999999999893e+00
4.009999999999999787e+00
-2.220000000000000195e+00
-3.270000000000000018e+00
1.330000000000000071e+01
5.070000000000000284e+00
-2.182999999999999829e+01
7.910000000000000142e+00
-1.357000000000000028e+01
-6.870000000000000107e+00
2.005999999999999872e+01
9.750000000000000000e+00
-1.356000000000000050e+01
5.339999999999999858e+00
-2.689999999999999947e+00
-1.080000000000000071e+01
6.799999999999999822e+00
-9.210000000000000853e+00
-3.689999999999999947e+00
1.041999999999999993e+01
5.699999999999999512e-01
4.280000000000000249e+00
-1.520000000000000018e+00
-4.129999999999999893e+00
2.209999999999999964e+00
8.339999999999999858e+00
-1.616000000000000014e+01
-8.130000000000000782e+00
8.259999999999999787e+00
-4.459999999999999964e+00
5.669999999999999929e+00
8.810000000000000497e+00
-3.051999999999999957e+01
2.348999999999999844e+01
4.240000000000000213e+00
-1.359999999999999964e+01
4.280000000000000249e+00
-3.950000000000000178e+00
-2.450000000000000178e+00
4.120000000000000107e+00
-8.220000000000000639e+00
-2.209999999999999964e+00
1.521000000000000085e+01
-1.500000000000000000e+00
1.810000000000000053e+00
9.429999999999999716e+00
-2.200000000000000011e-01
-1.678000000000000114e+01
3.720000000000000195e+00
5.629999999999999893e+00
-7.299999999999999822e-01
-1.158000000000000007e+01
-1.033000000000000007e+01
4.349999999999999645e+00
2.001000000000000156e+01
4.500000000000000111e-01
2.370000000000000107e+00
-1.084999999999999964e+01
-6.200000000000000178e+00
8.259999999999999787e+00
2.529999999999999805e+00
-1.075000000000000000e+01
3.089999999999999858e+00
2.549999999999999822e+00
-5.190000000000000391e+00
3.040000000000000036e+00
-4.000000000000000222e-01
-1.679999999999999938e+00
7.400000000000000355e+00
4.080000000000000071e+00
-2.850000000000000089e+00
4.419999999999999929e+00
-1.860000000000000098e+00
-2.569999999999999840e+00
-6.709999999999999964e+00
-4.379999999999999893e+00
2.970000000000000195e+00
-1.141000000000000014e+01
1.586999999999999922e+01
4.429999999999999716e+00
5.419999999999999929e+00
5.990000000000000213e+00
2.899999999999999800e-01
5.600000000000000533e-01
6.080000000000000071e+00
-1.744000000000000128e+01
-8.679999999999999716e+00
1.091999999999999993e+01
4.019999999999999574e+00
7.639999999999999680e+00
-6.549999999999999822e+00
9.429999999999999716e+00
8.679999999999999716e+00
-9.320000000000000284e+00
1.000999999999999979e+01
-6.199999999999999956e-01
-1.633999999999999986e+01
8.589999999999999858e+00
9.369999999999999218e+00
-1.007000000000000028e+01
1.053999999999999915e+01
5.200000000000000178e+00
-1.021000000000000085e+01
8.619999999999999218e+00
2.580000000000000071e+00
-1.096000000000000085e+01
6.679999999999999716e+00
-1.699999999999999956e+00
-1.778000000000000114e+01
3.499999999999999778e-01
1.468999999999999950e+01
-6.780000000000000249e+00
3.540000000000000036e+00
1.290000000000000036e+00
-8.009999999999999787e+00
6.809999999999999609e+00
-1.469999999999999973e+00
-1.117999999999999972e+01
2.779999999999999805e+00
-2.640000000000000124e+00
-3.790000000000000036e+00
4.839999999999999858e+00
-6.389999999999999680e+00
-8.019999999999999574e+00
1.266999999999999993e+01
-1.459999999999999964e+00
-8.140000000000000568e+00
8.970000000000000639e+00
-1.469999999999999929e+01
7.509999999999999787e+00
-1.641000000000000014e+01
-7.679999999999999716e+00
3.890000000000000124e+00
1.269999999999999929e+01
-6.080000000000000071e+00
-9.650000000000000355e+00
1.034999999999999964e+01
3.290000000000000036e+00
-7.870000000000000107e+00
6.830000000000000071e+00
-2.569999999999999840e+00
-2.520000000000000018e+00
3.020000000000000018e+00
-1.959999999999999964e+00
-9.880000000000000782e+00
-2.060000000000000053e+00
3.307000000000000028e+01
-5.799999999999999600e-01
-1.217999999999999972e+01
3.499999999999999778e-01
1.025999999999999979e+01
2.500000000000000000e+00
-1.150000000000000000e+01
4.129999999999999893e+00
-8.599999999999999867e-01
-4.940000000000000391e+00
6.429999999999999716e+00
-2.700000000000000178e-01
-5.089999999999999858e+00
6.889999999999999680e+00
-9.399999999999999467e-01
-8.060000000000000497e+00
5.830000000000000071e+00
-5.629999999999999893e+00
-8.960000000000000853e+00
9.099999999999999645e+00
-2.549999999999999822e+00
-8.519999999999999574e+00
8.160000000000000142e+00
1.300000000000000044e-01
-8.699999999999999289e+00
9.240000000000000213e+00
-3.319999999999999840e+00
-7.910000000000000142e+00
9.730000000000000426e+00
-3.779999999999999805e+00
-9.679999999999999716e+00
5.450000000000000178e+00
-3.580000000000000071e+00
7.399999999999999911e-01
7.309999999999999609e+00
-4.480000000000000426e+00
-1.050000000000000044e+00
7.150000000000000355e+00
-6.049999999999999822e+00
8.599999999999999867e-01
1.659999999999999920e+00
-4.740000000000000213e+00
4.759999999999999787e+00
6.190000000000000391e+00
-9.029999999999999361e+00
7.559999999999999609e+00
5.370000000000000107e+00
-6.870000000000000107e+00
8.089999999999999858e+00
-3.459999999999999964e+00
-5.679999999999999716e+00
1.241000000000000014e+01
4.610000000000000320e+00
-1.669999999999999929e+01
6.549999999999999822e+00
5.070000000000000284e+00
-1.119999999999999929e+01
9.460000000000000853e+00
-2.879999999999999893e+00
-7.639999999999999680e+00
5.679999999999999716e+00
-3.759999999999999787e+00
-6.860000000000000320e+00
9.189999999999999503e+00
-1.700000000000000122e-01
-3.100000000000000089e+00
1.265000000000000036e+01
-5.169999999999999929e+00
-7.669999999999999929e+00
4.620000000000000107e+00
-3.790000000000000036e+00
-2.350000000000000089e+00
2.620000000000000107e+00
-1.540000000000000036e+00
2.649999999999999911e+00
5.240000000000000213e+00
-2.709999999999999964e+00
4.559999999999999609e+00
6.500000000000000222e-01
-3.660000000000000142e+00
2.850000000000000089e+00
-1.449999999999999956e+00
-5.549999999999999822e+00
4.559999999999999609e+00
-2.009999999999999787e+00
-1.409999999999999920e+00
8.070000000000000284e+00
2.919999999999999929e+00
-6.099999999999999645e+00
4.059999999999999609e+00
2.600000000000000089e-01
-3.790000000000000036e+00
5.339999999999999858e+00
-3.439999999999999947e+00
-4.139999999999999680e+00
5.889999999999999680e+00
5.019999999999999574e+00
-1.052999999999999936e+01
4.530000000000000249e+00
5.440000000000000391e+00
-6.309999999999999609e+00
5.339999999999999858e+00
-1.159999999999999920e+00
-4.809999999999999609e+00
7.360000000000000320e+00
4.089999999999999858e+00
1.178999999999999915e+01
1.074000000000000021e+01
-4.754999999999999716e+01
-1.431000000000000050e+01
3.529999999999999805e+00
1.180000000000000071e+01
-4.730000000000000426e+00
1.057000000000000028e+01
-1.500000000000000000e+00
-1.013000000000000078e+01
1.144999999999999929e+01
-2.009999999999999787e+00
-7.480000000000000426e+00
1.257000000000000028e+01
2.310000000000000053e+00
-7.599999999999999645e+00
7.500000000000000000e+00
-3.339999999999999858e+00
-1.082000000000000028e+01
7.139999999999999680e+00
-6.950000000000000178e+00
-8.009999999999999787e+00
8.130000000000000782e+00
-1.419999999999999929e+00
-3.950000000000000178e+00
1.114000000000000057e+01
1.000000000000000056e-01
-7.230000000000000426e+00
5.690000000000000391e+00
-6.870000000000000107e+00
-3.120000000000000107e+00
4.469999999999999751e+00
-8.730000000000000426e+00
1.860000000000000098e+00
7.160000000000000142e+00
-4.419999999999999929e+00
5.969999999999999751e+00
6.349999999999999645e+00
-6.750000000000000000e+00
7.389999999999999680e+00
3.149999999999999911e+00
-9.980000000000000426e+00
6.240000000000000213e+00
-3.100000000000000089e+00
-7.429999999999999716e+00
7.269999999999999574e+00
3.459999999999999964e+00
-9.960000000000000853e+00
1.405000000000000071e+01
1.080000000000000071e+00
-1.344999999999999929e+01
8.779999999999999361e+00
-2.899999999999999911e+00
-1.014000000000000057e+01
6.589999999999999858e+00
-3.890000000000000124e+00
-9.660000000000000142e+00
1.044999999999999929e+01
-4.299999999999999933e-01
-4.870000000000000107e+00
7.980000000000000426e+00
-6.269999999999999574e+00
-1.508999999999999986e+01
-1.193999999999999950e+01
4.686999999999999744e+01
-1.723999999999999844e+01
-3.157000000000000028e+01
-2.620000000000000107e+00
1.962000000000000099e+01
1.840000000000000080e+00
-1.358000000000000007e+01
-1.169999999999999929e+00
7.969999999999999751e+00
-1.629999999999999893e+00
1.425000000000000000e+01
-1.671999999999999886e+01
-3.151000000000000156e+01
3.899999999999999911e+00
1.106000000000000050e+01
6.660000000000000142e+00
1.386999999999999922e+01
1.629999999999999893e+00
-6.330000000000000071e+00
9.060000000000000497e+00
-4.699999999999999734e-01
-1.019999999999999929e+01
5.330000000000000071e+00
-6.899999999999999467e-01
-7.969999999999999751e+00
5.089999999999999858e+00
1.439999999999999947e+00
-6.250000000000000000e+00
8.259999999999999787e+00
1.050000000000000044e+00
-1.275999999999999979e+01
-1.500000000000000000e+00
2.700000000000000178e-01
-6.290000000000000036e+00
3.209999999999999964e+00
-2.399999999999999911e+00
-2.649999999999999911e+00
1.273000000000000043e+01
-3.910000000000000142e+00
-2.339999999999999858e+00
7.980000000000000426e+00
-2.207999999999999829e+01
2.121000000000000085e+01
2.923999999999999844e+01
-4.907000000000000028e+01
-3.800000000000000044e-01
9.460000000000000853e+00
-8.710000000000000853e+00
5.209999999999999964e+00
-8.800000000000000044e-01
7.769999999999999574e+00
1.199000000000000021e+01
-2.700000000000000178e+00
-1.933999999999999986e+01
9.189999999999999503e+00
2.779999999999999805e+00
-1.148000000000000043e+01
1.242999999999999972e+01
7.299999999999999822e-01
-8.580000000000000071e+00
1.106000000000000050e+01
-1.739999999999999991e+00
-5.480000000000000426e+00
2.680000000000000160e+00
-9.200000000000000400e-01
-5.150000000000000355e+00
2.750000000000000000e+00
-7.660000000000000142e+00
-5.599999999999999645e+00
3.100000000000000089e+00
-5.200000000000000178e-01
4.629999999999999893e+00
1.077999999999999936e+01
1.370000000000000107e+00
3.120000000000000107e+00
-6.330000000000000071e+00
-3.359999999999999876e+00
1.500000000000000000e+00
-1.709999999999999964e+00
-4.969999999999999751e+00
8.480000000000000426e+00
5.219999999999999751e+00
-3.819999999999999840e+00
1.008999999999999986e+01
1.070000000000000062e+00
-8.140000000000000568e+00
5.490000000000000213e+00
6.800000000000000488e-01
-8.230000000000000426e+00
2.779999999999999805e+00
-3.020000000000000018e+00
-7.429999999999999716e+00
9.839999999999999858e+00
5.320000000000000284e+00
-3.310000000000000053e+00
1.186999999999999922e+01
1.426999999999999957e+01
4.125000000000000000e+01
-2.853000000000000114e+01
-4.836999999999999744e+01
-2.892000000000000171e+01
1.260000000000000009e+00
8.109999999999999432e+00
-2.209999999999999964e+00
9.970000000000000639e+00
2.450000000000000178e+00
-7.780000000000000249e+00
5.719999999999999751e+00
-1.399999999999999911e+00
-2.144999999999999929e+01
1.389999999999999902e+00
-1.737999999999999901e+01
-3.339999999999999858e+00
1.626000000000000156e+01
1.049000000000000021e+01
2.609999999999999876e+00
5.339999999999999858e+00
3.399999999999999911e+00
-1.989999999999999991e+00
1.330000000000000071e+00
1.649999999999999911e+00
-1.979999999999999982e+00
-1.750000000000000000e+00
-1.409999999999999920e+00
2.029999999999999805e+00
6.570000000000000284e+00
3.930000000000000160e+00
5.950000000000000178e+00
4.209999999999999964e+00
-4.950000000000000178e+00
6.030000000000000249e+00
-1.979999999999999982e+00
-8.349999999999999645e+00
3.200000000000000178e+00
2.099999999999999922e-01
-7.339999999999999858e+00
1.009999999999999964e+01
5.610000000000000320e+00
-4.769999999999999574e+00
1.089000000000000057e+01
-4.000000000000000222e-01
-1.026999999999999957e+01
4.089999999999999858e+00
-3.129999999999999893e+00
-1.998000000000000043e+01
-1.200999999999999979e+01
1.243999999999999950e+01
-4.199999999999999845e-01
1.525000000000000000e+01
1.300000000000000044e-01
-4.280000000000000249e+00
4.790000000000000036e+00
-5.360000000000000320e+00
-6.490000000000000213e+00
5.219999999999999751e+00
-1.939999999999999947e+00
-5.549999999999999822e+00
-1.540000000000000036e+00
-1.790000000000000036e+00
7.320000000000000284e+00
1.923999999999999844e+01
-8.570000000000000284e+00
-3.930000000000000160e+00
-8.160000000000000142e+00
6.600000000000000311e-01
2.470000000000000195e+00
-1.900000000000000022e-01
-6.990000000000000213e+00
-3.229999999999999982e+00
2.300000000000000100e-01
8.100000000000000533e-01
8.519999999999999574e+00
1.390000000000000036e+01
4.353000000000000114e+01
1.775000000000000000e+01
5.570000000000000284e+00
-1.739000000000000057e+01
1.360000000000000098e+00
-8.290999999999999659e+01
-7.387000000000000455e+01
9.369999999999999218e+00
1.191000000000000014e+01
-7.169999999999999929e+00
2.157999999999999829e+01
3.970000000000000195e+00
-5.160000000000000142e+00
9.970000000000000639e+00
1.358000000000000007e+01
-3.100000000000000089e+00
1.527999999999999936e+01
-2.558999999999999986e+01
-1.572000000000000064e+01
1.458999999999999986e+01
1.887999999999999901e+01
-8.439999999999999503e+00
2.328999999999999915e+01
-2.180000000000000160e+00
-1.796000000000000085e+01
1.481000000000000050e+01
3.089999999999999858e+00
-1.748000000000000043e+01
1.299000000000000021e+01
4.679999999999999716e+00
-6.209999999999999964e+00
1.080000000000000071e+01
2.160000000000000142e+00
-1.530000000000000071e+01
6.580000000000000071e+00
2.000000000000000111e-01
-1.568999999999999950e+01
7.480000000000000426e+00
1.949999999999999956e+00
-1.700000000000000000e+01
8.720000000000000639e+00
3.959999999999999964e+00
-1.116000000000000014e+01
7.139999999999999680e+00
-1.320000000000000062e+00
-1.524000000000000021e+01
7.080000000000000071e+00
-5.300000000000000266e-01
-1.469999999999999929e+01
7.919999999999999929e+00
-2.020000000000000018e+00
-1.491999999999999993e+01
9.669999999999999929e+00
-1.000000000000000021e-02
-9.419999999999999929e+00
7.839999999999999858e+00
2.419999999999999929e+00
-1.201999999999999957e+01
4.679999999999999716e+00
2.200000000000000011e-01
-1.191999999999999993e+01
4.599999999999999645e+00
2.140000000000000124e+00
-6.519999999999999574e+00
9.240000000000000213e+00
1.449999999999999956e+00
-3.000000000000000000e+00
2.589999999999999858e+00
-2.430000000000000160e+00
-4.379999999999999893e+00
7.500000000000000000e-01
-3.430000000000000160e+00
5.500000000000000444e-01
1.709999999999999964e+00
-1.608999999999999986e+01
-5.668999999999999773e+01
-6.945999999999999375e+01
1.494099999999999966e+02
2.915299999999999727e+02
-9.845000000000000284e+01
-1.009200000000000017e+02
1.490000000000000036e+01
3.005999999999999872e+01
-3.549000000000000199e+01
2.766000000000000014e+01
-1.308999999999999986e+01
-2.139000000000000057e+01
2.421000000000000085e+01
5.824000000000000199e+01
-1.981200000000000045e+02
5.065999999999999659e+01
1.659999999999999920e+00
-2.633999999999999986e+01
-3.954999999999999716e+01
-1.889999999999999858e+01
5.711999999999999744e+01
-6.150000000000000000e+01
-1.386999999999999922e+01
-2.891000000000000014e+01
5.802000000000000313e+01
2.107999999999999829e+01
-2.448999999999999844e+01
1.008000000000000007e+01
7.059999999999999609e+00
-1.305000000000000071e+01
2.048999999999999844e+01
3.279999999999999805e+00
-9.550000000000000711e+00
1.018999999999999950e+01
-4.080000000000000071e+00
-3.229999999999999982e+00
5.889999999999999680e+00
-8.130000000000000782e+00
-1.709999999999999964e+00
2.089999999999999858e+00
-8.359999999999999432e+00
2.700000000000000178e-01
5.000000000000000278e-02
-6.910000000000000142e+00
4.179999999999999716e+00
2.089999999999999858e+00
-7.530000000000000249e+00
1.600000000000000089e+00
1.129999999999999893e+00
-7.139999999999999680e+00
2.410000000000000142e+00
2.359999999999999876e+00
-6.129999999999999893e+00
-2.150000000000000000e+01
9.509999999999999787e+00
-3.470000000000000195e+00
-6.820000000000000284e+00
6.690000000000000391e+00
1.489999999999999991e+00
-9.560000000000000497e+00
1.005000000000000071e+01
-2.029999999999999805e+00
-1.540000000000000036e+01
1.450000000000000000e+01
1.632999999999999829e+01
-1.100000000000000000e+01
-1.300000000000000044e+00
4.000000000000000222e-01
-1.367999999999999972e+01
1.194999999999999929e+01
7.889999999999999680e+00
-5.889999999999999680e+00
4.160000000000000142e+00
7.509999999999999787e+00
-7.070000000000000284e+00
3.299999999999999822e+00
7.200000000000000178e+00
-2.720000000000000195e+00
-5.070000000000000284e+00
4.509999999999999787e+00
-2.459999999999999964e+00
-9.650000000000000355e+00
4.280000000000000249e+00
-1.610000000000000098e+00
-1.099000000000000021e+01
5.700000000000000178e+00
6.509999999999999787e+00
-9.560000000000000497e+00
4.360000000000000320e+00
2.140000000000000124e+00
-2.709999999999999964e+00
6.389999999999999680e+00
3.379999999999999893e+00
-6.299999999999999822e+00
4.780000000000000249e+00
-3.509999999999999787e+00
-7.870000000000000107e+00
-4.799999999999999822e-01
3.450000000000000178e+00
-5.200000000000000178e+00
-6.700000000000000400e-01
5.660000000000000142e+00
-3.700000000000000178e+00
-3.029999999999999805e+00
4.129999999999999893e+00
-2.870000000000000107e+00
-7.669999999999999929e+00
6.459999999999999964e+00
-4.400000000000000355e+00
-9.150000000000000355e+00
1.025999999999999979e+01
2.430000000000000160e+00
-1.092999999999999972e+01
-1.292999999999999972e+01
5.599999999999999645e+00
-1.579000000000000057e+02
1.060000000000000000e+02
1.655600000000000023e+02
1.252500000000000000e+02
-4.516499999999999773e+02
1.086200000000000045e+02
-3.589000000000000057e+01
1.167800000000000011e+02
9.992000000000000171e+01
-2.951000000000000156e+01
-1.459799999999999898e+02
-3.427000000000000313e+01
6.679000000000000625e+01
4.253999999999999915e+01
-2.010000000000000142e+01
5.572999999999999687e+01
-5.510999999999999943e+01
9.449999999999999289e+00
1.285699999999999932e+02
-6.107999999999999829e+01
-6.512000000000000455e+01
-2.369999999999999929e+01
7.820000000000000284e+00
-1.268999999999999950e+01
-9.169999999999999929e+00
1.136999999999999922e+01
-2.700000000000000178e-01
-2.205000000000000071e+01
1.689000000000000057e+01
3.560000000000000053e+00
-2.471000000000000085e+01
2.008999999999999986e+01
4.459999999999999964e+00
-2.298000000000000043e+01
1.166000000000000014e+01
8.650000000000000355e+00
-1.440000000000000036e+01
1.059999999999999964e+01
5.599999999999999645e+00
-1.525999999999999979e+01
3.649999999999999911e+00
9.650000000000000355e+00
-9.109999999999999432e+00
-4.790000000000000036e+00
9.800000000000000711e+00
-5.820000000000000284e+00
-7.160000000000000142e+00
1.707000000000000028e+01
-3.799999999999999822e+00
-1.342999999999999972e+01
1.366999999999999993e+01
-2.649999999999999911e+00
-1.069999999999999929e+01
1.522000000000000064e+01
-5.459999999999999964e+00
-1.546000000000000085e+01
1.081000000000000050e+01
-4.860000000000000320e+00
-1.205000000000000071e+01
1.416999999999999993e+01
-5.379999999999999893e+00
-1.064000000000000057e+01
1.173000000000000043e+01
-7.780000000000000249e+00
-1.224000000000000021e+01
1.306000000000000050e+01
-3.799999999999999822e+00
-7.919999999999999929e+00
1.150000000000000000e+01
-4.879999999999999893e+00
-1.064000000000000057e+01
1.384999999999999964e+01
-4.330000000000000071e+00
-1.400999999999999979e+01
1.326999999999999957e+01
-4.219999999999999751e+00
-2.216000000000000014e+01
1.375000000000000000e+01
-3.450000000000000178e+00
-2.217000000000000171e+01
1.565000000000000036e+01
5.600000000000000533e-01
-2.719000000000000128e+01
1.639999999999999858e+01
-4.400000000000000022e-01
-2.896000000000000085e+01
1.517999999999999972e+01
4.769999999999999574e+00
-2.732000000000000028e+01
1.508000000000000007e+01
4.849999999999999645e+00
-2.650000000000000000e+01
2.191000000000000014e+01
9.810000000000000497e+00
-1.181000000000000050e+01
5.102000000000000313e+01
-4.171999999999999886e+01
-2.048000000000000043e+01
1.750000000000000000e+01
1.989999999999999991e+00
-2.553000000000000114e+01
2.039000000000000057e+01
7.910000000000000142e+00
-2.112999999999999901e+01
2.235999999999999943e+01
7.830000000000000071e+00
-1.721000000000000085e+01
1.714000000000000057e+01
7.179999999999999716e+00
-1.771000000000000085e+01
1.050999999999999979e+01
7.750000000000000000e+00
-2.114000000000000057e+01
-8.130000000000000782e+00
2.253000000000000114e+01
-2.290000000000000036e+00
1.120000000000000107e+00
7.150000000000000355e+00
-3.509999999999999787e+00
-1.889999999999999902e+00
1.300999999999999979e+01
-7.419999999999999929e+00
-1.342999999999999972e+01
2.107999999999999829e+01
-1.559999999999999964e+01
-6.129999999999999893e+00
2.912000000000000099e+01
-1.449999999999999956e+00
-8.960000000000000853e+00
8.080000000000000071e+00
-2.553000000000000114e+01
-1.887999999999999901e+01
-1.048000000000000043e+01
2.601999999999999957e+01
-3.354999999999999716e+01
1.448000000000000043e+01
1.660000000000000142e+01
2.666000000000000014e+01
1.628999999999999915e+01
-1.655000000000000071e+01
-8.168999999999999773e+01
-4.520000000000000284e+01
1.267999999999999972e+02
-1.532700000000000102e+02
-9.769999999999999574e+00
-7.140000000000000568e+01
6.669999999999999929e+00
1.106500000000000057e+02
-4.296999999999999886e+01
-6.480000000000000426e+00
1.534999999999999964e+01
1.471000000000000085e+01
-4.070000000000000284e+00
-4.771000000000000085e+01
-1.383999999999999986e+01
2.262000000000000099e+01
3.990999999999999659e+01
-1.509999999999999964e+01
-1.350000000000000000e+01
-2.055000000000000071e+01
-4.203000000000000114e+01
-3.231000000000000227e+01
4.334000000000000341e+01
1.801999999999999957e+01
1.035999999999999943e+01
-4.150000000000000000e+01
-1.891000000000000014e+01
1.771999999999999886e+01
5.740000000000000213e+00
-3.696999999999999886e+01
7.240000000000000213e+00
3.200000000000000178e+00
8.660000000000000142e+00
8.050000000000000711e+00
1.682000000000000028e+01
-1.373000000000000043e+01
-4.599999999999999645e+00
8.359999999999999432e+00
-3.799999999999999822e+00
6.469999999999999751e+00
1.107000000000000028e+01
-5.139999999999999680e+00
3.352000000000000313e+01
6.615000000000000568e+01
-3.311100000000000136e+02
6.837000000000000455e+01
1.210600000000000023e+02
-7.326000000000000512e+01
4.219999999999999751e+00
-5.129999999999999716e+01
-1.867999999999999972e+01
-1.350000000000000000e+01
1.168999999999999950e+01
-8.339999999999999858e+00
1.605999999999999872e+01
-6.860000000000000320e+00
-5.102000000000000313e+01
1.546800000000000068e+02
1.002999999999999936e+01
-2.426000000000000156e+01
-1.660999999999999943e+01
9.799999999999999822e-01
-1.967999999999999972e+01
1.488000000000000078e+01
-8.849999999999999645e+00
-3.910000000000000142e+00
3.518999999999999773e+01
6.726000000000000512e+01
-1.830999999999999872e+01
-3.107999999999999829e+01
-6.399000000000000199e+01
-2.426999999999999957e+01
2.044000000000000128e+01
3.101000000000000156e+01
-1.510999999999999943e+01
-2.553000000000000114e+01
2.335999999999999943e+01
4.278000000000000114e+01
3.881000000000000227e+01
-6.120000000000000107e+00
-1.657999999999999829e+01
-4.415999999999999659e+01
1.189000000000000057e+01
-2.255000000000000071e+01
-5.945000000000000284e+01
-1.265000000000000036e+01
2.521999999999999886e+01
-7.276999999999999602e+01
3.936999999999999744e+01
5.789000000000000057e+01
-2.139000000000000057e+01
1.480000000000000071e+01
-1.075000000000000000e+01
-3.132999999999999829e+01
2.214999999999999858e+01
-4.542000000000000171e+01
-3.279999999999999805e+00
3.342999999999999972e+01
3.207000000000000028e+01
-2.469999999999999929e+01
-1.384999999999999964e+01
7.451999999999999602e+01
-4.010999999999999943e+01
-3.100000000000000000e+01
1.574000000000000021e+01
-1.224000000000000021e+01
-4.289000000000000057e+01
4.410999999999999943e+01
3.374000000000000199e+01
-2.248999999999999844e+01
3.919999999999999929e+00
-2.546000000000000085e+01
-1.996000000000000085e+01
1.742000000000000171e+01
-2.919999999999999929e+00
-5.488000000000000256e+01
-2.337999999999999901e+01
-5.999999999999999778e-01
7.187000000000000455e+01
-3.279999999999999716e+01
-1.507000000000000028e+01
-6.542000000000000171e+01
7.489000000000000057e+01
3.139000000000000057e+01
-5.550999999999999801e+01
2.323999999999999844e+01
1.662000000000000099e+01
-4.849999999999999645e+00
1.539000000000000057e+01
3.293999999999999773e+01
-1.581699999999999875e+02
-2.378999999999999915e+01
3.525000000000000000e+01
2.612000000000000099e+01
4.370000000000000284e+01
-1.417999999999999972e+01
-2.591000000000000014e+01
-1.022000000000000028e+02
2.562999999999999901e+01
-3.490000000000000213e+00
3.457000000000000028e+01
2.310000000000000142e+01
-5.000000000000000000e+01
3.974000000000000199e+01
1.100999999999999979e+01
-4.177000000000000313e+01
9.400000000000000355e+00
-1.885000000000000142e+01
-1.759799999999999898e+02
8.956000000000000227e+01
2.330000000000000071e+01
1.522000000000000064e+01
2.053000000000000114e+01
1.183999999999999986e+01
-1.173000000000000043e+01
-1.006000000000000050e+01
1.966000000000000014e+01
1.269999999999999929e+01
-8.512000000000000455e+01
1.060100000000000051e+02
3.289000000000000057e+01
8.449999999999999289e+00
-5.049000000000000199e+01
-7.014000000000000057e+01
-5.920000000000000284e+01
5.228000000000000114e+01
8.746999999999999886e+01
1.048000000000000043e+01
-6.009999999999999787e+00
1.223499999999999943e+02
4.888000000000000256e+01
-2.337999999999999901e+01
-1.642800000000000011e+02
-2.757999999999999829e+01
-7.751000000000000512e+01
-3.338000000000000256e+01
-2.073000000000000043e+01
-1.669000000000000128e+01
-4.140999999999999659e+01
-1.810000000000000053e+00
-2.914000000000000057e+01
-7.715000000000000568e+01
7.953000000000000114e+01
5.178999999999999915e+01
-4.339999999999999858e+00
-6.500000000000000000e+00
-3.076000000000000156e+01
-7.571999999999999886e+01
1.095900000000000034e+02
4.035999999999999943e+01
-2.844000000000000128e+01
-3.019000000000000128e+01
-3.485999999999999943e+01
-7.301999999999999602e+01
1.646000000000000085e+01
3.700000000000000178e+00
5.372999999999999687e+01
-1.358999999999999986e+01
-1.650000000000000000e+01
7.504999999999999716e+01
-5.632999999999999829e+01
-1.130199999999999960e+02
-4.109000000000000341e+01
5.763000000000000256e+01
7.504000000000000625e+01
1.296200000000000045e+02
-1.061700000000000017e+02
-5.054999999999999716e+01
1.307000000000000028e+01
2.442000000000000171e+01
-4.029999999999999716e+01
4.028000000000000114e+01
3.946000000000000085e+01
6.698000000000000398e+01
-5.506000000000000227e+01
-4.399000000000000199e+01
3.819999999999999840e+00
1.264000000000000057e+01
3.330000000000000071e+00
-1.680999999999999872e+01
-2.080000000000000071e+00
-1.580000000000000071e+00
-8.557999999999999829e+01
-2.310099999999999909e+02
2.195099999999999909e+02
1.167500000000000000e+02
3.627000000000000313e+01
-5.820000000000000284e+00
-2.562000000000000099e+01
2.260999999999999943e+01
-8.769999999999999574e+00
-2.042000000000000171e+01
5.128000000000000114e+01
4.639000000000000057e+01
-2.980000000000000071e+01
-3.886999999999999744e+01
4.368999999999999773e+01
5.149000000000000199e+01
-8.243999999999999773e+01
-2.621999999999999886e+01
-5.169999999999999929e+00
4.536999999999999744e+01
6.250000000000000000e+00
-7.900000000000000355e-01
1.951000000000000156e+01
1.076999999999999957e+01
7.929999999999999716e+00
-1.401999999999999957e+01
6.019999999999999574e+00
-1.503999999999999915e+01
1.030000000000000027e+00
5.219999999999999751e+00
-1.896000000000000085e+01
-2.691000000000000014e+01
4.846999999999999886e+01
5.324000000000000199e+01
-2.317000000000000171e+01
1.574000000000000021e+01
6.139999999999999680e+00
-6.456999999999999318e+01
1.821000000000000085e+01
3.817999999999999972e+01
1.805000000000000071e+01
-2.390000000000000124e+00
-2.879999999999999893e+00
-2.992000000000000171e+01
1.265000000000000036e+01
7.769999999999999574e+00
2.907999999999999829e+01
1.447000000000000064e+01
-1.535999999999999943e+01
-3.622999999999999687e+01
-1.158000000000000007e+01
-2.191000000000000014e+01
1.726999999999999957e+01
1.063100000000000023e+02
-1.400999999999999979e+01
-8.157999999999999829e+01
8.726000000000000512e+01
9.339999999999999858e+00
-1.121000000000000085e+01
5.843999999999999773e+01
-3.378999999999999915e+01
4.917999999999999972e+01
2.008999999999999986e+01
1.530000000000000071e+01
-5.875000000000000000e+01
6.492000000000000171e+01
4.386999999999999744e+01
-6.228000000000000114e+01
-1.089000000000000057e+01
9.142000000000000171e+01
-2.907000000000000028e+01
3.996999999999999886e+01
-4.254999999999999716e+01
-9.209000000000000341e+01
1.036099999999999994e+02
5.117999999999999972e+01
-6.129999999999999893e+00
-1.258999999999999986e+01
1.422000000000000064e+01
-6.299999999999999822e+00
6.468000000000000682e+01
1.114200000000000017e+02
-1.104000000000000057e+02
-7.184999999999999432e+01
-7.849999999999999645e+00
-1.113000000000000078e+01
1.605999999999999872e+01
2.390000000000000124e+00
1.206000000000000050e+01
1.425999999999999979e+01
-4.610000000000000320e+00
-4.617999999999999972e+01
5.095000000000000284e+01
3.565999999999999659e+01
-1.780000000000000027e+00
-1.046000000000000085e+01
-1.879999999999999893e+00
-3.713000000000000256e+01
3.503999999999999915e+01
3.599000000000000199e+01
-2.314000000000000057e+01
-1.794000000000000128e+01
3.575999999999999801e+01
3.067000000000000171e+01
2.910000000000000142e+00
-2.026000000000000156e+01
-3.922999999999999687e+01
3.270000000000000284e+01
5.589999999999999858e+00
-2.687000000000000099e+01
7.070000000000000284e+00
2.719999999999999929e+01
1.455000000000000071e+01
1.810000000000000142e+01
-3.003999999999999915e+01
-3.481000000000000227e+01
7.887999999999999545e+01
8.121999999999999886e+01
-6.140999999999999659e+01
-1.069699999999999989e+02
-6.770000000000000284e+01
1.698600000000000136e+02
-5.711999999999999744e+01
-1.830000000000000071e+01
1.738899999999999864e+02
-3.413000000000000256e+01
4.275999999999999801e+01
6.260000000000000142e+01
-5.507999999999999829e+01
-4.040999999999999659e+01
2.073999999999999844e+01
-1.932999999999999829e+01
1.282899999999999920e+02
-8.520000000000000284e+01
-1.123599999999999994e+02
1.897500000000000000e+02
-1.719999999999999973e+00
-2.456100000000000136e+02
9.804000000000000625e+01
-1.746000000000000085e+01
8.009999999999999787e+00
-1.057000000000000028e+01
8.619999999999999218e+00
-5.675000000000000000e+01
3.861999999999999744e+01
2.645500000000000114e+02
-1.895999999999999943e+02
2.892999999999999972e+01
-3.123999999999999844e+01
-2.189000000000000057e+01
4.193999999999999773e+01
-3.356000000000000227e+01
-1.096599999999999966e+02
4.035000000000000142e+01
9.550000000000000000e+01
-2.423999999999999844e+01
2.021000000000000085e+01
8.359999999999999432e+00
2.135999999999999943e+01
3.577000000000000313e+01
-1.086200000000000045e+02
-9.195999999999999375e+01
6.089999999999999858e+01
8.179000000000000625e+01
-9.942000000000000171e+01
6.429999999999999716e+01
-8.812000000000000455e+01
3.064999999999999858e+01
4.542000000000000171e+01
-5.009999999999999787e+00
-1.751000000000000156e+01
2.850000000000000089e+00
-5.161999999999999744e+01
5.450999999999999801e+01
-4.381000000000000227e+01
-4.653999999999999915e+01
-3.089999999999999858e+01
-5.967999999999999972e+01
-7.280000000000000249e+00
1.222000000000000064e+01
2.355999999999999872e+01
3.003000000000000114e+01
1.076999999999999957e+01
1.857999999999999829e+01
1.518999999999999950e+01
-5.156000000000000227e+01
1.341999999999999993e+01
-1.655999999999999872e+01
-2.601000000000000156e+01
7.240000000000000213e+00
4.057000000000000028e+01
-6.804999999999999716e+01
3.238000000000000256e+01
3.831000000000000227e+01
6.296999999999999886e+01
-2.782999999999999829e+01
-1.465300000000000011e+02
-2.012999999999999901e+01
3.839999999999999858e+00
-7.990000000000000213e+00
-1.676000000000000156e+01
1.733999999999999986e+01
-1.110000000000000098e+00
-2.301999999999999957e+01
1.987999999999999901e+01
1.515000000000000036e+01
-6.660000000000000142e+00
-2.207999999999999829e+01
3.649999999999999911e+00
-2.335999999999999943e+01
1.139000000000000057e+01
1.027999999999999936e+01
-2.932999999999999829e+01
9.919999999999999929e+00
1.578999999999999915e+01
2.305999999999999872e+01
5.497999999999999687e+01
-4.107000000000000028e+01
-5.196000000000000085e+01
1.466000000000000014e+01
1.962000000000000099e+01
-1.177999999999999936e+01
1.748000000000000043e+01
1.612999999999999901e+01
-3.981000000000000227e+01
8.929999999999999716e+00
3.307000000000000028e+01
2.435000000000000142e+01
1.131000000000000050e+01
-7.820000000000000284e+00
1.705999999999999872e+01
-7.587999999999999545e+01
9.575000000000000000e+01
1.755999999999999872e+01
-1.494999999999999929e+01
1.419999999999999929e+01
-4.860000000000000142e+01
9.175000000000000000e+01
-4.882999999999999829e+01
-4.710000000000000142e+01
-8.534000000000000341e+01
4.139999999999999858e+01
7.479999999999999716e+01
-1.156000000000000050e+01
3.259000000000000341e+01
-1.855999999999999872e+01
-6.059000000000000341e+01
1.205000000000000071e+01
-7.269999999999999574e+00
2.517000000000000171e+01
1.807000000000000028e+01
-3.645000000000000284e+01
-4.203999999999999915e+01
2.726999999999999957e+01
-2.292000000000000171e+01
6.956999999999999318e+01
1.409000000000000057e+02
-2.103000000000000114e+01
-2.787999999999999901e+01
2.885000000000000142e+01
-1.135600000000000023e+02
-6.610000000000000320e+00
3.350000000000000000e+01
-8.987999999999999545e+01
7.595999999999999375e+01
-3.363000000000000256e+01
-1.728000000000000114e+01
-4.440000000000000391e+00
1.174000000000000021e+01
6.182000000000000028e+01
-3.571999999999999886e+01
3.035000000000000142e+01
-9.980000000000000426e+00
-3.686999999999999744e+01
5.471999999999999886e+01
-2.578000000000000114e+01
-2.696000000000000085e+01
3.584000000000000341e+01
8.919999999999999929e+00
-2.055999999999999872e+01
1.914000000000000057e+01
-1.275000000000000000e+01
-2.867999999999999972e+01
1.721000000000000085e+01
-8.619999999999999218e+00
-7.620000000000000107e+00
1.027999999999999936e+01
-8.800000000000000711e+00
-3.959999999999999964e+00
-4.259999999999999787e+00
3.877000000000000313e+01
9.499999999999999556e-01
-5.349999999999999645e+00
-1.601999999999999957e+01
-1.610000000000000098e+00
7.584000000000000341e+01
1.093999999999999950e+01
-4.860999999999999943e+01
-1.115000000000000036e+01
-5.209999999999999964e+00
1.560000000000000053e+00
1.471000000000000085e+01
9.939999999999999503e+00
-2.229999999999999982e+00
-1.409999999999999920e+00
-1.141000000000000014e+01
1.369999999999999929e+01
1.864000000000000057e+01
-8.080000000000000071e+00
-7.629999999999999893e+00
-1.573000000000000043e+01
2.335999999999999943e+01
4.488000000000000256e+01
2.716000000000000014e+01
-7.179999999999999716e+00
-1.283000000000000007e+01
-4.528000000000000114e+01
-7.648000000000000398e+01
9.539999999999999147e+00
3.160000000000000142e+00
3.571999999999999886e+01
-2.055999999999999872e+01
-5.620000000000000107e+00
-4.028000000000000114e+01
1.310699999999999932e+02
1.844000000000000128e+01
1.547000000000000064e+01
-4.142999999999999972e+01
1.603000000000000114e+01
-2.153000000000000114e+01
7.200000000000000178e+00
2.239000000000000057e+01
-1.605999999999999872e+01
-6.309999999999999609e+00
5.070000000000000284e+00
-3.796000000000000085e+01
5.250000000000000000e+00
6.214000000000000057e+01
-5.342000000000000171e+01
-5.030000000000000249e+00
-3.407000000000000028e+01
1.989999999999999991e+00
3.520000000000000018e+00
1.139000000000000057e+01
1.750000000000000000e+00
2.075000000000000000e+01
4.685999999999999943e+01
-7.915999999999999659e+01
1.183000000000000007e+01
-5.500000000000000000e+01
-2.712000000000000099e+01
1.219999999999999973e+00
7.523000000000000398e+01
-4.385999999999999943e+01
5.759999999999999787e+00
1.814999999999999858e+01
1.839999999999999858e+01
-6.311999999999999744e+01
-2.950000000000000178e+00
-4.950000000000000178e+00
-7.089999999999999858e+00
1.403999999999999915e+01
-4.120000000000000107e+00
-1.380000000000000071e+01
8.769999999999999574e+00
-1.459999999999999964e+00
-1.311999999999999922e+01
1.973000000000000043e+01
-1.741000000000000014e+01
-9.903000000000000114e+01
-1.514000000000000057e+01
7.215000000000000568e+01
-6.253000000000000114e+01
1.033400000000000034e+02
-4.010000000000000142e+01
-1.228999999999999915e+01
-2.250000000000000000e+01
-1.414000000000000057e+01
-5.014999999999999858e+01
4.217999999999999972e+01
1.056000000000000050e+01
1.121800000000000068e+02
4.509999999999999787e+00
-2.389000000000000057e+01
-1.024000000000000021e+01
1.660000000000000142e+01
8.859999999999999432e+00
-2.728000000000000114e+01
-1.167999999999999972e+01
-5.406000000000000227e+01
-7.834999999999999432e+01
1.478400000000000034e+02
1.538000000000000078e+01
5.769999999999999574e+00
1.778000000000000114e+01
2.848000000000000043e+01
-5.461999999999999744e+01
2.062999999999999901e+01
2.544000000000000128e+01
-2.569999999999999929e+01
-2.229999999999999982e+00
-1.167999999999999972e+01
1.828000000000000114e+01
1.300000000000000044e+00
1.373000000000000043e+01
5.450000000000000178e+00
-7.193999999999999773e+01
4.210000000000000142e+01
2.296999999999999886e+01
3.290999999999999659e+01
6.468999999999999773e+01
-5.592999999999999972e+01
1.474000000000000021e+01
-2.501999999999999957e+01
5.539999999999999858e+01
-1.844000000000000128e+01
-3.907000000000000028e+01
2.430000000000000071e+01
1.889999999999999902e+00
-1.882999999999999829e+01
-4.100999999999999801e+01
5.170000000000000284e+01
-4.809000000000000341e+01
-2.332000000000000028e+01
-7.299999999999999822e+00
-7.118999999999999773e+01
-3.452000000000000313e+01
-7.226000000000000512e+01
1.002199999999999989e+02
-6.310999999999999943e+01
-2.148999999999999844e+01
8.298999999999999488e+01
-1.782000000000000028e+01
-4.285999999999999943e+01
-6.981999999999999318e+01
-2.746999999999999886e+01
2.991000000000000014e+01
3.502000000000000313e+01
-6.557999999999999829e+01
5.696000000000000085e+01
-2.660000000000000142e+00
-4.207000000000000028e+01
-1.133999999999999986e+01
1.949999999999999956e+00
-1.399999999999999911e+00
-5.010000000000000142e+01
-8.885999999999999943e+01
-1.388400000000000034e+02
-1.177399999999999949e+02
-7.179000000000000625e+01
-1.150999999999999943e+02
-1.619999999999999929e+01
3.340999999999999659e+01
2.330000000000000071e+00
-4.849000000000000199e+01
-1.142999999999999972e+01
-1.475999999999999979e+01
-2.025000000000000000e+01
5.417000000000000171e+01
-4.660000000000000142e+00
-3.907999999999999829e+01
3.250000000000000000e+00
-3.217999999999999972e+01
-2.448999999999999844e+01
8.399999999999999689e-01
5.530000000000000249e+00
-3.062999999999999901e+01
3.521999999999999886e+01
-2.367999999999999972e+01
-3.339000000000000057e+01
2.160000000000000142e+01
2.080000000000000071e+00
-1.493999999999999950e+01
1.653999999999999915e+01
1.088000000000000078e+01
-4.320000000000000284e+00
-1.800000000000000044e+00
-2.178999999999999915e+01
-3.990999999999999659e+01
-8.830000000000000071e+00
1.313000000000000078e+01
-2.412999999999999901e+01
1.125999999999999979e+01
1.541000000000000014e+01
-2.212000000000000099e+01
1.817000000000000171e+01
1.186999999999999922e+01
-7.559999999999999609e+00
2.253000000000000114e+01
1.427999999999999936e+01
9.390000000000000568e+00
-2.175000000000000000e+01
-1.352999999999999936e+01
5.639999999999999680e+00
-6.504000000000000625e+01
3.839999999999999858e+01
7.073000000000000398e+01
4.424000000000000199e+01
9.318999999999999773e+01
-7.676000000000000512e+01
1.980000000000000071e+01
6.240999999999999659e+01
3.928000000000000114e+01
-7.448999999999999488e+01
-1.624900000000000091e+02
9.515000000000000568e+01
1.950000000000000000e+01
4.085999999999999943e+01
-3.827000000000000313e+01
-1.326999999999999957e+01
3.743999999999999773e+01
-2.412000000000000099e+01
-5.214000000000000057e+01
8.400000000000000355e+00
8.099999999999999645e+00
-1.419999999999999929e+00
1.198000000000000043e+01
1.258999999999999986e+01
-8.640000000000000568e+00
3.539999999999999858e+01
3.457000000000000028e+01
-3.110999999999999943e+01
-4.092000000000000171e+01
9.406000000000000227e+01
2.671000000000000085e+01
-9.420999999999999375e+01
-3.110999999999999943e+01
-3.317999999999999972e+01
1.073400000000000034e+02
-2.342000000000000171e+01
2.221999999999999886e+01
6.780000000000000249e+00
3.044999999999999929e+01
1.853000000000000114e+01
3.060000000000000142e+01
1.226999999999999957e+01
-5.285000000000000142e+01
-7.562000000000000455e+01
5.782999999999999829e+01
2.064000000000000057e+01
7.559999999999999432e+01
-3.742000000000000171e+01
1.333000000000000007e+01
8.080000000000000071e+00
-1.651999999999999957e+01
1.152999999999999936e+01
1.441999999999999993e+01
-1.216000000000000014e+01
3.540000000000000036e+00
3.399999999999999911e+00
-1.474000000000000021e+01
2.189000000000000057e+01
1.126999999999999957e+01
1.600000000000000033e-01
2.242999999999999972e+01
-1.807999999999999829e+01
7.830000000000000071e+00
-5.671000000000000085e+01
-4.464999999999999858e+01
2.299999999999999822e+00
-1.361999999999999922e+01
-6.200000000000000178e+00
-7.134000000000000341e+01
-3.761999999999999744e+01
-3.828000000000000114e+01
1.373199999999999932e+02
2.319999999999999929e+01
-3.420000000000000284e+01
5.184000000000000341e+01
6.709999999999999964e+00
-6.160000000000000142e+00
-9.900000000000000355e+00
3.119999999999999929e+01
-2.023999999999999844e+01
-3.670000000000000284e+01
1.750000000000000000e+00
1.353999999999999915e+01
-3.843999999999999773e+01
-4.195000000000000284e+01
2.473000000000000043e+01
-3.372999999999999687e+01
4.896999999999999886e+01
4.769999999999999574e+00
-1.444999999999999929e+01
9.089999999999999858e+00
1.081000000000000050e+01
7.589999999999999858e+00
4.277000000000000313e+01
-8.671999999999999886e+01
-5.411999999999999744e+01
5.080000000000000071e+00
7.080000000000000071e+00
5.699999999999999512e-01
-2.455999999999999872e+01
3.860000000000000142e+01
-7.150000000000000355e+00
-8.669999999999999929e+00
3.792999999999999972e+01
8.169999999999999929e+00
-2.637000000000000099e+01
1.581000000000000050e+01
9.539999999999999147e+00
-1.503999999999999915e+01
6.300000000000000044e-01
-1.130000000000000071e+01
-2.446999999999999886e+01
1.498000000000000043e+01
-2.417999999999999972e+01
7.230000000000000426e+00
1.100000000000000006e-01
-3.800000000000000044e-01
-1.457000000000000028e+01
1.937000000000000099e+01
-2.200000000000000011e-01
-2.371000000000000085e+01
1.083000000000000007e+01
-4.709999999999999964e+00
-2.033999999999999986e+01
3.465999999999999659e+01
2.196999999999999886e+01
-2.587000000000000099e+01
6.349999999999999645e+00
-9.899999999999999911e-01
-1.808999999999999986e+01
3.220000000000000284e+01
-3.400000000000000244e-01
-3.450999999999999801e+01
3.950000000000000178e+00
-6.349999999999999645e+00
-1.036999999999999922e+01
4.342000000000000171e+01
-3.250999999999999801e+01
-1.736500000000000057e+02
8.318000000000000682e+01
2.044000000000000128e+01
-2.551999999999999957e+01
3.859000000000000341e+01
9.160000000000000142e+00
3.236999999999999744e+01
1.671999999999999886e+01
4.513000000000000256e+01
6.360000000000000142e+01
-7.379999999999999893e+00
-7.643000000000000682e+01
-6.787999999999999545e+01
5.877000000000000313e+01
2.639999999999999858e+01
-6.487000000000000455e+01
1.433999999999999986e+01
1.017600000000000051e+02
-4.360999999999999943e+01
-2.453000000000000114e+01
-3.527000000000000313e+01
-4.402000000000000313e+01
1.214899999999999949e+02
-4.078000000000000114e+01
-5.647999999999999687e+01
1.515200000000000102e+02
-1.001999999999999957e+01
-1.089000000000000057e+02
4.546999999999999886e+01
3.850000000000000000e+01
-3.224000000000000199e+01
-5.103000000000000114e+01
1.410399999999999920e+02
6.039000000000000057e+01
2.729999999999999982e+00
-3.542999999999999972e+01
4.907999999999999829e+01
4.697999999999999687e+01
-2.164000000000000057e+01
-2.619000000000000128e+01
-9.250000000000000000e+00
1.378999999999999915e+01
3.128999999999999915e+01
1.241999999999999993e+01
-3.271999999999999886e+01
-2.123999999999999844e+01
-2.001000000000000156e+01
1.741000000000000014e+01
5.279999999999999716e+01
3.224000000000000199e+01
1.208000000000000007e+01
1.232000000000000028e+01
-4.699999999999999734e-01
6.790000000000000036e+00
-8.910000000000000142e+00
-1.959999999999999964e+00
1.366999999999999993e+01
-2.250000000000000000e+00
-3.430000000000000160e+00
1.033999999999999986e+01
-4.843999999999999773e+01
-2.405999999999999872e+01
2.289000000000000057e+01
-4.624000000000000199e+01
-4.699999999999999734e-01
3.647999999999999687e+01
1.393999999999999950e+01
-9.035999999999999943e+01
5.014000000000000057e+01
3.092999999999999972e+01
-4.828000000000000114e+01
-1.060000000000000053e+00
7.780000000000000249e+00
3.420000000000000284e+01
-1.914999999999999858e+01
1.063000000000000078e+01
1.830999999999999872e+01
-7.639999999999999680e+00
-3.140000000000000124e+00
1.929999999999999938e+00
1.124000000000000021e+01
7.370000000000000107e+00
-1.551999999999999957e+01
1.741000000000000014e+01
-4.240000000000000213e+00
-1.991000000000000014e+01
1.002999999999999936e+01
-1.328999999999999915e+01
-3.857999999999999829e+01
-2.080000000000000071e+00
4.092000000000000171e+01
-4.767999999999999972e+01
-1.349000000000000021e+01
-2.592000000000000171e+01
3.189999999999999858e+01
3.895000000000000284e+01
-3.620000000000000107e+00
-4.339999999999999858e+01
-9.980000000000000426e+00
-3.753000000000000114e+01
1.430900000000000034e+02
-9.390000000000000568e+00
-3.509999999999999787e+00
-3.896000000000000085e+01
-9.529999999999999361e+00
-3.290000000000000036e+00
2.245999999999999943e+02
-2.739999999999999858e+01
-1.154200000000000017e+02
1.028900000000000006e+02
6.565999999999999659e+01
2.796999999999999886e+01
1.506000000000000050e+01
-5.913000000000000256e+01
4.517000000000000171e+01
-1.149000000000000021e+01
-6.470999999999999375e+01
-9.130000000000000782e+00
8.000000000000000444e-01
-4.150000000000000355e+00
2.242000000000000171e+01
8.099999999999999645e+00
-5.900000000000000355e+00
9.699999999999999734e-01
-5.568999999999999773e+01
-3.360000000000000142e+01
1.514499999999999886e+02
8.367000000000000171e+01
-2.035000000000000142e+01
-4.268999999999999773e+01
-6.998000000000000398e+01
-1.764300000000000068e+02
1.216500000000000057e+02
6.754000000000000625e+01
1.484999999999999964e+01
4.139000000000000057e+01
-3.107999999999999829e+01
1.257000000000000028e+01
4.386999999999999744e+01
3.600000000000000089e+00
-4.209999999999999964e+00
-3.246999999999999886e+01
-2.342000000000000171e+01
8.800000000000000711e+00
-8.710000000000000853e+00
1.500000000000000000e+00
8.554999999999999716e+01
-9.762999999999999545e+01
-8.634000000000000341e+01
7.210999999999999943e+01
9.926000000000000512e+01
-2.723999999999999844e+01
-2.396999999999999886e+01
-1.062399999999999949e+02
-1.711100000000000136e+02
1.184399999999999977e+02
1.312400000000000091e+02
-5.056000000000000227e+01
-2.498000000000000043e+01
-7.000000000000000666e-02
-7.370000000000000107e+00
4.599999999999999645e+00
7.709999999999999964e+00
5.790000000000000036e+00
2.319999999999999840e+00
-3.910000000000000142e+00
-4.031000000000000227e+01
2.619000000000000128e+01
-2.609999999999999876e+00
1.139000000000000057e+01
2.560999999999999943e+01
1.832000000000000028e+01
-6.660000000000000142e+00
-1.024000000000000021e+01
1.651999999999999957e+01
3.900000000000000133e-01
-2.810000000000000053e+00
-1.630999999999999872e+01
2.692000000000000171e+01
-2.987999999999999901e+01
2.029999999999999805e+00
1.129999999999999893e+00
-4.459999999999999964e+00
1.957999999999999829e+01
-8.570000000000000284e+00
-1.646000000000000085e+01
2.258999999999999986e+01
3.759999999999999787e+00
-5.917999999999999972e+01
-3.399999999999999911e+00
7.860000000000000320e+00
-4.679999999999999716e+00
-4.568999999999999773e+01
-6.695000000000000284e+01
5.809000000000000341e+01
1.350000000000000089e+00
3.852000000000000313e+01
1.392999999999999972e+01
-2.596000000000000085e+01
3.133999999999999986e+01
7.150000000000000355e+00
-2.080000000000000071e+01
2.080999999999999872e+01
1.157000000000000028e+01
-2.039000000000000057e+01
3.277000000000000313e+01
7.515999999999999659e+01
1.396000000000000085e+01
-1.871399999999999864e+02
3.604999999999999716e+01
3.500000000000000000e+01
3.040000000000000036e+00
1.506000000000000050e+01
6.719999999999999751e+00
-6.230000000000000426e+00
2.580999999999999872e+01
-1.408999999999999986e+01
-2.101999999999999957e+01
1.389999999999999902e+00
7.549999999999999822e+00
-5.925999999999999801e+01
1.433999999999999986e+01
8.699999999999999289e+00
-8.310000000000000497e+00
1.800000000000000044e+00
1.770000000000000018e+00
-1.858999999999999986e+01
3.060000000000000053e+00
5.040000000000000036e+00
-8.460000000000000853e+00
6.022999999999999687e+01
1.796999999999999886e+01
-2.525000000000000000e+01
-1.077199999999999989e+02
1.676999999999999957e+01
6.480000000000000426e+00
3.299000000000000199e+01
3.014999999999999858e+01
-1.601999999999999957e+01
5.150000000000000355e+00
1.794999999999999929e+01
-1.234999999999999964e+01
1.340000000000000036e+01
1.499999999999999944e-01
-3.378999999999999915e+01
-1.211700000000000017e+02
5.489000000000000057e+01
1.925000000000000000e+01
-1.218999999999999950e+01
1.490000000000000036e+01
-2.490000000000000213e+00
1.919999999999999929e+00
2.001000000000000156e+01
-9.179999999999999716e+00
-4.621999999999999886e+01
1.250000000000000000e+01
6.898999999999999488e+01
-1.660000000000000142e+01
1.644999999999999929e+01
-2.289999999999999858e+01
2.662000000000000099e+01
-5.780000000000000249e+00
-6.399000000000000199e+01
-3.117999999999999972e+01
1.469999999999999973e+00
1.051800000000000068e+02
-9.310000000000000497e+00
-1.530000000000000027e+00
-8.000000000000000444e-01
4.469999999999999751e+00
1.498000000000000043e+01
2.899999999999999800e-01
2.030999999999999872e+01
1.193999999999999950e+01
-9.369999999999999218e+00
7.339999999999999858e+00
2.810000000000000053e+00
-1.628999999999999915e+01
-8.679999999999999716e+00
2.491000000000000014e+01
-1.882000000000000028e+01
-1.801999999999999957e+01
-9.390000000000000568e+00
-1.826000000000000156e+01
1.240600000000000023e+02
1.383999999999999986e+01
3.800000000000000044e-01
-1.027999999999999936e+01
1.201999999999999957e+01
1.399000000000000021e+01
-6.010000000000000142e+01
2.303999999999999915e+01
1.006000000000000050e+01
-2.510999999999999943e+01
2.346999999999999886e+01
-5.269999999999999574e+00
-2.232999999999999829e+01
2.494000000000000128e+01
-1.568999999999999950e+01
-1.331000000000000050e+01
1.409999999999999964e+01
-1.551999999999999957e+01
-2.410999999999999943e+01
2.276000000000000156e+01
2.037999999999999901e+01
-6.172999999999999687e+01
3.137000000000000099e+01
-3.539000000000000057e+01
-1.842000000000000171e+01
4.396999999999999886e+01
-1.240000000000000036e+01
-2.864000000000000057e+01
1.748000000000000043e+01
9.400000000000000355e+00
-3.536999999999999744e+01
1.540000000000000036e+01
1.016000000000000014e+01
-2.325000000000000000e+01
-3.302000000000000313e+01
4.089000000000000057e+01
7.629999999999999893e+00
-3.636999999999999744e+01
3.257000000000000028e+01
-1.066000000000000014e+01
-4.410000000000000142e+00
-1.219999999999999929e+01
-5.600000000000000000e+01
1.664000000000000057e+01
3.173999999999999844e+01
-1.394999999999999929e+01
4.167999999999999972e+01
-2.675000000000000000e+01
5.478999999999999915e+01
8.140999999999999659e+01
-2.782999999999999829e+01
-1.249000000000000021e+01
2.914000000000000057e+01
-5.610000000000000320e+00
-3.140000000000000124e+00
6.700000000000000178e+00
-5.820000000000000284e+00
-4.560999999999999943e+01
1.619000000000000128e+01
-5.120000000000000107e+00
-3.135999999999999943e+01
2.500000000000000000e-01
-4.535999999999999943e+01
8.198000000000000398e+01
-4.799999999999999822e-01
-2.640000000000000124e+00
-2.220000000000000195e+00
1.619999999999999929e+01
-1.996000000000000085e+01
6.859000000000000341e+01
-5.065999999999999659e+01
1.561599999999999966e+02
-3.899000000000000199e+01
-7.171999999999999886e+01
2.394999999999999929e+01
-1.646999999999999886e+01
1.124000000000000021e+01
2.232000000000000028e+01
-3.507999999999999829e+01
5.111999999999999744e+01
-2.507999999999999829e+01
3.220000000000000195e+00
1.008999999999999986e+01
6.639999999999999680e+00
-1.957999999999999829e+01
3.109999999999999876e+00
2.310000000000000053e+00
1.120000000000000107e+00
-4.519999999999999574e+00
-1.211999999999999922e+01
3.117000000000000171e+01
-1.452100000000000080e+02
5.059000000000000341e+01
-5.642000000000000171e+01
-2.789000000000000057e+01
-2.601999999999999957e+01
9.126999999999999602e+01
4.392999999999999972e+01
-2.123000000000000043e+01
3.310999999999999943e+01
-5.295000000000000284e+01
-2.751999999999999957e+01
4.547999999999999687e+01
-1.248799999999999955e+02
1.742000000000000171e+01
-7.410999999999999943e+01
2.784100000000000250e+02
-1.519099999999999966e+02
-7.425000000000000000e+01
2.757000000000000028e+01
1.259500000000000028e+02
-1.217199999999999989e+02
9.062000000000000455e+01
-7.215999999999999659e+01
9.382999999999999829e+01
-1.566999999999999993e+01
-1.088000000000000078e+01
-4.250000000000000000e+00
-1.108000000000000007e+01
9.112000000000000455e+01
-1.637000000000000099e+01
-1.168199999999999932e+02
1.491000000000000014e+01
-1.919999999999999929e+00
8.804999999999999716e+01
-2.496000000000000085e+01
-6.692000000000000171e+01
3.747999999999999687e+01
-2.212000000000000099e+01
2.875000000000000000e+01
1.363199999999999932e+02
-1.692100000000000080e+02
-2.816000000000000014e+01
6.086999999999999744e+01
-3.528000000000000114e+01
-3.635000000000000142e+01
3.765999999999999659e+01
-2.860999999999999943e+01
4.039999999999999858e+01
-7.917000000000000171e+01
6.150000000000000000e+01
-5.257000000000000028e+01
1.577800000000000011e+02
-1.438400000000000034e+02
3.051000000000000156e+01
-3.788000000000000256e+01
8.218999999999999773e+01
3.453000000000000114e+01
-3.142999999999999972e+01
-4.031000000000000227e+01
1.550000000000000000e+01
6.790000000000000036e+00
-5.096999999999999886e+01
-7.719999999999999751e+00
-1.052000000000000028e+02
3.268999999999999773e+01
-2.160000000000000142e+00
1.027999999999999936e+01
-1.060300000000000011e+02
5.200000000000000178e+00
6.189000000000000057e+01
-2.160999999999999943e+01
-3.975000000000000000e+01
1.807599999999999909e+02
-8.529000000000000625e+01
9.085999999999999943e+01
1.767999999999999972e+01
-2.000200000000000102e+02
1.818400000000000034e+02
4.989000000000000057e+01
-8.921999999999999886e+01
7.684999999999999432e+01
-3.781000000000000227e+01
-8.480000000000000426e+00
1.946999999999999886e+01
-1.460399999999999920e+02
-8.050000000000000711e+00
8.220000000000000639e+00
-4.299999999999999822e+00
-2.889000000000000057e+01
-2.576999999999999957e+01
2.753999999999999915e+01
-2.614999999999999858e+01
-3.482000000000000028e+01
6.500000000000000000e+00
7.390000000000000568e+01
7.693000000000000682e+01
-5.047999999999999687e+01
-1.507899999999999920e+02
1.065300000000000011e+02
2.459999999999999964e+00
-9.289000000000000057e+01
-6.606999999999999318e+01
5.518999999999999773e+01
-4.889999999999999680e+00
-1.213199999999999932e+02
-2.787000000000000099e+01
4.839000000000000057e+01
-1.574399999999999977e+02
5.084000000000000341e+01
1.104800000000000040e+02
3.322999999999999687e+01
-1.882000000000000028e+01
1.452999999999999936e+01
4.982000000000000028e+01
7.134999999999999432e+01
6.629999999999999893e+00
-1.828899999999999864e+02
4.830000000000000071e+00
1.826000000000000156e+01
2.117999999999999972e+01
2.192999999999999972e+01
-3.151000000000000156e+01
-3.360000000000000142e+01
-2.629999999999999893e+00
-3.570000000000000284e+01
-8.070000000000000284e+00
-8.862999999999999545e+01
-1.994000000000000128e+01
3.128999999999999915e+01
1.992999999999999972e+01
-6.389000000000000057e+01
3.050000000000000000e+01
4.827000000000000313e+01
1.477999999999999936e+01
5.877000000000000313e+01
1.222300000000000040e+02
-1.050900000000000034e+02
3.148000000000000043e+01
-6.099999999999999645e+00
-5.925000000000000000e+01
5.954999999999999716e+01
6.815999999999999659e+01
-6.929999999999999716e+01
-1.216000000000000014e+01
3.489999999999999858e+01
-1.499000000000000021e+01
5.899999999999999689e-01
-6.406000000000000227e+01
1.373000000000000043e+01
-3.325000000000000000e+01
-1.110000000000000098e+00
-1.575900000000000034e+02
1.992999999999999972e+01
-7.250000000000000000e+00
5.282999999999999829e+01
-4.810000000000000142e+01
8.929999999999999716e+01
-4.568999999999999773e+01
-1.854799999999999898e+02
9.368999999999999773e+01
-5.900000000000000355e+00
1.028999999999999915e+01
-1.573000000000000043e+01
-2.833999999999999986e+01
-1.371000000000000085e+01
4.592999999999999972e+01
-1.971999999999999886e+01
-2.855999999999999872e+01
6.093999999999999773e+01
1.390000000000000036e+01
-5.484000000000000341e+01
3.715999999999999659e+01
1.476999999999999957e+01
2.437999999999999901e+01
8.571999999999999886e+01
-9.465000000000000568e+01
-1.252199999999999989e+02
1.910999999999999943e+01
2.305000000000000071e+01
-5.584000000000000341e+01
3.169999999999999929e+01
-2.651000000000000156e+01
-2.636100000000000136e+02
1.709399999999999977e+02
9.995000000000000284e+01
-2.423000000000000043e+01
2.908999999999999986e+01
3.485000000000000142e+01
-3.349000000000000199e+01
-3.132999999999999829e+01
-3.935000000000000142e+01
-2.605999999999999872e+01
7.840000000000000568e+01
7.503000000000000114e+01
-1.951999999999999886e+02
1.134500000000000028e+02
-4.389999999999999680e+00
-1.671899999999999977e+02
7.256999999999999318e+01
1.404300000000000068e+02
-5.235000000000000142e+01
-1.013799999999999955e+02
-6.668000000000000682e+01
-3.600000000000000089e+00
4.275999999999999801e+01
-6.371999999999999886e+01
2.019000000000000128e+01
4.700999999999999801e+01
-2.496999999999999886e+01
-7.250000000000000000e+00
-1.123000000000000043e+01
-1.516999999999999993e+01
-1.066400000000000006e+02
9.014000000000000057e+01
-2.228999999999999915e+01
-3.974000000000000199e+01
1.739600000000000080e+02
1.801000000000000156e+01
-2.274399999999999977e+02
-2.848000000000000043e+01
2.453999999999999915e+01
1.272000000000000064e+01
4.515999999999999659e+01
6.256000000000000227e+01
9.100000000000000311e-01
-1.409999999999999964e+01
5.793999999999999773e+01
-3.430000000000000160e+00
-3.542999999999999972e+01
-1.356200000000000045e+02
-2.335000000000000142e+01
2.487599999999999909e+02
6.025999999999999801e+01
9.557999999999999829e+01
-2.842999999999999972e+01
-1.524600000000000080e+02
-2.919999999999999929e+01
-1.121299999999999955e+02
1.226299999999999955e+02
3.509000000000000341e+01
-7.087999999999999545e+01
1.016400000000000006e+02
7.734999999999999432e+01
-1.405900000000000034e+02
-1.292400000000000091e+02
7.615999999999999659e+01
1.323199999999999932e+02
1.532299999999999898e+02
-1.714199999999999875e+02
-2.210800000000000125e+02
7.400000000000000000e+01
5.359000000000000341e+01
6.593000000000000682e+01
5.804999999999999716e+01
5.580000000000000071e+00
-5.195000000000000284e+01
-1.680000000000000071e+01
6.250000000000000000e+00
-1.333999999999999986e+01
9.506999999999999318e+01
-1.155000000000000071e+01
-6.926000000000000512e+01
1.032000000000000028e+01
5.440999999999999659e+01
1.389999999999999902e+00
2.628999999999999915e+01
1.559999999999999964e+01
9.717000000000000171e+01
-2.294999999999999929e+01
-1.613499999999999943e+02
1.703499999999999943e+02
1.633600000000000136e+02
-3.242000000000000171e+01
-1.315500000000000114e+02
-1.028599999999999994e+02
-2.650000000000000000e+02
-1.444799999999999898e+02
3.965799999999999841e+02
7.920000000000000284e+01
-2.384900000000000091e+02
-3.129300000000000068e+02
2.939800000000000182e+02
2.557599999999999909e+02
-1.008700000000000045e+02
-7.826999999999999602e+01
-1.529399999999999977e+02
1.565300000000000011e+02
1.055900000000000034e+02
-2.800600000000000023e+02
1.465800000000000125e+02
9.371999999999999886e+01
6.667000000000000171e+01
1.767599999999999909e+02
-4.924000000000000199e+01
-3.776399999999999864e+02
-5.995000000000000284e+01
1.097600000000000051e+02
8.698000000000000398e+01
-1.944000000000000128e+01
5.010000000000000142e+01
8.160000000000000142e+00
-2.300000000000000100e-01
-9.259000000000000341e+01
-4.820000000000000284e+01
6.004999999999999716e+01
3.892000000000000171e+01
2.887799999999999727e+02
-9.254000000000000625e+01
-5.003999999999999915e+01
6.292000000000000171e+01
-1.904300000000000068e+02
6.540000000000000036e+00
2.846000000000000085e+01
2.887999999999999901e+01
-3.817000000000000171e+01
-1.219999999999999929e+01
2.851000000000000156e+01
-3.496000000000000085e+01
6.240000000000000213e+00
1.042900000000000063e+02
-2.169999999999999929e+00
-5.652000000000000313e+01
-1.419999999999999929e+01
-2.085999999999999943e+01
1.333000000000000007e+01
7.759000000000000341e+01
-1.542800000000000011e+02
1.715500000000000114e+02
1.398899999999999864e+02
-2.023300000000000125e+02
-7.981999999999999318e+01
6.456999999999999318e+01
-3.665999999999999659e+01
2.339000000000000057e+01
1.583999999999999986e+01
2.637000000000000099e+01
-3.802000000000000313e+01
1.096299999999999955e+02
2.892999999999999972e+01
-5.800000000000000000e+01
4.311999999999999744e+01
6.235999999999999943e+01
-1.554300000000000068e+02
-3.153000000000000114e+01
5.503999999999999915e+01
-7.351000000000000512e+01
9.176999999999999602e+01
4.602000000000000313e+01
8.578000000000000114e+01
-1.601599999999999966e+02
-8.206999999999999318e+01
5.582999999999999829e+01
6.737999999999999545e+01
5.157000000000000028e+01
-1.705999999999999872e+01
4.240000000000000213e+00
1.010999999999999943e+01
1.450000000000000000e+01
-6.600000000000000311e-01
-7.015999999999999659e+01
-7.195999999999999375e+01
6.193999999999999773e+01
9.269999999999999574e+00
4.397999999999999687e+01
-3.564000000000000057e+01
-3.475000000000000000e+01
5.329999999999999716e+01
4.450999999999999801e+01
-1.220999999999999943e+02
-4.624000000000000199e+01
-1.712000000000000099e+01
-9.337999999999999545e+01
5.257999999999999829e+01
9.631999999999999318e+01
-2.701000000000000156e+01
9.284999999999999432e+01
-2.119000000000000128e+01
-3.777000000000000313e+01
-1.270000000000000018e+00
-8.599999999999999645e+00
-4.714000000000000057e+01
1.126999999999999957e+01
-2.135000000000000142e+01
-9.884000000000000341e+01
5.989999999999999858e+01
3.039999999999999858e+01
4.734000000000000341e+01
2.914999999999999858e+01
5.110000000000000320e+00
-4.979999999999999716e+01
3.214000000000000057e+01
1.166000000000000014e+01
-2.755000000000000071e+01
2.919999999999999929e+00
2.703999999999999915e+01
3.109999999999999876e+00
-6.990000000000000213e+00
-3.023999999999999844e+01
-2.473999999999999844e+01
3.518999999999999773e+01
2.521000000000000085e+01
1.103999999999999915e+01
-7.820000000000000284e+00
8.615999999999999659e+01
1.733999999999999986e+01
-1.135000000000000000e+02
5.710000000000000142e+01
-6.623000000000000398e+01
-1.300000000000000044e+00
-1.050000000000000000e+01
-3.279999999999999805e+00
-9.531000000000000227e+01
-8.062999999999999545e+01
4.475999999999999801e+01
-1.533000000000000007e+01
-1.046700000000000017e+02
4.615999999999999659e+01
2.551000000000000156e+01
5.367999999999999972e+01
8.429999999999999716e+01
-1.257699999999999960e+02
-7.203000000000000114e+01
1.158700000000000045e+02
2.300000000000000000e+01
1.760999999999999943e+01
2.835000000000000142e+01
-2.962000000000000099e+01
3.542000000000000171e+01
-6.179999999999999716e+00
-2.544999999999999929e+01
8.900000000000000355e+00
-2.489999999999999858e+01
6.150000000000000355e+00
1.280099999999999909e+02
6.565999999999999659e+01
-1.087500000000000000e+02
-4.759999999999999787e+00
-1.576999999999999957e+01
-8.431999999999999318e+01
-3.677000000000000313e+01
-4.639999999999999680e+00
1.456999999999999886e+02
-6.643999999999999773e+01
4.896000000000000085e+01
-3.388000000000000256e+01
1.828000000000000114e+01
-5.439999999999999858e+01
-5.059000000000000341e+01
2.227599999999999909e+02
-1.469999999999999929e+01
-1.164599999999999937e+02
-6.893000000000000682e+01
1.276599999999999966e+02
-1.962999999999999901e+01
-1.475999999999999979e+01
-5.864000000000000057e+01
-4.174000000000000199e+01
4.492999999999999972e+01
2.510000000000000142e+01
-2.578999999999999915e+01
2.219000000000000128e+01
1.549000000000000021e+01
-8.080000000000000071e+00
2.155000000000000071e+01
1.560000000000000053e+00
-1.791000000000000014e+01
1.762000000000000099e+01
-3.450000000000000178e+00
-1.416999999999999993e+01
1.710000000000000142e+01
-1.560000000000000053e+00
2.999999999999999889e-01
6.509999999999999787e+00
-9.220000000000000639e+00
-4.599999999999999645e+00
2.009999999999999787e+00
-1.935999999999999943e+01
1.194999999999999929e+01
-3.259999999999999787e+00
-4.114000000000000057e+01
5.280000000000000249e+00
2.569000000000000128e+01
-3.160000000000000142e+01
3.800999999999999801e+01
-2.290000000000000036e+00
-3.245000000000000284e+01
-2.009999999999999787e+00
2.959999999999999964e+00
4.250699999999999932e+02
-2.163899999999999864e+02
-9.506000000000000227e+01
6.835999999999999943e+01
3.112999999999999901e+01
-2.942999999999999972e+01
-4.200999999999999801e+01
9.098999999999999488e+01
2.783299999999999841e+02
-1.621599999999999966e+02
-6.364999999999999858e+01
-6.103000000000000114e+01
-1.798700000000000045e+02
4.518999999999999773e+01
1.609699999999999989e+02
1.848999999999999844e+01
9.487999999999999545e+01
-4.084900000000000091e+02
-2.021000000000000085e+01
5.322000000000000455e+02
-2.998600000000000136e+02
6.551000000000000512e+01
-6.767000000000000171e+01
7.618999999999999773e+01
-3.771000000000000085e+01
-9.130000000000000782e+00
3.169999999999999929e+00
6.650000000000000355e+00
3.569999999999999840e+00
1.040000000000000036e+00
-1.382000000000000028e+01
-5.561999999999999744e+01
5.078999999999999915e+01
-9.329999999999999716e+01
1.797100000000000080e+02
