1.587298286000000000e+09
-2.999999999999999889e-02
5.059999999999999609e+00
1.791000000000000014e+01
7.934000000000000341e+01
2.282500000000000000e+02
-4.865000000000000000e+02
-5.900000000000000355e+00
1.561500000000000057e+02
4.678000000000000114e+01
4.049999999999999822e+00
1.600000000000000033e-01
8.199999999999999512e-01
3.560000000000000053e+00
1.411999999999999922e+01
1.480000000000000071e+01
-1.434999999999999964e+01
1.982000000000000028e+01
8.050000000000000000e+01
1.371500000000000057e+02
-9.278000000000000114e+01
-3.181399999999999864e+02
-4.675000000000000000e+01
6.419999999999999929e+00
1.044800000000000040e+02
-6.929999999999999716e+00
7.167000000000000171e+01
4.731000000000000227e+01
-4.104999999999999716e+01
8.198999999999999488e+01
3.643999999999999773e+01
-1.019500000000000028e+02
2.142000000000000171e+01
-3.117000000000000171e+01
-4.315999999999999659e+01
4.543999999999999773e+01
-4.490000000000000213e+00
5.789999999999999858e+01
-1.699999999999999956e+00
-1.032000000000000028e+01
-6.019999999999999574e+00
2.899999999999999911e+00
4.188000000000000256e+01
-5.814000000000000057e+01
1.767999999999999972e+01
2.035000000000000142e+01
-1.031899999999999977e+02
7.373000000000000398e+01
1.560000000000000053e+00
-2.501999999999999957e+01
3.381000000000000227e+01
-7.025000000000000000e+01
5.127000000000000313e+01
4.220000000000000284e+01
-7.370999999999999375e+01
3.517999999999999972e+01
-1.132099999999999937e+02
1.192399999999999949e+02
-2.794999999999999929e+01
1.137300000000000040e+02
2.176100000000000136e+02
-5.437599999999999909e+02
2.962999999999999901e+01
1.649399999999999977e+02
-4.274100000000000250e+02
-3.606000000000000227e+01
-2.333999999999999986e+01
-2.313899999999999864e+02
3.566399999999999864e+02
1.662899999999999920e+02
-1.870000000000000107e+00
-9.801999999999999602e+01
-8.137000000000000455e+01
4.707799999999999727e+02
-3.427599999999999909e+02
4.521999999999999886e+01
9.040999999999999659e+01
-1.166899999999999977e+02
1.411699999999999875e+02
8.676999999999999602e+01
-8.240000000000000213e+00
1.593199999999999932e+02
-4.379900000000000091e+02
1.897700000000000102e+02
-1.207699999999999960e+02
9.009999999999999787e+00
-1.184000000000000057e+02
2.360399999999999920e+02
5.135999999999999943e+01
-4.121800000000000068e+02
-1.859399999999999977e+02
1.732800000000000011e+02
1.274699999999999989e+02
9.765999999999999659e+01
1.517100000000000080e+02
-1.838000000000000114e+02
-1.990000000000000000e+02
3.529300000000000068e+02
1.731299999999999955e+02
-2.166399999999999864e+02
-7.751000000000000512e+01
3.262699999999999818e+02
-1.681200000000000045e+02
2.003100000000000023e+02
-2.027899999999999920e+02
1.228999999999999915e+01
-6.995000000000000284e+01
-7.898999999999999488e+01
2.189999999999999858e+01
-8.651000000000000512e+01
2.898999999999999844e+01
1.537199999999999989e+02
9.887000000000000455e+01
4.482999999999999829e+01
-3.544700000000000273e+02
-1.505999999999999943e+02
2.060200000000000102e+02
3.095199999999999818e+02
-2.187500000000000000e+02
-3.221899999999999977e+02
1.902400000000000091e+02
1.097999999999999972e+02
1.513300000000000125e+02
-8.606000000000000227e+01
-1.791599999999999966e+02
-1.550000000000000044e+00
-6.070000000000000284e+01
-1.713499999999999943e+02
-5.252000000000000313e+01
-2.135099999999999909e+02
1.281800000000000068e+02
1.449799999999999898e+02
-4.485999999999999943e+01
1.213599999999999994e+02
6.804000000000000625e+01
-2.146500000000000057e+02
6.412000000000000455e+01
3.927000000000000313e+01
1.705099999999999909e+02
-1.559300000000000068e+02
2.848999999999999773e+02
7.721999999999999886e+01
-8.278000000000000114e+01
-2.063100000000000023e+02
-3.654300000000000068e+02
1.401699999999999875e+02
8.339999999999999858e+00
5.134000000000000341e+01
1.295200000000000102e+02
-1.463700000000000045e+02
-2.183999999999999986e+01
1.092199999999999989e+02
-2.116599999999999966e+02
3.782000000000000028e+01
6.632999999999999829e+01
-4.392000000000000171e+01
-3.003000000000000114e+01
-4.489000000000000057e+01
8.090999999999999659e+01
2.693000000000000114e+02
-2.973999999999999844e+01
-1.298100000000000023e+02
-7.040000000000000568e+01
9.757999999999999829e+01
7.556999999999999318e+01
9.523999999999999488e+01
1.721999999999999886e+02
5.160000000000000142e+00
-7.581000000000000227e+01
1.432000000000000028e+01
-5.190000000000000391e+00
-2.610000000000000142e+01
1.860999999999999943e+01
-1.619999999999999929e+01
-2.112000000000000099e+01
1.102999999999999936e+01
-2.891000000000000014e+01
9.000000000000000000e+00
1.325000000000000000e+01
-4.622999999999999687e+01
2.237000000000000099e+01
-3.919999999999999929e+00
-6.865000000000000568e+01
3.996000000000000085e+01
1.242999999999999972e+01
3.109999999999999876e+00
3.013000000000000114e+02
-8.948000000000000398e+01
-2.510999999999999943e+01
-4.775999999999999801e+01
-2.185999999999999943e+01
-1.866000000000000014e+01
1.945200000000000102e+02
-4.727000000000000313e+01
6.070000000000000284e+01
-6.177000000000000313e+01
9.480000000000000426e+00
-1.774099999999999966e+02
-3.296999999999999886e+02
2.496200000000000045e+02
3.444700000000000273e+02
4.052000000000000313e+01
-2.093000000000000114e+02
-2.311500000000000057e+02
1.414499999999999886e+02
-1.943000000000000114e+02
4.068999999999999773e+01
1.322100000000000080e+02
-1.637000000000000099e+01
-2.296999999999999886e+01
2.271000000000000085e+01
-2.716200000000000045e+02
7.562000000000000455e+01
-5.739000000000000057e+01
-4.125999999999999801e+01
-9.617000000000000171e+01
1.271299999999999955e+02
8.129000000000000625e+01
1.027999999999999936e+01
-1.753100000000000023e+02
2.171299999999999955e+02
2.012100000000000080e+02
1.563000000000000078e+01
-2.177400000000000091e+02
1.101200000000000045e+02
2.218700000000000045e+02
-3.134599999999999795e+02
1.923999999999999844e+01
6.789000000000000057e+01
-1.094999999999999929e+01
1.384999999999999964e+01
3.110000000000000142e+01
2.282500000000000000e+02
8.553000000000000114e+01
-2.991600000000000250e+02
5.292999999999999972e+01
2.586999999999999886e+02
-5.247999999999999687e+01
3.593999999999999773e+01
-1.347100000000000080e+02
-7.120000000000000284e+01
1.193999999999999950e+01
-1.338499999999999943e+02
4.139999999999999858e+01
-4.070000000000000284e+01
-9.340000000000000568e+01
1.189200000000000017e+02
-8.980000000000000426e+00
-7.565000000000000568e+01
-1.305099999999999909e+02
-3.685400000000000205e+02
-2.450000000000000000e+01
1.081700000000000017e+02
2.856200000000000045e+02
4.193299999999999841e+02
4.918999999999999773e+01
-1.640600000000000023e+02
8.001999999999999602e+01
-5.839999999999999858e+00
-7.946999999999999886e+01
1.190699999999999932e+02
1.764000000000000057e+01
-2.890600000000000023e+02
1.383899999999999864e+02
-7.259999999999999787e+00
7.387000000000000455e+01
1.446000000000000085e+01
-2.551000000000000156e+01
-3.529999999999999805e+00
-7.330000000000000071e+00
-6.242000000000000171e+01
-1.438600000000000136e+02
-2.193700000000000045e+02
-1.600000000000000000e+01
2.582699999999999818e+02
2.669700000000000273e+02
4.920000000000000000e+02
-1.624000000000000057e+02
-2.344000000000000057e+02
-1.958700000000000045e+02
3.150000000000000000e+01
-7.769999999999999574e+00
4.169999999999999929e+00
3.809000000000000341e+01
3.682000000000000028e+01
4.236999999999999744e+01
4.264000000000000057e+01
9.173000000000000398e+01
-1.912000000000000099e+01
-1.381200000000000045e+02
-9.382999999999999829e+01
5.399000000000000199e+01
-9.215000000000000568e+01
-4.360000000000000320e+00
1.313400000000000034e+02
-2.355999999999999872e+01
-2.805999999999999872e+01
-1.652299999999999898e+02
2.751999999999999957e+01
2.680000000000000071e+01
2.073000000000000043e+01
-2.226999999999999957e+01
-8.853000000000000114e+01
-5.968999999999999773e+01
-7.450000000000000178e+00
3.439999999999999947e+00
-7.787999999999999545e+01
2.064000000000000057e+01
1.077999999999999936e+01
-4.196000000000000085e+01
6.396999999999999886e+01
1.823999999999999844e+01
-1.998999999999999844e+01
2.644999999999999929e+01
-1.600000000000000089e+00
-4.714999999999999858e+01
5.070000000000000284e+01
3.103000000000000114e+01
-1.371000000000000085e+01
5.225000000000000000e+01
-2.253999999999999915e+01
-4.450999999999999801e+01
-1.780999999999999872e+01
-3.008799999999999955e+02
-1.230300000000000011e+02
-2.973999999999999844e+01
8.760999999999999943e+01
2.211699999999999875e+02
2.004499999999999886e+02
8.692000000000000171e+01
-4.307000000000000028e+01
9.943999999999999773e+01
2.969999999999999929e+01
-7.331999999999999318e+01
5.507999999999999829e+01
-9.200000000000000400e-01
-5.839000000000000057e+01
3.553999999999999915e+01
3.029999999999999805e+00
-4.720000000000000284e+01
3.037999999999999901e+01
-1.644000000000000128e+01
-3.253000000000000114e+01
2.725000000000000000e+01
-2.507000000000000028e+01
-6.799999999999999822e+00
1.978000000000000114e+01
-1.723000000000000043e+01
-9.490000000000000213e+00
-1.363000000000000078e+01
-5.307999999999999829e+01
5.232999999999999829e+01
5.080000000000000071e+00
-6.473999999999999488e+01
4.795000000000000284e+01
-2.750000000000000000e+00
-4.660000000000000142e+00
1.708400000000000034e+02
6.609000000000000341e+01
-1.554199999999999875e+02
-1.534499999999999886e+02
-1.041500000000000057e+02
-3.977000000000000313e+01
2.255000000000000071e+01
5.775000000000000000e+01
5.978000000000000114e+01
3.321999999999999886e+01
-8.529999999999999716e+01
1.465999999999999943e+02
2.740699999999999932e+02
-3.326399999999999864e+02
1.627800000000000011e+02
-1.595500000000000114e+02
1.534600000000000080e+02
7.046999999999999886e+01
4.067999999999999972e+01
-1.152900000000000063e+02
-7.551000000000000512e+01
4.828999999999999915e+01
6.300999999999999801e+01
-7.950000000000000178e+00
-9.859999999999999432e+00
1.273000000000000043e+01
-4.161999999999999744e+01
3.878000000000000114e+01
2.258999999999999986e+01
-4.952000000000000313e+01
4.875999999999999801e+01
1.188000000000000078e+01
-5.797999999999999687e+01
3.772999999999999687e+01
-8.299999999999999600e-01
-4.974000000000000199e+01
2.571999999999999886e+01
-1.801999999999999957e+01
7.700000000000000178e-01
1.792999999999999972e+01
-4.881000000000000227e+01
4.357000000000000028e+01
6.200000000000000178e+00
-5.974000000000000199e+01
5.032999999999999829e+01
-6.639999999999999680e+00
-1.441999999999999993e+01
3.245000000000000284e+01
-2.642999999999999972e+01
2.148999999999999844e+01
1.785000000000000142e+01
-5.197999999999999687e+01
4.439000000000000057e+01
-2.979999999999999982e+00
-3.707999999999999829e+01
2.830000000000000071e+01
7.203000000000000114e+01
6.192000000000000171e+01
1.353100000000000023e+02
-2.289000000000000057e+01
-5.972999999999999687e+01
-8.584000000000000341e+01
-5.261999999999999744e+01
2.026000000000000156e+01
-1.341000000000000014e+01
-3.610999999999999943e+01
2.510000000000000142e+01
-1.202999999999999936e+01
-2.112999999999999901e+01
1.676000000000000156e+01
-4.275999999999999801e+01
6.232000000000000028e+01
8.660000000000000142e+00
-6.453000000000000114e+01
-1.585999999999999943e+01
-5.565999999999999659e+01
-3.023999999999999844e+01
1.329900000000000091e+02
-2.567000000000000171e+01
5.510999999999999943e+01
-3.964999999999999858e+01
-1.213900000000000006e+02
-1.247900000000000063e+02
2.961299999999999955e+02
-2.160000000000000142e+00
7.159000000000000341e+01
-2.200000000000000011e-01
-1.132600000000000051e+02
-1.661299999999999955e+02
-3.169999999999999929e+01
1.551800000000000068e+02
1.557199999999999989e+02
-2.682000000000000028e+01
-9.320000000000000284e+00
-8.373999999999999488e+01
-8.651000000000000512e+01
-2.471999999999999886e+01
-6.487999999999999545e+01
5.886999999999999744e+01
1.305000000000000071e+01
-1.313499999999999943e+02
1.119399999999999977e+02
-2.792000000000000171e+01
-1.221700000000000017e+02
3.545000000000000284e+01
-6.965999999999999659e+01
7.103000000000000114e+01
1.486299999999999955e+02
3.225000000000000000e+01
1.805999999999999943e+02
-6.280000000000000249e+00
-1.104300000000000068e+02
-4.367000000000000171e+01
-3.650999999999999801e+01
-1.213799999999999955e+02
-1.894300000000000068e+02
2.530800000000000125e+02
-6.070000000000000284e+01
-1.366999999999999993e+01
-6.703000000000000114e+01
6.553000000000000114e+01
1.839000000000000057e+01
-2.993700000000000045e+02
1.152800000000000011e+02
7.365000000000000568e+01
4.607000000000000028e+01
9.143000000000000682e+01
9.232999999999999829e+01
-2.287000000000000099e+01
3.503000000000000114e+01
-8.995999999999999375e+01
-4.120000000000000284e+01
-2.587999999999999901e+01
-4.053000000000000114e+01
3.925999999999999801e+01
-3.379999999999999893e+00
-7.354999999999999716e+01
-4.467999999999999972e+01
7.919999999999999929e+00
1.866399999999999864e+02
2.433999999999999986e+01
-7.231999999999999318e+01
-6.639000000000000057e+01
-4.669999999999999929e+00
-1.096000000000000085e+01
7.700000000000000178e+00
4.370000000000000107e+00
-2.112000000000000099e+01
1.939999999999999947e+00
-4.347999999999999687e+01
-2.973999999999999844e+01
-3.087000000000000099e+01
-2.253799999999999955e+02
5.653999999999999915e+01
2.140900000000000034e+02
-6.959999999999999432e+01
2.520300000000000011e+02
1.325699999999999932e+02
-1.690399999999999920e+02
1.681800000000000068e+02
4.418999999999999773e+01
-9.181999999999999318e+01
1.603100000000000023e+02
3.144000000000000128e+01
-1.067699999999999960e+02
8.700000000000000000e+01
9.189999999999999503e+00
-9.017000000000000171e+01
7.448000000000000398e+01
9.349999999999999645e+00
-8.932999999999999829e+01
1.695399999999999920e+02
-6.059000000000000341e+01
-9.501000000000000512e+01
9.487000000000000455e+01
-4.350000000000000000e+01
-1.144500000000000028e+02
1.671999999999999886e+02
3.520000000000000018e+00
-1.050400000000000063e+02
1.007699999999999960e+02
4.929999999999999716e+01
-7.584000000000000341e+01
4.446999999999999886e+01
7.432999999999999829e+01
4.346999999999999886e+01
-4.292999999999999972e+01
-4.660000000000000142e+00
-7.082999999999999829e+01
-8.135999999999999943e+01
3.521000000000000085e+01
-1.558000000000000007e+01
-1.940900000000000034e+02
-7.093000000000000682e+01
1.306100000000000136e+02
6.607999999999999829e+01
3.487300000000000182e+02
-2.902400000000000091e+02
-1.205699999999999932e+02
3.914000000000000057e+01
-2.878999999999999915e+01
-2.226999999999999886e+02
1.424300000000000068e+02
1.070000000000000062e+00
-2.553000000000000114e+01
4.817000000000000171e+01
-2.908999999999999986e+01
1.525000000000000000e+01
4.622999999999999687e+01
-4.196999999999999886e+01
5.757000000000000028e+01
1.583999999999999986e+01
-6.856999999999999318e+01
5.074000000000000199e+01
-6.700000000000000400e-01
-2.987000000000000099e+01
1.385999999999999943e+01
-5.539000000000000057e+01
1.217999999999999972e+01
4.132999999999999829e+01
-6.849999999999999645e+00
4.099000000000000199e+01
5.753000000000000114e+01
-1.045799999999999983e+02
1.440000000000000036e+01
-6.459999999999999964e+00
-2.758999999999999986e+01
3.094999999999999929e+01
-3.164000000000000057e+01
4.882000000000000028e+01
9.699999999999999289e+00
-4.460000000000000142e+01
3.321999999999999886e+01
2.566000000000000014e+01
-6.146999999999999886e+01
4.428999999999999915e+01
7.500000000000000000e+00
-5.500000000000000000e+01
3.707999999999999829e+01
-2.217000000000000171e+01
-7.870000000000000107e+00
3.089999999999999858e+01
-3.782000000000000028e+01
4.106000000000000227e+01
2.337000000000000099e+01
-6.296999999999999886e+01
5.446999999999999886e+01
8.939999999999999503e+00
-6.378000000000000114e+01
4.917000000000000171e+01
-2.490000000000000213e+00
-5.585999999999999943e+01
3.395000000000000284e+01
-1.161999999999999922e+01
-8.000000000000000444e-01
1.541999999999999993e+01
-4.792999999999999972e+01
4.481000000000000227e+01
1.160999999999999943e+01
-7.529999999999999716e+01
6.404999999999999716e+01
-1.770000000000000018e+00
-4.990999999999999659e+01
4.707999999999999829e+01
-1.867000000000000171e+01
-1.055000000000000071e+01
3.130999999999999872e+01
-2.953999999999999915e+01
2.644000000000000128e+01
1.948999999999999844e+01
-4.018999999999999773e+01
4.081000000000000227e+01
1.125999999999999979e+01
-5.535000000000000142e+01
3.246999999999999886e+01
-2.244999999999999929e+01
-1.530000000000000027e+00
2.346000000000000085e+01
-5.229999999999999716e+01
6.465999999999999659e+01
1.271200000000000045e+02
-1.700300000000000011e+02
-6.320000000000000284e+00
3.939000000000000057e+01
-4.103999999999999915e+01
6.473999999999999488e+01
6.796999999999999886e+01
1.323199999999999932e+02
-2.788000000000000114e+02
-9.609999999999999432e+00
5.028999999999999915e+01
3.939999999999999858e+01
-4.525999999999999801e+01
7.034000000000000341e+01
7.009999999999999432e+01
1.102099999999999937e+02
1.184899999999999949e+02
-3.417000000000000171e+01
-2.259900000000000091e+02
-1.953199999999999932e+02
2.394999999999999929e+01
1.508000000000000114e+02
4.453999999999999915e+01
-3.126700000000000159e+02
1.012099999999999937e+02
-6.257999999999999829e+01
-2.136399999999999864e+02
8.417000000000000171e+01
2.508999999999999986e+01
-1.632599999999999909e+02
1.485099999999999909e+02
3.125600000000000023e+02
-2.850199999999999818e+02
1.948000000000000043e+01
1.550000000000000000e+01
2.680000000000000160e+00
1.022000000000000028e+02
1.194099999999999966e+02
-1.311500000000000057e+02
2.405999999999999872e+01
-4.289999999999999858e+01
1.111299999999999955e+02
6.773999999999999488e+01
-1.527899999999999920e+02
-2.771999999999999886e+01
-2.175000000000000000e+01
-1.032900000000000063e+02
5.321000000000000085e+01
-8.740000000000000213e+00
-4.782000000000000028e+01
4.517000000000000171e+01
-1.168100000000000023e+02
1.069999999999999929e+01
1.629999999999999893e+00
-1.018900000000000006e+02
1.021099999999999994e+02
1.603999999999999915e+01
-1.069000000000000057e+02
1.235400000000000063e+02
4.528000000000000114e+01
-1.206500000000000057e+02
1.487500000000000000e+02
1.080499999999999972e+02
-3.082400000000000091e+02
-2.340699999999999932e+02
1.834300000000000068e+02
2.689900000000000091e+02
2.610199999999999818e+02
-1.280399999999999920e+02
-1.687700000000000102e+02
2.379999999999999893e+00
5.950999999999999801e+01
7.903000000000000114e+01
-6.889999999999999680e+00
-5.184000000000000341e+01
-5.235000000000000142e+01
4.459999999999999964e+00
-6.089999999999999858e+00
-8.857999999999999829e+01
3.919999999999999929e+00
-2.629999999999999893e+00
1.070799999999999983e+02
-4.735000000000000142e+01
-1.796000000000000085e+01
-5.999999999999999778e-02
-2.316000000000000014e+01
4.174000000000000199e+01
-7.959000000000000341e+01
8.070000000000000284e+00
8.479999999999999716e+01
3.293999999999999773e+01
4.664999999999999858e+01
-1.514000000000000057e+01
-1.365200000000000102e+02
2.753000000000000114e+01
6.482999999999999829e+01
-2.505000000000000071e+01
3.570000000000000284e+01
-8.890000000000000568e+00
-4.000000000000000000e+00
2.039000000000000057e+01
-3.575000000000000000e+01
1.250999999999999979e+01
2.735999999999999943e+01
-1.937999999999999901e+01
1.125000000000000000e+01
-2.701000000000000156e+01
1.687999999999999901e+01
2.549999999999999822e+00
-4.946000000000000085e+01
-9.410999999999999943e+01
8.621999999999999886e+01
3.738000000000000256e+01
-8.823999999999999488e+01
-6.800000000000000488e-01
-1.117699999999999960e+02
1.009800000000000040e+02
1.040000000000000036e+00
1.875000000000000000e+01
1.696899999999999977e+02
5.427000000000000313e+01
2.355999999999999872e+01
-2.634300000000000068e+02
-7.289000000000000057e+01
9.960000000000000853e+00
3.868999999999999773e+01
1.775000000000000000e+01
3.685000000000000142e+01
-5.607000000000000028e+01
2.696999999999999886e+01
-5.956000000000000227e+01
2.594000000000000128e+01
6.418000000000000682e+01
-9.806000000000000227e+01
1.321299999999999955e+02
-6.878000000000000114e+01
-1.474399999999999977e+02
6.990000000000000568e+01
-3.515999999999999659e+01
-3.935000000000000142e+01
3.572999999999999687e+01
-5.760999999999999943e+01
3.116000000000000014e+01
7.889999999999999680e+00
-9.276000000000000512e+01
-3.739000000000000057e+01
-3.333500000000000227e+02
1.558499999999999943e+02
1.953100000000000023e+02
5.439999999999999858e+01
-7.732999999999999829e+01
2.671100000000000136e+02
4.457000000000000028e+01
5.392000000000000171e+01
1.368300000000000125e+02
-7.090999999999999659e+01
8.312000000000000455e+01
-2.600000000000000089e+00
-8.470999999999999375e+01
5.834000000000000341e+01
-7.830000000000000071e+00
-9.015000000000000568e+01
5.335000000000000142e+01
6.199999999999999956e-01
-7.687999999999999545e+01
4.859000000000000341e+01
1.466000000000000014e+01
-5.061999999999999744e+01
3.347999999999999687e+01
1.860999999999999943e+01
-3.997999999999999687e+01
7.349999999999999645e+00
3.300000000000000000e+01
9.509999999999999787e+00
-8.669999999999999929e+00
-2.300000000000000000e+01
-6.460999999999999943e+01
1.299000000000000021e+01
2.146999999999999886e+01
-4.047999999999999687e+01
3.881000000000000227e+01
1.261999999999999922e+01
-6.557999999999999829e+01
5.117999999999999972e+01
1.330000000000000071e+00
-5.260000000000000142e+01
4.578999999999999915e+01
-1.098000000000000043e+01
-2.544999999999999929e+01
4.239000000000000057e+01
-1.617000000000000171e+01
-2.132999999999999829e+01
3.853999999999999915e+01
-1.493999999999999950e+01
-2.948999999999999844e+01
3.151999999999999957e+01
-7.730000000000000426e+00
-4.864000000000000057e+01
2.535999999999999943e+01
-1.202999999999999936e+01
-2.614999999999999858e+01
3.257000000000000028e+01
-2.026000000000000156e+01
-2.567000000000000171e+01
2.721000000000000085e+01
-1.539000000000000057e+01
-2.092999999999999972e+01
2.810999999999999943e+01
-2.446000000000000085e+01
-3.677000000000000313e+01
2.460999999999999943e+01
-1.590000000000000036e+01
3.490000000000000213e+00
1.646000000000000085e+01
-3.525999999999999801e+01
2.064000000000000057e+01
7.898999999999999488e+01
-3.189999999999999858e+01
-9.200000000000000400e-01
1.211999999999999922e+01
-3.357999999999999829e+01
3.456000000000000227e+01
7.312999999999999545e+01
-3.574000000000000199e+01
1.639999999999999858e+01
9.099999999999999645e+00
-3.606000000000000227e+01
3.141000000000000014e+01
9.949999999999999289e+00
-5.638000000000000256e+01
1.996999999999999886e+01
3.430000000000000160e+00
-3.850999999999999801e+01
2.353000000000000114e+01
-1.393999999999999950e+01
-6.049999999999999822e+00
1.891000000000000014e+01
-2.096999999999999886e+01
1.194999999999999929e+01
1.414000000000000057e+01
-3.482999999999999829e+01
3.703999999999999915e+01
1.005000000000000071e+01
-4.915999999999999659e+01
3.795000000000000284e+01
-1.019999999999999929e+01
-2.742999999999999972e+01
3.638000000000000256e+01
-9.480000000000000426e+00
1.976000000000000156e+01
3.514000000000000057e+01
2.994999999999999929e+01
1.973400000000000034e+02
-8.231000000000000227e+01
-6.982999999999999829e+01
-1.527700000000000102e+02
-7.950000000000000178e+00
-5.267000000000000171e+01
7.864000000000000057e+01
6.715999999999999659e+01
2.537999999999999901e+01
-4.168999999999999773e+01
-8.195000000000000284e+01
1.265499999999999972e+02
-3.703999999999999915e+01
-9.325000000000000000e+01
1.416999999999999886e+02
-1.846999999999999886e+01
-1.101599999999999966e+02
1.534900000000000091e+02
3.892999999999999972e+01
9.349999999999999645e+00
-1.757999999999999829e+01
-6.032000000000000028e+01
-1.583700000000000045e+02
1.445800000000000125e+02
-3.105000000000000071e+01
-3.338000000000000256e+01
3.757000000000000028e+01
-1.015100000000000051e+02
-1.175600000000000023e+02
4.303999999999999915e+01
-8.609999999999999432e+01
1.401200000000000045e+02
-5.121000000000000085e+01
-2.154499999999999886e+02
1.055900000000000034e+02
1.245699999999999932e+02
-8.315000000000000568e+01
1.850300000000000011e+02
-2.901000000000000227e+02
-4.963000000000000256e+01
7.506000000000000227e+01
-9.765000000000000568e+01
1.488700000000000045e+02
1.446899999999999977e+02
-1.065100000000000051e+02
1.152199999999999989e+02
3.178000000000000114e+01
-1.271099999999999994e+02
9.514000000000000057e+01
4.195000000000000284e+01
-7.554999999999999716e+01
4.154999999999999716e+01
7.800000000000000000e+01
-6.017999999999999972e+01
-9.599999999999999645e+00
-5.595000000000000284e+01
-2.528000000000000114e+01
5.556000000000000227e+01
4.040000000000000036e+00
-3.235000000000000142e+01
9.539999999999999147e+00
-2.332000000000000028e+01
-1.040000000000000036e+00
6.209999999999999964e+00
-2.980000000000000071e+01
4.953999999999999915e+01
1.571999999999999886e+02
-1.636599999999999966e+02
2.313499999999999943e+02
-7.134999999999999432e+01
-6.754000000000000625e+01
-1.161999999999999922e+01
-1.094699999999999989e+02
-4.460999999999999943e+01
3.162999999999999901e+01
9.550000000000000711e+00
1.301999999999999957e+01
-2.475000000000000000e+01
-7.884000000000000341e+01
1.790000000000000036e+00
-1.776999999999999957e+01
-8.675000000000000000e+01
1.440300000000000011e+02
7.576999999999999602e+01
-5.171999999999999886e+01
4.639999999999999858e+01
1.341999999999999993e+01
-2.460999999999999943e+01
3.928000000000000114e+01
-8.820000000000000284e+00
2.410999999999999943e+01
1.842999999999999972e+01
-5.925000000000000000e+01
4.338000000000000256e+01
6.219999999999999751e+00
-4.642999999999999972e+01
3.950000000000000000e+01
-4.706000000000000227e+01
-2.905999999999999872e+01
9.321999999999999886e+01
-2.403000000000000114e+01
6.943000000000000682e+01
1.931100000000000136e+02
-1.976500000000000057e+02
-7.790999999999999659e+01
5.003999999999999915e+01
-2.091399999999999864e+02
1.758999999999999986e+01
1.374000000000000021e+01
8.160000000000000142e+00
1.378999999999999915e+01
-3.534000000000000341e+01
-1.330000000000000071e+00
7.259999999999999787e+00
-3.507000000000000028e+01
1.792999999999999972e+01
-1.141000000000000014e+01
-1.147000000000000064e+01
9.710000000000000853e+00
-2.551999999999999957e+01
1.789999999999999858e+01
-1.108999999999999986e+01
-6.546999999999999886e+01
2.700000000000000000e+01
-2.748999999999999844e+01
2.450000000000000000e+01
3.232999999999999829e+01
-5.853999999999999915e+01
6.236999999999999744e+01
1.169999999999999929e+01
-1.710000000000000142e+01
4.124000000000000199e+01
-1.651000000000000156e+01
3.967999999999999972e+01
2.771000000000000085e+01
-4.035999999999999943e+01
3.947999999999999687e+01
6.889999999999999680e+00
-4.750999999999999801e+01
2.135000000000000142e+01
-2.289000000000000057e+01
-1.111999999999999922e+01
1.885999999999999943e+01
-3.790999999999999659e+01
3.638000000000000256e+01
2.376999999999999957e+01
-6.160000000000000142e+01
5.290999999999999659e+01
2.401000000000000156e+01
-6.920000000000000284e+01
5.445000000000000284e+01
2.419000000000000128e+01
-5.942999999999999972e+01
5.225999999999999801e+01
2.860999999999999943e+01
-5.339000000000000057e+01
3.076000000000000156e+01
3.189000000000000057e+01
-5.013000000000000256e+01
5.257999999999999829e+01
1.989999999999999858e+01
-6.923999999999999488e+01
5.821000000000000085e+01
1.955000000000000071e+01
-6.771999999999999886e+01
5.399000000000000199e+01
1.558999999999999986e+01
-6.371000000000000085e+01
4.549000000000000199e+01
7.000000000000000000e+00
-4.902000000000000313e+01
6.332000000000000028e+01
7.884000000000000341e+01
-1.531100000000000136e+02
9.067000000000000171e+01
2.247299999999999898e+02
-1.290000000000000036e+00
-1.441500000000000057e+02
-8.321999999999999886e+01
-4.496999999999999886e+01
3.978000000000000114e+01
-3.527000000000000313e+01
1.456599999999999966e+02
-5.478999999999999915e+01
1.213400000000000034e+02
8.203000000000000114e+01
-6.987999999999999545e+01
-1.573000000000000043e+01
-5.900000000000000355e+00
-4.950999999999999801e+01
2.496000000000000085e+01
-1.327500000000000000e+02
1.562299999999999898e+02
7.510999999999999943e+01
-6.456000000000000227e+01
-1.403999999999999915e+01
3.123999999999999844e+01
1.406599999999999966e+02
-8.401999999999999602e+01
-1.388899999999999864e+02
1.479999999999999982e+00
-7.868000000000000682e+01
2.209499999999999886e+02
1.384699999999999989e+02
5.607999999999999829e+01
2.029799999999999898e+02
-3.532999999999999829e+01
-6.629999999999999893e+00
-6.503000000000000114e+01
-1.921299999999999955e+02
1.155499999999999972e+02
-5.031000000000000227e+01
-4.959000000000000341e+01
3.492999999999999972e+01
-5.614000000000000057e+01
4.788000000000000256e+01
9.789999999999999147e+00
-4.567999999999999972e+01
4.022999999999999687e+01
9.735999999999999943e+01
5.861999999999999744e+01
-1.914000000000000057e+01
-9.426000000000000512e+01
7.345000000000000284e+01
2.189999999999999947e+00
-7.634000000000000341e+01
1.441999999999999993e+01
5.492000000000000171e+01
2.516100000000000136e+02
5.411999999999999744e+01
-1.498100000000000023e+02
-1.159300000000000068e+02
-9.012000000000000455e+01
-9.884000000000000341e+01
-3.938000000000000256e+01
1.376699999999999875e+02
1.057900000000000063e+02
2.135000000000000142e+01
-6.693000000000000682e+01
3.203999999999999915e+01
-6.389999999999999680e+00
-2.129999999999999893e+00
3.439999999999999858e+01
-3.710000000000000142e+01
5.097999999999999687e+01
2.507999999999999829e+01
-4.857000000000000028e+01
4.806000000000000227e+01
-5.179999999999999716e+00
1.350000000000000089e+00
2.867000000000000171e+01
-2.308999999999999986e+01
3.135000000000000142e+01
1.907999999999999829e+01
-2.269999999999999929e+01
9.948999999999999488e+01
1.317199999999999989e+02
-1.514399999999999977e+02
-6.865999999999999659e+01
3.853000000000000114e+01
-8.631000000000000227e+01
-3.689000000000000057e+01
-6.634999999999999432e+01
7.604000000000000625e+01
4.956000000000000227e+01
-1.028700000000000045e+02
-7.187999999999999545e+01
-3.396000000000000085e+01
-7.256000000000000227e+01
1.648000000000000114e+02
-9.650000000000000355e+00
-6.854999999999999716e+01
2.298000000000000043e+01
-3.590999999999999659e+01
2.175000000000000000e+01
-1.958999999999999986e+01
-5.190999999999999659e+01
5.288000000000000256e+01
2.532999999999999829e+01
-2.357000000000000028e+01
9.890000000000000568e+00
-4.811999999999999744e+01
4.434000000000000341e+01
-4.489999999999999858e+01
-1.252800000000000011e+02
2.286999999999999886e+02
2.190000000000000000e+02
-1.856999999999999886e+02
-1.301800000000000068e+02
2.635500000000000114e+02
-5.746000000000000085e+01
-1.400000000000000000e+01
1.131000000000000050e+01
-2.082000000000000028e+01
4.982000000000000028e+01
-4.885999999999999943e+01
-1.756599999999999966e+02
-7.184000000000000341e+01
2.861499999999999773e+02
-1.848999999999999844e+01
-2.871000000000000085e+01
-6.131000000000000227e+01
-6.182000000000000028e+01
1.077699999999999960e+02
-2.914000000000000057e+01
-1.019000000000000057e+02
3.845000000000000284e+01
-5.278999999999999915e+01
-3.139499999999999886e+02
4.393999999999999773e+01
1.776200000000000045e+02
2.103100000000000023e+02
-2.435500000000000114e+02
-7.493999999999999773e+01
1.651500000000000057e+02
1.520699999999999932e+02
2.937000000000000099e+01
7.201999999999999602e+01
9.665999999999999659e+01
4.604999999999999716e+01
3.370000000000000107e+00
-3.378000000000000114e+01
-6.017999999999999972e+01
7.219999999999999751e+00
-2.419999999999999929e+00
-1.867000000000000171e+01
1.270000000000000018e+00
-2.028999999999999915e+01
7.549999999999999822e+00
5.780000000000000249e+00
-3.249000000000000199e+01
2.490000000000000213e+00
-1.689999999999999858e+01
-2.275000000000000000e+01
9.189999999999999503e+00
-1.737999999999999901e+01
6.089999999999999858e+00
9.269999999999999574e+00
-3.342000000000000171e+01
2.116000000000000014e+01
1.038000000000000078e+01
-2.148999999999999844e+01
7.276999999999999602e+01
1.352599999999999909e+02
-2.430099999999999909e+02
-1.215000000000000000e+02
1.575800000000000125e+02
-8.381999999999999318e+01
-7.651000000000000512e+01
1.648799999999999955e+02
-1.596599999999999966e+02
-1.033900000000000006e+02
3.740000000000000213e+00
3.171000000000000227e+02
1.064699999999999989e+02
-1.332400000000000091e+02
-2.256999999999999886e+02
1.292999999999999972e+01
-9.337999999999999545e+01
9.251000000000000512e+01
1.042199999999999989e+02
2.923999999999999844e+01
-5.759000000000000341e+01
6.134000000000000341e+01
-1.164000000000000057e+01
-1.445399999999999920e+02
4.339000000000000057e+01
7.909999999999999432e+01
-1.773999999999999844e+01
2.930000000000000071e+01
4.400000000000000022e-01
-2.117999999999999972e+01
2.130600000000000023e+02
3.828999999999999915e+01
-4.467999999999999972e+01
1.448300000000000125e+02
-6.589000000000000057e+01
-1.147000000000000028e+02
-3.547999999999999687e+01
-6.693000000000000682e+01
-6.236999999999999744e+01
4.419999999999999929e+00
-3.747999999999999687e+01
-2.253000000000000114e+01
-1.880999999999999872e+01
-2.912000000000000099e+01
1.402999999999999936e+01
1.035999999999999943e+01
-1.560999999999999943e+01
-3.046999999999999886e+01
-7.093999999999999773e+01
-1.603499999999999943e+02
2.541100000000000136e+02
9.593999999999999773e+01
-7.782999999999999829e+01
-6.740000000000000213e+00
4.400000000000000355e+00
-2.755999999999999872e+01
3.929999999999999716e+01
-2.800000000000000266e-01
-7.782999999999999829e+01
-1.258900000000000006e+02
4.243999999999999773e+01
5.571999999999999886e+01
3.724000000000000199e+01
2.605000000000000071e+01
2.066999999999999886e+02
-8.304000000000000625e+01
-8.075000000000000000e+01
6.667000000000000171e+01
-2.262000000000000099e+01
1.082500000000000000e+02
3.196000000000000085e+01
2.110000000000000142e+01
8.679999999999999716e+00
5.518999999999999773e+01
-1.742000000000000171e+01
6.215999999999999659e+01
8.869999999999999218e+00
-5.685999999999999943e+01
5.563000000000000256e+01
-1.179999999999999938e+00
2.629999999999999893e+00
5.664000000000000057e+01
2.164999999999999858e+01
1.296699999999999875e+02
1.484600000000000080e+02
-6.253999999999999915e+01
-1.434099999999999966e+02
-3.069000000000000128e+01
-4.450000000000000178e+00
-9.823000000000000398e+01
-6.787000000000000455e+01
3.632999999999999829e+01
-1.637000000000000099e+01
-6.385999999999999943e+01
2.323999999999999844e+01
-3.017000000000000171e+01
-5.995000000000000284e+01
2.126999999999999957e+01
-2.980000000000000071e+01
-4.590999999999999659e+01
2.682999999999999829e+01
-3.967999999999999972e+01
-2.282000000000000028e+01
1.691000000000000014e+01
-5.195000000000000284e+01
-8.620000000000000284e+01
-3.995000000000000284e+01
-1.389900000000000091e+02
-2.167000000000000171e+01
-2.273000000000000043e+01
1.384999999999999964e+01
1.965900000000000034e+02
8.949999999999999289e+00
1.590000000000000000e+02
-8.271999999999999886e+01
1.592400000000000091e+02
1.456599999999999966e+02
6.040299999999999727e+02
-6.085399999999999636e+02
-4.666200000000000045e+02
-6.595999999999999375e+01
7.769999999999999574e+00
1.564000000000000057e+01
-5.542999999999999972e+01
-8.000000000000000444e-01
1.787999999999999901e+01
2.130000000000000071e+01
-3.709000000000000341e+01
-2.523000000000000043e+01
-1.079399999999999977e+02
-8.984999999999999432e+01
6.937999999999999545e+01
1.412500000000000000e+02
-3.660000000000000142e+00
8.029999999999999716e+01
-1.190199999999999960e+02
-7.019999999999999574e+00
1.723000000000000043e+01
-2.500000000000000000e+00
-4.660000000000000142e+00
2.030000000000000071e+01
6.079999999999999716e+01
-4.679999999999999716e+00
3.692000000000000171e+01
3.370000000000000107e+00
-5.915999999999999659e+01
6.669999999999999929e+00
-4.909000000000000341e+01
-7.676999999999999602e+01
5.646999999999999886e+01
7.090999999999999659e+01
-8.849999999999999645e+00
-3.133999999999999986e+01
-6.346999999999999886e+01
5.124000000000000199e+01
-7.906000000000000227e+01
-6.906999999999999318e+01
-2.112999999999999901e+01
-8.181000000000000227e+01
1.420200000000000102e+02
1.936299999999999955e+02
-1.272199999999999989e+02
-9.468000000000000682e+01
-1.079699999999999989e+02
7.642000000000000171e+01
2.400000000000000000e+01
-1.239399999999999977e+02
7.746999999999999886e+01
-2.106800000000000068e+02
-1.146200000000000045e+02
2.399900000000000091e+02
1.093999999999999950e+01
-6.068999999999999773e+01
1.488600000000000136e+02
1.283600000000000136e+02
-5.230000000000000426e+00
-1.749900000000000091e+02
5.500999999999999801e+01
4.397999999999999687e+01
-9.490000000000000213e+00
-1.343300000000000125e+02
1.532700000000000102e+02
-1.632999999999999829e+01
6.451999999999999602e+01
-7.160000000000000142e+00
4.922999999999999687e+01
-7.089999999999999858e+00
-1.296000000000000085e+01
-5.815999999999999659e+01
4.392999999999999972e+01
1.703000000000000114e+01
-2.923000000000000043e+01
-4.085000000000000142e+01
-6.821999999999999886e+01
3.846999999999999886e+01
-2.360999999999999943e+01
4.982000000000000028e+01
1.228900000000000006e+02
-3.327000000000000313e+01
-3.977000000000000313e+01
-7.228000000000000114e+01
-1.006500000000000057e+02
6.292000000000000171e+01
2.740000000000000213e+00
-4.378999999999999915e+01
9.099999999999999645e+00
1.310999999999999943e+01
8.599999999999999645e+00
4.647999999999999687e+01
-1.078400000000000034e+02
-3.885999999999999943e+01
1.088199999999999932e+02
6.089999999999999858e+01
1.531800000000000068e+02
-5.810999999999999943e+01
-3.364999999999999858e+01
-3.400000000000000000e+01
-4.182999999999999829e+01
2.642999999999999972e+01
3.542000000000000171e+01
-6.067000000000000171e+01
6.628000000000000114e+01
1.233999999999999986e+01
-4.192999999999999972e+01
5.259000000000000341e+01
4.040000000000000036e+00
1.310999999999999943e+01
-1.045000000000000000e+02
-3.457000000000000028e+01
3.260000000000000142e+01
1.077399999999999949e+02
-4.257000000000000028e+01
3.867999999999999972e+01
-7.635999999999999943e+01
-6.551000000000000512e+01
1.985800000000000125e+02
-1.471899999999999977e+02
-7.299999999999999822e-01
-4.547999999999999687e+01
-4.067000000000000171e+01
-3.574000000000000199e+01
1.331200000000000045e+02
-7.693000000000000682e+01
1.100000000000000089e+00
-2.290800000000000125e+02
-8.320000000000000284e+01
3.421200000000000045e+02
-1.690300000000000011e+02
-2.996999999999999886e+01
4.935999999999999943e+01
1.333899999999999864e+02
3.669999999999999929e+00
-7.915000000000000568e+01
3.553999999999999915e+01
8.868999999999999773e+01
-7.151000000000000512e+01
-2.017000000000000171e+01
-1.233400000000000034e+02
-4.578999999999999915e+01
5.189000000000000057e+01
2.098000000000000043e+01
1.962999999999999901e+01
4.899000000000000199e+01
-5.403999999999999915e+01
-5.743999999999999773e+01
1.188000000000000078e+01
-4.435999999999999943e+01
2.976999999999999957e+01
-1.150999999999999979e+01
2.158999999999999986e+01
3.788000000000000256e+01
-3.531000000000000227e+01
4.028999999999999915e+01
7.339999999999999858e+00
-5.607000000000000028e+01
3.110000000000000142e+01
-3.669999999999999929e+00
-1.355000000000000071e+01
2.410000000000000142e+01
-2.303000000000000114e+01
4.525000000000000000e+01
7.868000000000000682e+01
1.199000000000000057e+02
1.466000000000000014e+01
4.870000000000000107e+00
-2.610000000000000142e+01
9.860999999999999943e+01
-3.712900000000000205e+02
5.799000000000000199e+01
1.174699999999999989e+02
5.354999999999999716e+01
2.821999999999999886e+01
-2.940000000000000000e+02
-1.185999999999999943e+02
4.138000000000000256e+01
1.996000000000000085e+01
1.378600000000000136e+02
-1.032500000000000000e+02
8.915000000000000568e+01
-2.282599999999999909e+02
9.281000000000000227e+01
6.107000000000000028e+01
-1.049800000000000040e+02
-6.809999999999999609e+00
1.755300000000000011e+02
2.658999999999999986e+01
1.029800000000000040e+02
7.818000000000000682e+01
-5.435999999999999943e+01
5.964000000000000057e+01
9.890000000000000568e+00
-7.159000000000000341e+01
5.767999999999999972e+01
-5.980000000000000426e+00
-7.564000000000000057e+01
5.028999999999999915e+01
-1.353999999999999915e+01
-4.056000000000000227e+01
3.571000000000000085e+01
-1.737999999999999901e+01
-1.061999999999999922e+01
2.119000000000000128e+01
-2.062000000000000099e+01
1.502999999999999936e+01
1.533000000000000007e+01
-3.110999999999999943e+01
1.660000000000000142e+01
9.400000000000000355e+00
-4.374000000000000199e+01
3.375000000000000000e+01
2.259999999999999787e+00
-6.153999999999999915e+01
2.980000000000000071e+01
-3.089999999999999858e+00
-3.882000000000000028e+01
2.875000000000000000e+01
-9.839999999999999858e+00
-1.468999999999999950e+01
1.167999999999999972e+01
-1.612999999999999901e+01
2.696999999999999886e+01
7.809999999999999609e+00
-5.028999999999999915e+01
3.418999999999999773e+01
1.610999999999999943e+01
-5.160999999999999943e+01
4.006000000000000227e+01
1.014000000000000057e+01
-4.292000000000000171e+01
2.951999999999999957e+01
5.469999999999999751e+00
-2.710000000000000142e+01
1.494999999999999929e+01
-1.196000000000000085e+01
-1.415000000000000036e+01
1.653999999999999915e+01
-1.349000000000000021e+01
9.150000000000000355e+00
2.483999999999999986e+01
-1.375999999999999979e+01
1.648000000000000043e+01
8.439999999999999503e+00
-3.042999999999999972e+01
8.367000000000000171e+01
9.725000000000000000e+01
-1.825300000000000011e+02
-1.309600000000000080e+02
2.825799999999999841e+02
-6.695000000000000284e+01
-6.057999999999999829e+01
-5.874000000000000199e+01
1.136700000000000017e+02
-3.782000000000000028e+01
-2.153199999999999932e+02
1.072199999999999989e+02
4.021999999999999886e+01
-3.417000000000000171e+01
-8.987000000000000455e+01
-1.729699999999999989e+02
-4.621999999999999886e+01
-5.250000000000000000e+00
-2.287000000000000099e+01
2.163499999999999943e+02
-2.049999999999999822e+00
-1.866399999999999864e+02
9.562999999999999545e+01
-1.953999999999999915e+01
-2.466999999999999886e+02
6.259000000000000341e+01
1.155600000000000023e+02
-1.119800000000000040e+02
5.632999999999999829e+01
2.160200000000000102e+02
-1.364199999999999875e+02
1.454300000000000068e+02
9.876999999999999602e+01
2.419999999999999929e+00
2.220000000000000000e+02
-5.178000000000000114e+01
2.050000000000000000e+02
-2.255000000000000071e+01
-2.152599999999999909e+02
9.359999999999999432e+01
4.957000000000000028e+01
-1.317500000000000000e+02
-1.123799999999999955e+02
-1.558999999999999986e+01
-3.520000000000000284e+01
-3.568999999999999773e+01
3.682000000000000028e+01
-7.526000000000000512e+01
-6.759000000000000341e+01
1.683999999999999986e+01
6.849999999999999645e+00
7.879999999999999893e+00
-8.699999999999999289e+00
-6.901999999999999602e+01
6.995999999999999375e+01
3.490000000000000213e+00
-1.190400000000000063e+02
-2.289499999999999886e+02
-7.343999999999999773e+01
-4.314000000000000057e+01
2.382299999999999898e+02
7.580800000000000409e+02
-4.179200000000000159e+02
-1.138599999999999994e+02
-5.032999999999999829e+01
2.305800000000000125e+02
1.667999999999999972e+01
-1.573199999999999932e+02
2.666000000000000014e+01
-1.343300000000000125e+02
1.038299999999999983e+02
1.361500000000000057e+02
2.973999999999999844e+01
1.876000000000000156e+01
-2.556200000000000045e+02
1.905999999999999872e+01
1.183100000000000023e+02
2.002400000000000091e+02
-5.595000000000000284e+01
-8.476999999999999602e+01
-1.234599999999999937e+02
-3.364499999999999886e+02
5.154999999999999716e+01
-3.946999999999999886e+01
-6.901000000000000512e+01
2.596499999999999773e+02
5.546000000000000085e+01
1.709999999999999964e+00
1.580000000000000071e+01
-3.599999999999999867e-01
6.737999999999999545e+01
1.061999999999999922e+01
-3.603000000000000114e+01
4.203999999999999915e+01
2.026000000000000156e+01
4.410000000000000142e+00
9.039999999999999147e+00
-2.935999999999999943e+01
-6.645000000000000284e+01
1.850000000000000000e+01
4.650000000000000355e+00
7.126000000000000512e+01
1.059099999999999966e+02
-2.991000000000000014e+01
-9.756999999999999318e+01
8.589999999999999858e+00
1.232500000000000000e+02
-9.751999999999999602e+01
-1.086099999999999994e+02
-1.615099999999999909e+02
7.514000000000000057e+01
-8.781999999999999318e+01
1.072099999999999937e+02
1.635200000000000102e+02
-2.187000000000000099e+01
-2.419000000000000128e+01
3.345000000000000284e+01
-1.365000000000000036e+01
5.652000000000000313e+01
9.296999999999999886e+01
1.849900000000000091e+02
-2.658399999999999750e+02
-1.250300000000000011e+02
1.064000000000000057e+01
1.601999999999999957e+01
-4.525000000000000000e+01
2.000000000000000000e+01
-1.939000000000000057e+01
-7.454000000000000625e+01
5.722999999999999687e+01
1.480000000000000071e+01
-4.910000000000000142e+01
5.054999999999999716e+01
-3.742999999999999972e+01
1.444999999999999929e+01
8.432999999999999829e+01
-5.664999999999999858e+01
-2.189999999999999947e+00
3.397999999999999687e+01
7.759999999999999787e+00
-3.198000000000000043e+01
-4.834000000000000341e+01
-1.685800000000000125e+02
1.088499999999999943e+02
4.649000000000000199e+01
-3.789999999999999858e+01
6.932999999999999829e+01
-1.080100000000000051e+02
5.724000000000000199e+01
-2.332999999999999829e+01
-2.554499999999999886e+02
-3.250000000000000000e+01
1.810200000000000102e+02
-4.089999999999999858e+01
1.323000000000000114e+02
-1.516999999999999993e+01
9.059000000000000341e+01
1.492599999999999909e+02
-2.269300000000000068e+02
-1.397000000000000064e+01
2.649900000000000091e+02
7.601000000000000512e+01
-8.120999999999999375e+01
3.338000000000000256e+01
-1.086999999999999922e+01
-7.975000000000000000e+01
4.771999999999999886e+01
2.023000000000000043e+01
7.900000000000000355e+00
-7.009999999999999787e+00
-4.185000000000000142e+01
-6.759000000000000341e+01
3.856000000000000227e+01
1.300000000000000044e+00
-4.471999999999999886e+01
2.478999999999999915e+01
-7.019999999999999574e+00
-3.650999999999999801e+01
2.205000000000000071e+01
-1.233000000000000007e+01
-2.716000000000000014e+01
2.148000000000000043e+01
-1.321000000000000085e+01
-2.210000000000000142e+01
2.207999999999999829e+01
-1.026999999999999957e+01
-1.314000000000000057e+01
4.242000000000000171e+01
6.799999999999999822e+00
-9.026999999999999602e+01
1.275499999999999972e+02
-7.814000000000000057e+01
2.555999999999999872e+01
6.363000000000000256e+01
-7.728000000000000114e+01
-1.205000000000000071e+01
4.025999999999999801e+01
-9.710000000000000853e+00
2.362999999999999901e+01
-2.996999999999999886e+01
2.720000000000000195e+00
2.394999999999999929e+01
-5.911999999999999744e+01
5.363000000000000256e+01
2.757999999999999829e+01
-6.128000000000000114e+01
6.581000000000000227e+01
2.078999999999999915e+01
-6.367000000000000171e+01
5.315999999999999659e+01
1.006000000000000050e+01
-6.081000000000000227e+01
4.456000000000000227e+01
8.490000000000000213e+00
-5.732000000000000028e+01
4.811999999999999744e+01
4.321999999999999886e+01
-1.122399999999999949e+02
5.446999999999999886e+01
1.538000000000000114e+02
-1.991000000000000014e+01
2.625000000000000000e+01
8.087999999999999545e+01
7.026000000000000512e+01
5.867999999999999972e+01
-7.548999999999999488e+01
-1.646200000000000045e+02
-4.425999999999999801e+01
-4.825000000000000000e+01
-5.253000000000000114e+01
1.474000000000000021e+01
-6.867000000000000171e+01
-5.331000000000000227e+01
5.935999999999999943e+01
-5.120000000000000284e+01
-9.051999999999999602e+01
1.058999999999999986e+01
9.489000000000000057e+01
3.050000000000000000e+01
3.066000000000000014e+01
-3.790999999999999659e+01
-2.241000000000000014e+01
-9.109999999999999432e+00
-5.375999999999999801e+01
6.290000000000000036e+00
-5.553000000000000114e+01
-2.152899999999999920e+02
9.535999999999999943e+01
2.467100000000000080e+02
-5.682000000000000028e+01
3.717000000000000171e+01
3.296999999999999886e+01
-6.948999999999999488e+01
6.459999999999999432e+01
3.359000000000000341e+01
-4.950000000000000000e+01
7.425000000000000000e+01
4.782000000000000028e+01
-3.782999999999999829e+01
1.168599999999999994e+02
3.033999999999999986e+01
-3.667999999999999972e+01
-3.200999999999999801e+01
-6.860000000000000320e+00
-6.701000000000000512e+01
2.571999999999999886e+01
-4.030000000000000249e+00
6.980000000000000426e+00
-1.949999999999999956e+00
-9.887000000000000455e+01
-3.428999999999999915e+01
4.803000000000000114e+01
-5.328000000000000114e+01
8.920999999999999375e+01
-5.000000000000000000e-01
-1.066400000000000006e+02
9.479000000000000625e+01
4.911999999999999744e+01
1.527999999999999936e+01
-3.520000000000000284e+01
-1.185300000000000011e+02
5.300999999999999801e+01
-2.343799999999999955e+02
1.638899999999999864e+02
1.564099999999999966e+02
-5.570000000000000284e+01
-2.346000000000000085e+01
2.257999999999999829e+01
-8.248999999999999488e+01
1.198199999999999932e+02
4.531000000000000227e+01
-1.572000000000000064e+01
4.889999999999999858e+01
6.570000000000000284e+01
-1.927100000000000080e+02
-2.585400000000000205e+02
3.440999999999999659e+01
-5.628999999999999915e+01
1.660900000000000034e+02
8.915499999999999545e+02
-4.095400000000000205e+02
-3.092099999999999795e+02
-2.523600000000000136e+02
-2.810000000000000142e+01
-6.767000000000000171e+01
-2.310000000000000142e+01
3.100000000000000000e+01
5.964000000000000057e+01
6.510999999999999943e+01
-2.678000000000000114e+01
3.267000000000000171e+01
1.078999999999999915e+01
-5.985000000000000142e+01
-5.582000000000000028e+01
-3.970000000000000195e+00
-7.262999999999999545e+01
-4.332000000000000028e+01
5.164000000000000057e+01
1.291999999999999993e+01
1.098000000000000043e+01
5.097999999999999687e+01
6.889999999999999680e+00
-1.161999999999999922e+01
-4.272999999999999687e+01
-1.379699999999999989e+02
7.243000000000000682e+01
5.521000000000000085e+01
-5.428999999999999915e+01
8.003000000000000114e+01
-1.491999999999999993e+01
-3.677000000000000313e+01
6.254999999999999716e+01
-2.189999999999999858e+01
1.701999999999999957e+01
5.296000000000000085e+01
-3.939999999999999858e+01
6.781999999999999318e+01
8.781999999999999318e+01
-7.076000000000000512e+01
8.692000000000000171e+01
1.964600000000000080e+02
-3.578399999999999750e+02
-6.075999999999999801e+01
1.499999999999999944e-01
-2.808100000000000023e+02
1.430900000000000034e+02
1.038199999999999932e+02
5.729999999999999716e+01
5.332999999999999829e+01
3.729999999999999716e+01
-1.435699999999999932e+02
-1.193700000000000045e+02
-5.840999999999999659e+01
2.298000000000000043e+01
-5.150999999999999801e+01
-9.353000000000000114e+01
2.011500000000000057e+02
4.645000000000000284e+01
-6.335999999999999943e+01
-5.071999999999999886e+01
-6.806999999999999318e+01
-6.117000000000000171e+01
8.601999999999999602e+01
3.653000000000000114e+01
-7.937999999999999545e+01
-1.689999999999999947e+00
6.839999999999999858e+00
-2.088300000000000125e+02
-1.789799999999999898e+02
-6.032999999999999829e+01
-2.000000000000000000e+00
1.037000000000000028e+02
1.566299999999999955e+02
1.416399999999999864e+02
7.942000000000000171e+01
5.899000000000000199e+01
-7.062999999999999545e+01
8.431000000000000227e+01
2.946999999999999886e+01
-2.823000000000000043e+01
6.265999999999999659e+01
-7.669999999999999929e+00
-1.223000000000000043e+01
4.413000000000000256e+01
-2.055000000000000071e+01
5.540000000000000036e+00
2.687999999999999901e+01
-3.007999999999999829e+01
-3.240000000000000213e+00
2.203999999999999915e+01
-2.844000000000000128e+01
8.800000000000000044e-01
1.723000000000000043e+01
-2.333999999999999986e+01
-4.240000000000000213e+00
1.491999999999999993e+01
-1.628999999999999915e+01
-8.449999999999999289e+00
6.199999999999999956e-01
-4.397999999999999687e+01
-1.819000000000000128e+01
1.039000000000000057e+01
2.485000000000000142e+01
1.696000000000000085e+01
-5.690000000000000391e+00
-3.689999999999999858e+01
4.679999999999999716e+00
8.359999999999999432e+00
-1.431000000000000050e+01
1.898000000000000043e+01
1.126299999999999955e+02
5.267000000000000171e+01
-1.875800000000000125e+02
5.563000000000000256e+01
8.787000000000000455e+01
-9.584000000000000341e+01
1.229899999999999949e+02
-1.026700000000000017e+02
1.133700000000000045e+02
-5.463000000000000256e+01
4.652000000000000313e+01
2.850000000000000089e+00
-4.021999999999999886e+01
6.365999999999999659e+01
2.755999999999999872e+01
7.642000000000000171e+01
-6.204999999999999716e+01
3.946999999999999886e+01
-8.795999999999999375e+01
2.757999999999999829e+01
-3.467000000000000171e+01
4.477000000000000313e+01
1.933999999999999986e+01
-4.525999999999999801e+01
-8.529999999999999361e+00
6.818999999999999773e+01
2.332999999999999829e+01
-2.016000000000000014e+01
1.118999999999999950e+01
9.169999999999999929e+00
-1.370000000000000107e+00
-2.951999999999999957e+01
-6.406000000000000227e+01
8.919999999999999929e+00
2.973000000000000043e+01
5.967000000000000171e+01
2.396699999999999875e+02
-7.696999999999999886e+01
-2.567799999999999727e+02
5.849000000000000199e+01
1.182000000000000028e+01
-9.967000000000000171e+01
3.546499999999999773e+02
6.479999999999999716e+01
-9.500000000000000000e+00
-1.156099999999999994e+02
-1.091299999999999955e+02
-1.978000000000000114e+01
-9.115000000000000568e+01
-1.565399999999999920e+02
1.505300000000000011e+02
-6.757999999999999829e+01
-9.440000000000000568e+01
-6.042999999999999972e+01
3.614999999999999858e+01
8.268999999999999773e+01
1.807500000000000000e+02
5.182999999999999829e+01
1.230100000000000051e+02
2.050000000000000000e+01
3.454999999999999716e+01
5.275999999999999801e+01
-2.823000000000000043e+01
5.282999999999999829e+01
2.633999999999999986e+01
-5.046000000000000085e+01
2.625000000000000000e+01
1.150000000000000000e+01
-4.121000000000000085e+01
3.062000000000000099e+01
3.829999999999999716e+01
1.216700000000000017e+02
-6.740999999999999659e+01
-1.995399999999999920e+02
-2.666000000000000014e+01
-1.454900000000000091e+02
-4.678999999999999915e+01
-6.598000000000000398e+01
7.700000000000000178e-01
-1.125000000000000000e+01
2.759999999999999787e+00
1.592999999999999972e+01
2.057000000000000028e+01
-9.619999999999999218e+00
1.296899999999999977e+02
-7.990000000000000568e+01
4.992000000000000171e+01
-2.544999999999999929e+01
3.080999999999999872e+01
6.269999999999999574e+00
-4.849000000000000199e+01
1.225000000000000000e+01
-1.583000000000000007e+01
-4.260000000000000142e+01
5.393999999999999773e+01
-2.178000000000000114e+01
-2.439999999999999947e+00
5.222999999999999687e+01
-3.162000000000000099e+01
4.961999999999999744e+01
3.415999999999999659e+01
-5.997999999999999687e+01
6.053999999999999915e+01
2.120000000000000107e+00
-3.846999999999999886e+01
1.171200000000000045e+02
-3.957000000000000028e+01
-7.230000000000000426e+00
1.123700000000000045e+02
-1.682700000000000102e+02
7.080000000000000071e+00
1.089399999999999977e+02
-9.846999999999999886e+01
-1.639999999999999902e+00
5.584000000000000341e+01
-6.379999999999999716e+01
-5.867000000000000171e+01
2.928000000000000114e+01
-9.265000000000000568e+01
-4.653000000000000114e+01
4.510999999999999943e+01
-1.020600000000000023e+02
-3.652000000000000313e+01
3.264000000000000057e+01
6.110000000000000142e+01
-7.287999999999999545e+01
1.072000000000000064e+01
-2.492999999999999972e+01
-2.398000000000000043e+01
4.886999999999999744e+01
2.899999999999999911e+00
1.397000000000000064e+01
2.394999999999999929e+01
-1.908999999999999986e+01
2.703999999999999915e+01
1.381000000000000050e+01
-5.317000000000000171e+01
2.773000000000000043e+01
6.709999999999999964e+00
-4.231000000000000227e+01
1.492999999999999972e+01
-3.586999999999999744e+01
-4.156000000000000227e+01
-1.133100000000000023e+02
9.437999999999999545e+01
-6.720000000000000284e+01
-1.656800000000000068e+02
-9.954999999999999716e+01
2.414600000000000080e+02
1.071800000000000068e+02
-6.940999999999999659e+01
4.167999999999999972e+01
1.002999999999999936e+01
-9.078000000000000114e+01
-3.475000000000000000e+01
-4.552000000000000313e+01
7.762999999999999545e+01
4.184000000000000341e+01
-7.401999999999999602e+01
-1.044500000000000028e+02
4.477000000000000313e+01
5.310999999999999943e+01
1.005300000000000011e+02
1.036500000000000057e+02
-6.122999999999999687e+01
-2.078199999999999932e+02
-2.344000000000000128e+01
1.826000000000000156e+01
-8.851000000000000512e+01
3.821999999999999886e+01
1.623700000000000045e+02
1.848000000000000043e+01
-1.805000000000000071e+01
-6.754999999999999716e+01
7.026000000000000512e+01
1.835999999999999943e+01
-5.374000000000000199e+01
-3.007999999999999829e+01
5.990999999999999659e+01
-3.055000000000000071e+01
4.920000000000000284e+01
8.532999999999999829e+01
1.655399999999999920e+02
-6.993999999999999773e+01
-2.122299999999999898e+02
2.279399999999999977e+02
7.840000000000000568e+01
-6.389999999999999680e+00
1.082000000000000028e+01
-2.110999999999999943e+01
7.265999999999999659e+01
-3.645000000000000284e+01
-7.660999999999999943e+01
7.806000000000000227e+01
-3.183999999999999986e+01
-1.791000000000000014e+01
-1.139999999999999902e+00
-4.382000000000000028e+01
3.515999999999999659e+01
2.476000000000000156e+01
2.242999999999999972e+01
-2.238300000000000125e+02
9.525000000000000000e+01
1.703000000000000114e+01
3.046999999999999886e+01
-2.776000000000000156e+01
6.107999999999999829e+01
-6.382999999999999829e+01
1.876000000000000156e+01
1.843899999999999864e+02
2.108999999999999986e+01
-7.945999999999999375e+01
-1.129599999999999937e+02
-1.166999999999999993e+01
4.607999999999999829e+01
1.021000000000000085e+01
3.307000000000000028e+01
1.189999999999999947e+00
-5.431000000000000227e+01
3.625999999999999801e+01
1.469999999999999973e+00
3.472999999999999687e+01
-2.540000000000000036e+00
-7.237000000000000455e+01
3.445000000000000284e+01
4.089999999999999858e+00
-1.266999999999999993e+01
2.196999999999999886e+01
-2.596000000000000085e+01
3.609000000000000341e+01
1.483000000000000007e+01
-4.878000000000000114e+01
3.738000000000000256e+01
-2.000000000000000000e+00
-1.848000000000000043e+01
3.176000000000000156e+01
-1.992999999999999972e+01
9.740000000000000213e+00
1.619999999999999929e+01
-3.550999999999999801e+01
2.928999999999999915e+01
1.536999999999999922e+01
-4.590999999999999659e+01
4.282000000000000028e+01
3.382999999999999829e+01
8.849999999999999645e+00
-1.701000000000000156e+01
-3.746999999999999886e+01
-6.714000000000000057e+01
2.362999999999999901e+01
-1.780000000000000027e+00
-6.359000000000000341e+01
3.884000000000000341e+01
-8.009999999999999432e+01
1.142199999999999989e+02
3.191000000000000014e+01
3.023000000000000043e+01
-5.085999999999999943e+01
5.522999999999999687e+01
-3.992999999999999972e+01
5.007000000000000028e+01
8.369999999999999218e+00
-3.014999999999999858e+01
3.261999999999999744e+01
-5.099999999999999645e+00
5.921000000000000085e+01
2.015000000000000000e+02
-1.634000000000000057e+02
-6.648000000000000398e+01
7.126000000000000512e+01
-1.261400000000000006e+02
2.050000000000000000e+01
-1.458999999999999986e+01
2.082000000000000028e+01
-4.803999999999999915e+01
-1.153999999999999915e+01
1.225000000000000000e+01
-7.168000000000000682e+01
1.172800000000000011e+02
-3.806000000000000227e+01
-1.642899999999999920e+02
-1.317899999999999920e+02
1.104300000000000068e+02
6.118999999999999773e+01
-1.000100000000000051e+02
3.985000000000000142e+01
6.275000000000000000e+01
7.590999999999999659e+01
-1.065000000000000000e+02
-7.006000000000000227e+01
2.708299999999999841e+02
-1.207000000000000028e+01
-1.667700000000000102e+02
-1.133199999999999932e+02
-1.878700000000000045e+02
1.167099999999999937e+02
5.792000000000000171e+01
9.793000000000000682e+01
3.007999999999999829e+01
-6.025000000000000000e+01
1.127999999999999972e+02
1.283000000000000007e+01
-1.500099999999999909e+02
-1.646899999999999977e+02
1.646299999999999955e+02
1.939699999999999989e+02
-2.178400000000000034e+02
-7.269999999999999574e+00
4.579999999999999716e+01
2.581000000000000227e+02
1.912000000000000099e+01
-2.051699999999999875e+02
-1.319900000000000091e+02
-3.821000000000000085e+01
1.425900000000000034e+02
-6.879999999999999716e+01
-9.340999999999999659e+01
4.746999999999999886e+01
3.470000000000000284e+01
-6.039000000000000057e+01
9.220000000000000639e+00
-1.150000000000000000e+01
-5.199000000000000199e+01
1.714399999999999977e+02
2.348999999999999844e+01
-9.820999999999999375e+01
5.660000000000000142e+00
-5.097999999999999687e+01
7.970000000000000284e+01
2.649900000000000091e+02
-2.477599999999999909e+02
-3.657000000000000028e+01
9.290000000000000568e+01
7.600000000000000089e-01
1.673100000000000023e+02
6.631999999999999318e+01
-6.134000000000000341e+01
-6.063000000000000256e+01
-2.187800000000000011e+02
2.417000000000000171e+01
-6.987000000000000455e+01
1.621500000000000057e+02
6.723999999999999488e+01
1.792000000000000171e+01
1.444999999999999929e+01
-6.959999999999999964e+00
-4.147999999999999687e+01
2.498000000000000043e+01
1.744999999999999929e+01
-3.528999999999999915e+01
1.091999999999999993e+01
-4.360000000000000320e+00
2.737000000000000099e+01
1.530000000000000071e+01
-6.964000000000000057e+01
5.292000000000000171e+01
-6.309999999999999609e+00
1.105000000000000071e+01
2.385000000000000142e+01
-5.139000000000000057e+01
4.049000000000000199e+01
-1.242999999999999972e+01
1.209999999999999964e+01
2.401000000000000156e+01
-6.003000000000000114e+01
5.911999999999999744e+01
-2.540000000000000036e+00
-3.292999999999999972e+01
4.857999999999999829e+01
3.450000000000000178e+00
8.187000000000000455e+01
-1.937000000000000099e+01
-3.372300000000000182e+02
2.482000000000000028e+01
-3.536999999999999744e+01
2.047599999999999909e+02
-2.029499999999999886e+02
1.026700000000000017e+02
5.389999999999999858e+01
-5.299999999999999822e+00
-4.214000000000000057e+01
-8.943000000000000682e+01
2.590000000000000000e+02
-2.289999999999999858e+01
-1.681200000000000045e+02
1.912400000000000091e+02
5.278999999999999915e+01
5.243999999999999773e+01
-4.296999999999999886e+01
-1.922199999999999989e+02
2.500000000000000000e-01
1.403300000000000125e+02
1.409199999999999875e+02
7.234000000000000341e+01
-1.011999999999999922e+01
-6.782999999999999829e+01
1.252000000000000028e+02
-1.986399999999999864e+02
5.725000000000000000e+01
1.311399999999999864e+02
-1.510500000000000114e+02
3.176000000000000156e+01
-2.189999999999999858e+01
-2.689999999999999947e+00
3.914000000000000057e+01
2.287000000000000099e+01
5.717999999999999972e+01
-1.235999999999999943e+01
4.378000000000000114e+01
1.665600000000000023e+02
-1.580699999999999932e+02
-2.887999999999999901e+01
-8.134999999999999432e+01
-1.084899999999999949e+02
-1.529199999999999875e+02
4.646000000000000085e+01
1.079800000000000040e+02
1.411399999999999864e+02
-7.214000000000000057e+01
3.110000000000000142e+01
-9.029999999999999361e+00
-6.246000000000000085e+01
2.775000000000000000e+01
-4.820000000000000284e+00
9.689999999999999503e+00
4.309000000000000341e+01
-1.869000000000000128e+01
4.828999999999999915e+01
4.660000000000000142e+01
3.621999999999999886e+01
3.627799999999999727e+02
-2.151100000000000136e+02
-1.390500000000000114e+02
2.760000000000000142e+01
2.566000000000000014e+01
-1.889999999999999902e+00
1.330000000000000071e+01
-2.462000000000000099e+01
-7.959999999999999964e+00
1.022000000000000064e+01
-2.625000000000000000e+01
1.143999999999999950e+01
-6.030000000000000249e+00
-5.603999999999999915e+01
5.596999999999999886e+01
1.568499999999999943e+02
-6.987000000000000455e+01
8.660000000000000142e+00
-1.891399999999999864e+02
-5.542000000000000171e+01
-4.664000000000000057e+01
-7.593999999999999773e+01
-2.859999999999999876e+00
-1.244300000000000068e+02
-2.432999999999999829e+01
5.152000000000000313e+01
-1.005000000000000071e+01
4.927000000000000313e+01
1.156400000000000006e+02
2.035999999999999943e+02
-6.510999999999999943e+01
-1.385000000000000000e+02
-5.715999999999999659e+01
1.357000000000000028e+01
6.300000000000000000e+01
-9.217000000000000171e+01
9.132999999999999829e+01
6.501000000000000512e+01
1.321699999999999875e+02
1.698999999999999844e+01
-8.614000000000000057e+01
-4.964999999999999858e+01
-5.039999999999999858e+01
1.721000000000000085e+01
-3.810000000000000142e+01
-4.071999999999999886e+01
2.967999999999999972e+01
-1.732000000000000028e+01
-5.561999999999999744e+01
-1.189000000000000057e+01
-9.331000000000000227e+01
-2.457700000000000102e+02
3.009300000000000068e+02
-2.473600000000000136e+02
-5.975999999999999801e+01
1.486699999999999875e+02
9.971999999999999886e+01
-1.520600000000000023e+02
-1.332500000000000000e+02
-6.506000000000000227e+01
1.398700000000000045e+02
1.563199999999999932e+02
1.184999999999999964e+01
9.728000000000000114e+01
2.076000000000000156e+01
4.771999999999999886e+01
4.421000000000000085e+01
9.019999999999999574e+00
1.609600000000000080e+02
-1.843499999999999943e+02
-8.612000000000000455e+01
2.269999999999999929e+01
-3.153000000000000114e+01
1.314000000000000057e+01
6.853000000000000114e+01
1.028199999999999932e+02
6.224000000000000199e+01
9.150000000000000355e+00
-1.115499999999999972e+02
-1.508000000000000007e+01
-1.625999999999999943e+02
-1.542999999999999972e+01
6.317000000000000171e+01
-1.038100000000000023e+02
2.723000000000000043e+01
1.325999999999999979e+01
-6.129999999999999716e+01
2.009999999999999787e+00
-3.382999999999999829e+01
-6.065999999999999659e+01
-1.726000000000000156e+01
-8.575000000000000000e+01
-4.417000000000000171e+01
2.019000000000000128e+01
-1.747100000000000080e+02
9.290999999999999659e+01
-3.228000000000000114e+01
2.312299999999999898e+02
1.896699999999999875e+02
-3.342000000000000171e+01
4.561999999999999744e+01
1.732999999999999829e+01
6.235999999999999943e+01
6.500000000000000000e+01
3.200000000000000178e+00
6.092000000000000171e+01
1.126800000000000068e+02
-3.030000000000000071e+01
2.455999999999999872e+01
4.020000000000000284e+01
-5.710000000000000142e+01
5.929999999999999716e+00
5.059999999999999609e+00
-6.185999999999999943e+01
2.623000000000000043e+01
1.484999999999999964e+01
-2.391000000000000014e+01
1.019300000000000068e+02
7.751000000000000512e+01
-2.280399999999999920e+02
-1.054099999999999966e+02
-1.407700000000000102e+02
5.679999999999999716e+00
-1.308999999999999986e+01
-1.108000000000000007e+01
8.170999999999999375e+01
3.881000000000000227e+01
-2.426999999999999957e+01
3.117000000000000171e+01
-8.419999999999999929e+00
-5.459999999999999964e+00
1.114000000000000057e+01
-5.570000000000000284e+00
3.214000000000000057e+01
6.196999999999999886e+01
-1.153400000000000034e+02
7.962999999999999545e+01
1.449699999999999989e+02
-3.621999999999999886e+01
-1.964600000000000080e+02
-6.615000000000000568e+01
2.091000000000000014e+01
7.926999999999999602e+01
-1.166999999999999993e+01
5.224000000000000199e+01
-1.265999999999999943e+02
8.793000000000000682e+01
-1.826000000000000156e+01
-7.017000000000000171e+01
5.360000000000000320e+00
3.678000000000000114e+01
-7.879999999999999893e+00
-2.432000000000000028e+01
-1.100000000000000006e-01
3.940999999999999659e+01
1.700000000000000122e-01
4.982000000000000028e+01
9.456999999999999318e+01
-8.337000000000000455e+01
-6.020000000000000284e+01
-7.969999999999999751e+00
2.805999999999999872e+01
6.210999999999999943e+01
2.426999999999999957e+01
-2.044000000000000128e+01
-3.261999999999999744e+01
-3.414000000000000057e+01
1.316000000000000014e+01
1.461999999999999922e+01
-3.527000000000000313e+01
2.192999999999999972e+01
1.231000000000000050e+01
-4.231000000000000227e+01
2.957000000000000028e+01
4.089999999999999858e+00
-2.790000000000000036e+00
1.099000000000000021e+01
-2.892999999999999972e+01
2.126000000000000156e+01
1.644999999999999929e+01
-4.428000000000000114e+01
8.426999999999999602e+01
1.319000000000000057e+02
-4.795000000000000284e+01
-1.004399999999999977e+02
-9.542000000000000171e+01
-7.743999999999999773e+01
6.020000000000000284e+01
4.415999999999999659e+01
3.144999999999999929e+01
1.620000000000000107e+00
-2.264999999999999858e+01
3.357999999999999829e+01
2.153000000000000114e+01
-9.820000000000000284e+00
2.594000000000000128e+01
-6.120000000000000107e+00
-4.378000000000000114e+01
4.799999999999999822e+00
3.009999999999999787e+00
-7.370000000000000107e+00
6.219999999999999751e+00
-1.297000000000000064e+01
2.621000000000000085e+01
8.580000000000000071e+00
-3.717000000000000171e+01
8.460000000000000853e+00
-1.825000000000000000e+01
-8.640000000000000568e+00
2.448000000000000043e+01
-2.569000000000000128e+01
2.908999999999999986e+01
9.900000000000000355e+00
-3.963000000000000256e+01
3.650000000000000000e+01
3.759999999999999787e+00
-8.630000000000000782e+00
-1.620000000000000107e+00
-3.229999999999999716e+01
3.023000000000000043e+01
1.817999999999999972e+01
-4.642000000000000171e+01
4.440999999999999659e+01
1.163000000000000078e+01
-4.907000000000000028e+01
4.300000000000000000e+01
-1.208999999999999986e+01
-3.934000000000000341e+01
3.066000000000000014e+01
-1.762000000000000099e+01
-3.148999999999999844e+01
2.087000000000000099e+01
-2.512999999999999901e+01
-4.900000000000000000e+01
5.249000000000000199e+01
-2.694000000000000128e+01
-1.081899999999999977e+02
1.898499999999999943e+02
5.964999999999999858e+01
-4.946000000000000085e+01
1.006000000000000050e+01
-1.169099999999999966e+02
-5.360999999999999943e+01
4.554999999999999716e+01
-4.230000000000000426e+00
-1.900000000000000022e-01
5.249000000000000199e+01
1.080000000000000071e+00
-2.205000000000000071e+01
1.959999999999999964e+00
-2.137999999999999901e+01
-8.339999999999999858e+00
2.323000000000000043e+01
-7.009999999999999787e+00
1.544999999999999929e+01
2.557999999999999829e+01
-1.744999999999999929e+01
3.203999999999999915e+01
2.042000000000000171e+01
-3.696000000000000085e+01
2.383999999999999986e+01
-2.580999999999999872e+01
-2.408999999999999986e+01
2.360000000000000142e+01
-4.742999999999999972e+01
2.819000000000000128e+01
-7.040000000000000036e+00
-8.959000000000000341e+01
5.949000000000000199e+01
2.098000000000000043e+01
-6.106000000000000227e+01
7.784000000000000341e+01
2.899999999999999911e+00
-2.769999999999999929e+01
5.338000000000000256e+01
-8.050000000000000711e+00
6.459999999999999964e+00
3.153000000000000114e+01
-2.385000000000000142e+01
3.670000000000000284e+01
2.942000000000000171e+01
-5.338000000000000256e+01
2.503999999999999915e+01
-9.820000000000000284e+00
-9.142000000000000171e+01
2.544000000000000128e+01
-4.000000000000000000e+00
-9.729999999999999716e+01
-2.018600000000000136e+02
3.231899999999999977e+02
3.927300000000000182e+02
-6.997999999999999545e+02
-1.818499999999999943e+02
2.047500000000000000e+02
1.578000000000000114e+02
1.200999999999999979e+01
6.102000000000000313e+01
-2.785000000000000000e+02
1.403300000000000125e+02
1.109399999999999977e+02
-3.142799999999999727e+02
2.656000000000000227e+02
-1.220400000000000063e+02
1.589000000000000057e+01
-2.249600000000000080e+02
-1.187300000000000040e+02
8.167000000000000171e+01
3.586999999999999744e+01
6.929000000000000625e+01
1.750900000000000034e+02
5.675000000000000000e+01
-1.539099999999999966e+02
-7.219999999999999751e+00
8.199999999999999289e+00
-1.056400000000000006e+02
-1.089399999999999977e+02
2.738700000000000045e+02
1.819799999999999898e+02
-1.259999999999999964e+01
-2.687000000000000099e+01
-1.951899999999999977e+02
-1.919799999999999898e+02
1.003900000000000006e+02
1.104699999999999989e+02
1.233999999999999986e+01
-6.799999999999999822e+00
5.929999999999999716e+00
-6.768000000000000682e+01
2.760099999999999909e+02
2.068600000000000136e+02
-4.869800000000000182e+02
-3.124200000000000159e+02
2.938600000000000136e+02
-2.535000000000000142e+01
9.301000000000000512e+01
-7.000000000000000000e+00
-7.114000000000000057e+01
8.182999999999999829e+01
-3.319999999999999840e+00
7.157999999999999829e+01
2.611100000000000136e+02
-1.065400000000000063e+02
-3.637200000000000273e+02
7.384999999999999432e+01
9.960999999999999943e+01
5.090999999999999659e+01
-3.094999999999999929e+01
1.790099999999999909e+02
-3.275999999999999801e+01
-4.020000000000000284e+01
-2.666000000000000014e+01
-7.234000000000000341e+01
8.751000000000000512e+01
-1.041400000000000006e+02
-1.713499999999999943e+02
1.115999999999999943e+02
-2.667999999999999972e+01
1.413499999999999943e+02
3.330400000000000205e+02
1.738199999999999932e+02
-5.889999999999999680e+00
-1.235199999999999960e+02
-1.375999999999999943e+02
-3.320799999999999841e+02
-2.774300000000000068e+02
-1.792000000000000171e+01
4.550600000000000023e+02
-4.702300000000000182e+02
1.645500000000000114e+02
-7.134999999999999432e+01
-1.300000000000000044e-01
4.215999999999999659e+01
2.049699999999999989e+02
-7.018000000000000682e+01
3.103799999999999955e+02
1.209300000000000068e+02
-2.326299999999999955e+02
1.522000000000000064e+01
1.845300000000000011e+02
-1.019999999999999929e+01
-1.675999999999999943e+02
7.532999999999999829e+01
2.166599999999999966e+02
-1.596100000000000136e+02
-1.258199999999999932e+02
6.934999999999999432e+01
2.594599999999999795e+02
-3.241299999999999955e+02
-2.090600000000000023e+02
1.710399999999999920e+02
2.289000000000000057e+01
7.431999999999999318e+01
4.924000000000000199e+01
3.743999999999999773e+01
-9.587000000000000455e+01
1.027600000000000051e+02
2.374699999999999989e+02
-2.914399999999999977e+02
-1.209699999999999989e+02
-1.425600000000000023e+02
1.686899999999999977e+02
1.680399999999999920e+02
-5.872999999999999687e+01
-3.617999999999999972e+01
1.413799999999999955e+02
-1.778100000000000023e+02
2.685999999999999943e+01
2.470000000000000195e+00
2.014999999999999858e+01
1.038000000000000078e+01
-4.589999999999999858e+01
4.539000000000000057e+01
-3.496999999999999886e+01
2.517999999999999972e+01
2.194000000000000128e+01
-1.871999999999999886e+01
2.339999999999999858e+00
2.094999999999999929e+01
3.774000000000000199e+01
-1.415000000000000036e+01
-2.532000000000000028e+01
2.342999999999999972e+01
9.379999999999999716e+01
5.384000000000000341e+01
-3.328000000000000114e+01
-3.671000000000000085e+01
2.189000000000000057e+01
5.195000000000000284e+01
-7.143000000000000682e+01
-1.446200000000000045e+02
-1.525399999999999920e+02
1.838300000000000125e+02
1.007300000000000040e+02
-2.252100000000000080e+02
-2.110099999999999909e+02
2.834100000000000250e+02
-3.220000000000000195e+00
-6.129999999999999893e+00
4.311999999999999744e+01
-3.423000000000000114e+02
2.641600000000000250e+02
-1.885399999999999920e+02
2.535000000000000000e+02
-1.647199999999999989e+02
-9.704999999999999716e+01
2.439900000000000091e+02
2.611999999999999886e+02
-2.540000000000000000e+02
3.359999999999999876e+00
1.328400000000000034e+02
8.089000000000000057e+01
-2.211999999999999886e+02
3.911999999999999744e+01
-2.842000000000000171e+01
3.160000000000000142e+01
-2.096000000000000085e+01
-7.830000000000000071e+00
1.703400000000000034e+02
-8.175000000000000000e+01
1.826999999999999886e+02
8.503000000000000114e+01
-1.157300000000000040e+02
-1.229599999999999937e+02
-1.004399999999999977e+02
-3.442099999999999795e+02
1.250199999999999960e+02
6.290000000000000036e+00
2.299199999999999875e+02
-8.493999999999999773e+01
-1.991899999999999977e+02
1.921299999999999955e+02
1.890699999999999932e+02
-6.909999999999999432e+01
-9.096999999999999886e+01
-2.269000000000000128e+01
9.884999999999999432e+01
-1.217300000000000040e+02
2.007700000000000102e+02
2.158000000000000114e+02
7.010999999999999943e+01
3.019999999999999929e+01
5.382000000000000028e+01
-5.288000000000000256e+01
1.400200000000000102e+02
-3.810000000000000142e+01
-3.079300000000000068e+02
1.490099999999999909e+02
3.585999999999999943e+01
-5.727000000000000313e+01
2.086399999999999864e+02
9.426999999999999602e+01
-8.918999999999999773e+01
-6.492000000000000171e+01
-9.150000000000000355e+00
-2.182299999999999898e+02
5.139999999999999858e+01
2.292999999999999972e+01
-2.337700000000000102e+02
2.224399999999999977e+02
3.989000000000000057e+01
-2.524099999999999966e+02
1.281699999999999875e+02
1.218499999999999943e+02
-3.070199999999999818e+02
-1.018299999999999983e+02
-4.732999999999999829e+01
-2.139999999999999858e+01
8.165000000000000568e+01
1.096000000000000085e+01
-7.864000000000000057e+01
-2.289000000000000057e+01
-2.933799999999999955e+02
1.899799999999999898e+02
-3.414999999999999858e+01
2.632500000000000000e+02
9.112999999999999545e+01
7.240000000000000568e+01
-2.685999999999999943e+01
-2.772099999999999795e+02
-1.661100000000000136e+02
-1.530699999999999932e+02
-1.607800000000000011e+02
2.308799999999999955e+02
3.922999999999999687e+01
9.465000000000000568e+01
5.700999999999999801e+01
-2.708399999999999750e+02
2.335399999999999920e+02
-2.971999999999999886e+01
7.343999999999999773e+01
7.356000000000000227e+01
7.150000000000000355e+00
-7.659999999999999432e+01
-2.388000000000000114e+02
1.570699999999999932e+02
-2.418899999999999864e+02
1.699000000000000057e+02
9.921999999999999886e+01
3.021999999999999886e+01
7.890999999999999659e+01
-9.575000000000000000e+01
-2.518700000000000045e+02
1.210799999999999983e+02
1.437899999999999920e+02
2.107999999999999829e+01
-5.488000000000000256e+01
-2.260000000000000142e+01
-8.006000000000000227e+01
1.657500000000000000e+02
-7.243000000000000682e+01
6.279999999999999716e+01
1.439799999999999898e+02
-1.541899999999999977e+02
-1.375699999999999932e+02
6.043999999999999773e+01
4.917000000000000171e+01
9.979999999999999716e+01
1.796000000000000085e+01
-3.912200000000000273e+02
-1.150900000000000034e+02
1.817700000000000102e+02
2.671000000000000085e+01
-1.197199999999999989e+02
1.537899999999999920e+02
2.546500000000000057e+02
-2.052500000000000000e+02
1.172199999999999989e+02
-2.864999999999999858e+01
-4.830000000000000071e+00
-3.671000000000000085e+01
6.898000000000000398e+01
4.153000000000000114e+01
-4.970000000000000284e+01
-2.025000000000000000e+01
-8.382999999999999829e+01
9.448000000000000398e+01
-3.839999999999999858e+00
-9.115999999999999659e+01
1.178599999999999994e+02
-7.810999999999999943e+01
2.153799999999999955e+02
3.069000000000000128e+01
-2.035800000000000125e+02
-9.676999999999999602e+01
-8.773000000000000398e+01
2.827099999999999795e+02
-2.298000000000000114e+02
-1.537400000000000091e+02
2.367500000000000000e+02
9.984000000000000341e+01
-3.163899999999999864e+02
-2.260800000000000125e+02
8.743000000000000682e+01
1.969099999999999966e+02
1.880999999999999943e+02
-1.461899999999999977e+02
1.921299999999999955e+02
2.248000000000000043e+01
-4.110000000000000142e+01
9.269999999999999574e+00
-1.686599999999999966e+02
1.604000000000000057e+02
-8.998000000000000398e+01
1.409000000000000057e+02
1.327400000000000091e+02
-1.382000000000000028e+01
-3.578000000000000114e+01
-4.560999999999999943e+01
2.770000000000000018e+00
8.148999999999999488e+01
1.197300000000000040e+02
-1.493899999999999864e+02
-5.786499999999999773e+02
4.146000000000000085e+01
3.933999999999999773e+02
2.255999999999999943e+02
-1.811399999999999864e+02
1.174699999999999989e+02
1.353600000000000136e+02
-1.302199999999999989e+02
-6.781999999999999318e+01
1.137399999999999949e+02
2.723000000000000043e+01
-3.527000000000000313e+01
-1.794199999999999875e+02
-9.220000000000000639e+00
7.868999999999999773e+01
-5.675999999999999801e+01
-2.109099999999999966e+02
-1.899699999999999989e+02
3.028600000000000136e+02
1.371100000000000136e+02
1.659499999999999886e+02
-1.572299999999999898e+02
4.334000000000000341e+01
-1.104599999999999937e+02
-1.370099999999999909e+02
1.300399999999999920e+02
1.072699999999999960e+02
6.314999999999999858e+01
-1.414000000000000057e+01
-1.144300000000000068e+02
4.038000000000000256e+01
1.600000000000000089e+00
1.402299999999999898e+02
1.640999999999999943e+02
2.489900000000000091e+02
-3.298600000000000136e+02
-2.767099999999999795e+02
-6.904999999999999716e+01
-7.076999999999999602e+01
-2.316000000000000014e+01
7.915000000000000568e+01
2.587000000000000099e+01
-2.241299999999999955e+02
2.855000000000000071e+01
1.709199999999999875e+02
9.926000000000000512e+01
1.167999999999999972e+01
-9.118999999999999773e+01
2.646999999999999886e+01
-4.264000000000000057e+01
-1.714999999999999858e+01
1.237300000000000040e+02
3.868299999999999841e+02
-1.050999999999999943e+02
-2.807900000000000205e+02
-2.566000000000000227e+02
1.622899999999999920e+02
9.229000000000000625e+01
4.171000000000000085e+01
-1.255000000000000071e+01
-2.140999999999999943e+02
5.682999999999999829e+01
1.847299999999999898e+02
3.666700000000000159e+02
-2.694700000000000273e+02
-2.920500000000000114e+02
-2.378199999999999932e+02
4.716800000000000068e+02
4.564999999999999858e+01
-3.917500000000000000e+02
-1.928600000000000136e+02
-2.951299999999999955e+02
6.584999999999999432e+01
7.315000000000000568e+01
3.111899999999999977e+02
-1.771899999999999977e+02
1.544699999999999989e+02
2.007599999999999909e+02
-1.711200000000000045e+02
1.138199999999999932e+02
4.093600000000000136e+02
-2.107500000000000000e+02
-2.973700000000000045e+02
-1.942500000000000000e+02
1.234500000000000028e+02
2.108499999999999943e+02
3.128100000000000023e+02
9.184999999999999432e+01
2.039499999999999886e+02
-6.190999999999999659e+01
-1.112199999999999989e+02
-2.616499999999999773e+02
-1.049200000000000017e+02
-6.175999999999999801e+01
-2.977500000000000000e+02
-2.089999999999999858e+00
2.498100000000000023e+02
3.816399999999999864e+02
4.924399999999999977e+02
-4.829599999999999795e+02
-2.141500000000000057e+02
1.423400000000000034e+02
1.111999999999999922e+01
1.596000000000000085e+01
-5.589999999999999858e+01
-8.034999999999999432e+01
8.065000000000000568e+01
-3.628000000000000114e+01
5.560999999999999943e+01
1.540000000000000036e+00
-4.482999999999999829e+01
5.934000000000000341e+01
-7.600000000000000089e-01
1.272900000000000063e+02
-1.460200000000000102e+02
-6.726999999999999602e+01
2.551000000000000156e+01
-1.559300000000000068e+02
-4.345000000000000284e+01
1.955399999999999920e+02
5.800999999999999801e+01
8.226000000000000512e+01
-7.593000000000000682e+01
-1.536299999999999955e+02
4.582999999999999829e+01
-1.060999999999999943e+01
6.740000000000000213e+00
-8.073999999999999488e+01
-2.306800000000000068e+02
3.735000000000000142e+01
1.880099999999999909e+02
9.029999999999999716e+01
1.895500000000000114e+02
-3.856000000000000227e+01
1.447899999999999920e+02
3.870000000000000284e+01
-3.675000000000000000e+02
-3.260000000000000142e+01
-5.889999999999999858e+01
-8.150000000000000000e+01
2.439000000000000057e+01
1.041800000000000068e+02
-1.116000000000000014e+01
-8.854999999999999716e+01
-1.496899999999999977e+02
5.063000000000000256e+01
9.740000000000000213e+00
1.214000000000000057e+01
2.513600000000000136e+02
-1.270400000000000063e+02
-1.918000000000000114e+02
5.300999999999999801e+01
-8.393999999999999773e+01
2.066500000000000057e+02
9.515000000000000568e+01
1.541500000000000057e+02
-7.565999999999999659e+01
8.393000000000000682e+01
-2.949100000000000250e+02
-1.311500000000000057e+02
-1.681699999999999875e+02
4.551499999999999773e+02
-4.685000000000000142e+01
-3.273000000000000114e+02
2.223499999999999943e+02
1.976899999999999977e+02
2.060900000000000034e+02
-1.576899999999999977e+02
4.036700000000000159e+02
-1.000400000000000063e+02
-1.243999999999999950e+01
-3.084900000000000091e+02
-7.567000000000000171e+01
3.675000000000000000e+01
1.532500000000000000e+02
-8.179999999999999716e+01
-1.526399999999999864e+02
5.449000000000000199e+01
3.598799999999999955e+02
3.493100000000000023e+02
3.240999999999999659e+01
-1.097800000000000011e+02
-3.642699999999999818e+02
-5.021600000000000250e+02
2.824100000000000250e+02
1.310200000000000102e+02
-1.497500000000000000e+02
-2.747799999999999727e+02
2.175200000000000102e+02
3.715699999999999932e+02
1.970399999999999920e+02
-3.107000000000000028e+01
-1.242999999999999972e+02
-5.464999999999999858e+01
-5.682999999999999829e+01
-1.737000000000000099e+01
9.384999999999999432e+01
1.982999999999999829e+01
4.497999999999999687e+01
-7.715999999999999659e+01
-1.120000000000000107e+00
4.354999999999999716e+01
-5.117400000000000091e+02
-2.561700000000000159e+02
3.288600000000000136e+02
1.108499999999999943e+02
3.429499999999999886e+02
-6.565999999999999659e+01
5.656000000000000227e+01
1.841999999999999886e+02
3.937599999999999909e+02
-1.162399999999999949e+02
-9.212999999999999545e+01
2.587000000000000099e+01
-1.586500000000000057e+02
1.125799999999999983e+02
2.260000000000000142e+01
-1.172099999999999937e+02
1.170999999999999943e+02
-1.778999999999999915e+01
-1.017300000000000040e+02
1.165799999999999983e+02
3.690999999999999659e+01
9.487000000000000455e+01
-5.913000000000000256e+01
-8.550000000000000711e+00
-1.171299999999999955e+02
1.873000000000000114e+02
6.364999999999999858e+01
5.882000000000000028e+01
4.484000000000000341e+01
-3.807000000000000028e+01
-1.409499999999999886e+02
-8.170000000000000284e+01
-3.485999999999999943e+01
2.380000000000000071e+01
1.725900000000000034e+02
-2.679200000000000159e+02
1.735600000000000023e+02
9.881000000000000227e+01
-3.092000000000000171e+01
-4.717099999999999795e+02
-2.538400000000000034e+02
5.238099999999999454e+02
-2.916200000000000045e+02
2.767999999999999972e+01
6.289900000000000091e+02
-3.211200000000000045e+02
-1.299900000000000091e+02
-3.117999999999999972e+01
1.474900000000000091e+02
-2.144000000000000128e+01
-7.809999999999999432e+01
3.168100000000000023e+02
1.880200000000000102e+02
-1.984300000000000068e+02
-5.290800000000000409e+02
3.020400000000000205e+02
9.770999999999999375e+01
-5.439000000000000057e+01
-2.300800000000000125e+02
2.219199999999999875e+02
9.414000000000000057e+01
1.588199999999999932e+02
-4.317000000000000171e+01
-1.636399999999999864e+02
-2.143300000000000125e+02
-2.005200000000000102e+02
-1.205000000000000071e+01
2.707599999999999909e+02
-2.537999999999999901e+01
-3.636299999999999955e+02
1.928899999999999864e+02
9.817000000000000171e+01
-1.779099999999999966e+02
3.534000000000000341e+01
4.860000000000000142e+01
6.596999999999999886e+01
3.492000000000000171e+01
-1.121400000000000006e+02
7.767000000000000171e+01
1.212399999999999949e+02
-2.585000000000000142e+01
-1.649499999999999886e+02
1.391999999999999993e+01
1.435200000000000102e+02
-1.694199999999999875e+02
-1.950500000000000114e+02
1.222600000000000051e+02
1.247699999999999960e+02
1.303700000000000045e+02
4.825999999999999801e+01
1.847599999999999909e+02
-3.542999999999999972e+01
-4.722999999999999687e+01
-1.046800000000000068e+02
-3.625099999999999909e+02
-6.081699999999999591e+02
3.675199999999999818e+02
1.394000000000000057e+02
-8.448999999999999488e+01
2.790099999999999909e+02
-6.200000000000000178e+00
3.028399999999999750e+02
-3.060699999999999932e+02
1.773499999999999943e+02
3.102400000000000091e+02
-3.035500000000000114e+02
2.941000000000000014e+01
-1.824300000000000068e+02
5.604999999999999716e+01
-1.969000000000000128e+01
9.957999999999999829e+01
-1.399999999999999911e+00
-1.209800000000000040e+02
1.694999999999999929e+01
-4.828999999999999915e+01
7.362000000000000455e+01
7.859000000000000341e+01
-2.254499999999999886e+02
1.038700000000000045e+02
-1.291599999999999966e+02
9.101999999999999602e+01
-1.072300000000000040e+02
2.593199999999999932e+02
-2.430000000000000000e+02
-6.921999999999999886e+01
-5.684000000000000341e+01
7.034999999999999432e+01
1.262999999999999972e+02
-2.587699999999999818e+02
-1.015400000000000063e+02
2.687599999999999909e+02
1.043100000000000023e+02
-5.028999999999999915e+01
-2.822799999999999727e+02
-8.409000000000000341e+01
1.144099999999999966e+02
-2.610000000000000142e+01
5.714000000000000057e+01
-1.056200000000000045e+02
-6.531000000000000227e+01
4.596399999999999864e+02
-1.041700000000000017e+02
8.370999999999999375e+01
-2.319999999999999840e+00
7.825000000000000000e+01
4.235000000000000142e+01
1.491000000000000014e+01
-1.382800000000000011e+02
-4.122400000000000091e+02
3.412699999999999818e+02
1.027099999999999937e+02
9.859999999999999432e+01
-8.979999999999999716e+01
-5.410999999999999943e+01
6.756000000000000227e+01
-3.450000000000000000e+01
8.606000000000000227e+01
1.975000000000000000e+01
-1.826999999999999957e+01
1.558400000000000034e+02
-6.845999999999999375e+01
-1.512400000000000091e+02
-3.228100000000000023e+02
2.030999999999999943e+02
4.489000000000000057e+01
-3.637500000000000000e+02
1.022600000000000051e+02
-6.851000000000000512e+01
1.800699999999999932e+02
1.082099999999999937e+02
-1.091599999999999966e+02
4.031000000000000227e+01
-1.120300000000000011e+02
-4.742999999999999972e+01
1.204000000000000057e+02
9.210000000000000853e+00
5.428999999999999915e+01
1.938300000000000125e+02
1.297599999999999909e+02
2.580000000000000071e+00
-1.294300000000000068e+02
-4.994200000000000159e+02
-5.914900000000000091e+02
5.559900000000000091e+02
4.178199999999999932e+02
1.107800000000000011e+02
-5.479999999999999716e+01
2.558100000000000023e+02
-1.012399999999999949e+02
-1.065300000000000011e+02
1.849300000000000068e+02
1.058700000000000045e+02
-4.753399999999999750e+02
-2.879999999999999893e+00
3.176200000000000045e+02
-1.200400000000000063e+02
-1.890500000000000114e+02
3.470699999999999932e+02
1.373400000000000034e+02
-2.951200000000000045e+02
1.548700000000000045e+02
1.306100000000000136e+02
-1.412500000000000000e+02
5.230000000000000426e+00
-6.954999999999999716e+01
7.990000000000000213e+00
-2.748999999999999844e+01
-7.103000000000000114e+01
-6.070000000000000284e+01
7.501000000000000512e+01
1.300999999999999979e+01
-3.810000000000000053e+00
2.109999999999999876e+00
-7.737000000000000455e+01
-1.371000000000000085e+01
7.296999999999999886e+01
8.970999999999999375e+01
-1.925300000000000011e+02
4.153999999999999915e+01
5.829999999999999716e+01
-5.974000000000000199e+01
3.514999999999999858e+01
-3.500999999999999801e+01
5.017000000000000171e+01
1.740000000000000000e+02
-9.920000000000000284e+01
-1.258999999999999986e+01
-1.086400000000000006e+02
9.845999999999999375e+01
7.632999999999999829e+01
-7.620000000000000107e+00
-2.673999999999999844e+01
1.757000000000000028e+01
-6.129999999999999893e+00
1.111200000000000045e+02
-1.366999999999999993e+01
-7.604000000000000625e+01
-1.146099999999999994e+02
1.219399999999999977e+02
5.085000000000000142e+01
-7.529999999999999716e+01
2.130000000000000071e+01
1.072900000000000063e+02
8.645999999999999375e+01
-4.693999999999999773e+01
2.207999999999999829e+01
2.701999999999999957e+01
1.728000000000000114e+01
-9.407999999999999829e+01
1.000000000000000000e+00
-1.199699999999999989e+02
-1.027999999999999936e+01
5.600999999999999801e+01
1.109000000000000057e+02
-1.475900000000000034e+02
2.267000000000000171e+01
6.673000000000000398e+01
5.370000000000000107e+00
-5.075000000000000000e+01
1.731399999999999864e+02
-1.605200000000000102e+02
-5.247599999999999909e+02
1.713600000000000136e+02
-9.887999999999999545e+01
3.265500000000000114e+02
-1.691000000000000014e+01
-9.726999999999999602e+01
-1.027800000000000011e+02
7.256999999999999318e+01
3.001000000000000156e+01
-6.712000000000000455e+01
-4.078000000000000114e+01
5.722200000000000273e+02
6.239000000000000057e+01
-2.846899999999999977e+02
-4.509499999999999886e+02
-4.292099999999999795e+02
8.695000000000000284e+01
4.540099999999999909e+02
-2.442500000000000000e+02
1.810500000000000114e+02
-6.834999999999999432e+01
2.108700000000000045e+02
7.618999999999999773e+02
-3.541399999999999864e+02
-6.076799999999999500e+02
-1.774900000000000091e+02
2.833199999999999932e+02
6.134000000000000341e+01
-4.656000000000000227e+01
1.050799999999999983e+02
5.532000000000000028e+01
7.512000000000000455e+01
-5.614999999999999858e+01
-4.928999999999999915e+01
-6.676999999999999602e+01
6.568999999999999773e+01
2.389000000000000057e+01
6.423000000000000398e+01
-1.157199999999999989e+02
-2.150999999999999943e+02
2.512999999999999901e+01
6.518700000000000045e+02
-1.668499999999999943e+02
-4.620899999999999750e+02
1.974499999999999886e+02
7.190000000000000568e+01
2.013700000000000045e+02
-4.002599999999999909e+02
-5.040000000000000036e+00
3.819999999999999840e+00
2.228000000000000114e+02
-6.701999999999999602e+01
-1.278599999999999994e+02
4.635999999999999943e+01
9.882999999999999829e+01
-2.998999999999999844e+01
-1.040300000000000011e+02
-5.550999999999999801e+01
-2.917000000000000171e+01
3.085999999999999943e+01
-1.130000000000000000e+02
-1.341899999999999977e+02
-1.434900000000000091e+02
-5.521699999999999591e+02
2.052500000000000000e+02
4.695799999999999841e+02
1.011299999999999955e+02
-8.526900000000000546e+02
-5.089999999999999858e+01
3.133500000000000227e+02
7.431200000000000045e+02
1.695900000000000034e+02
-5.137899999999999636e+02
-2.164399999999999977e+02
-5.417000000000000171e+01
1.582599999999999909e+02
1.023799999999999955e+02
-5.435000000000000142e+01
-2.469999999999999929e+01
2.140000000000000124e+00
1.018999999999999950e+01
-2.916000000000000014e+01
2.077700000000000102e+02
2.823000000000000043e+01
-1.315099999999999909e+02
5.089000000000000057e+01
5.560000000000000142e+01
2.790500000000000114e+02
-1.809699999999999989e+02
-3.524599999999999795e+02
1.155000000000000071e+01
3.778500000000000227e+02
4.757999999999999829e+01
-2.171999999999999886e+02
-1.356800000000000068e+02
3.299000000000000199e+01
4.789999999999999858e+01
1.205799999999999983e+02
-1.344999999999999929e+01
2.781999999999999886e+02
8.015999999999999659e+01
-4.247900000000000205e+02
-1.899499999999999886e+02
-4.445000000000000284e+01
6.200000000000000178e+00
2.387999999999999901e+01
6.457999999999999829e+01
3.054700000000000273e+02
1.118199999999999932e+02
-3.066000000000000014e+01
-1.790000000000000036e+00
4.042999999999999972e+01
2.844000000000000128e+01
-1.232099999999999937e+02
4.679599999999999795e+02
-3.600999999999999801e+01
-3.243100000000000023e+02
-3.283700000000000045e+02
2.646299999999999955e+02
-3.642599999999999909e+02
2.375999999999999943e+02
3.684499999999999886e+02
-3.200799999999999841e+02
-1.132000000000000028e+01
9.015000000000000568e+01
-1.864999999999999858e+01
6.939000000000000057e+01
-1.334000000000000057e+02
-6.261999999999999744e+01
-3.350000000000000089e+00
3.789000000000000057e+01
-7.960999999999999943e+01
-4.234000000000000341e+01
1.867100000000000080e+02
4.446700000000000159e+02
-4.053299999999999841e+02
-2.099900000000000091e+02
5.381200000000000045e+02
1.203299999999999983e+02
1.421800000000000068e+02
-5.330000000000000071e+00
-2.995799999999999841e+02
-4.450600000000000023e+02
1.116999999999999993e+01
4.590699999999999932e+02
2.740199999999999818e+02
-8.565000000000000568e+01
-4.534700000000000273e+02
4.589999999999999858e+00
1.122199999999999989e+02
2.987599999999999909e+02
4.200000000000000000e+01
-1.137000000000000028e+02
-2.423000000000000114e+02
1.670000000000000000e+02
-1.673300000000000125e+02
3.871000000000000085e+01
1.262099999999999937e+02
1.359799999999999898e+02
3.137300000000000182e+02
-2.564599999999999795e+02
-8.831999999999999318e+01
-1.508999999999999986e+01
4.849000000000000199e+01
-2.520000000000000018e+00
-1.867000000000000171e+01
2.455000000000000071e+01
9.110999999999999943e+01
-5.807000000000000028e+01
-9.901999999999999602e+01
1.257199999999999989e+02
-6.729999999999999716e+01
-2.048000000000000043e+01
-1.078900000000000006e+02
-2.949200000000000159e+02
3.380199999999999818e+02
8.928000000000000114e+01
-3.186899999999999977e+02
2.260200000000000102e+02
-2.405300000000000011e+02
2.952500000000000000e+02
8.403000000000000114e+01
-2.728399999999999750e+02
-1.031800000000000068e+02
-9.553000000000000114e+01
-7.721999999999999886e+01
-5.231000000000000227e+01
1.964000000000000057e+01
1.453499999999999943e+02
-4.592000000000000171e+01
6.601999999999999602e+01
4.034000000000000341e+01
1.106000000000000050e+01
-1.071000000000000085e+01
-1.177099999999999937e+02
8.670999999999999375e+01
8.314000000000000057e+01
-1.285200000000000102e+02
2.685000000000000142e+01
8.550000000000000711e+00
-8.669999999999999929e+00
8.110999999999999943e+01
1.844999999999999929e+01
-3.180000000000000071e+01
5.360999999999999943e+01
1.184999999999999964e+01
-1.185999999999999943e+02
2.783700000000000045e+02
2.523199999999999932e+02
-2.235200000000000102e+02
-7.279000000000000625e+01
-7.306999999999999318e+01
-1.558000000000000007e+01
-1.705999999999999872e+01
-2.735000000000000142e+01
1.409999999999999920e+00
1.465000000000000036e+01
8.781000000000000227e+01
-2.066599999999999966e+02
2.897500000000000000e+02
-3.318999999999999773e+01
3.539999999999999858e+01
1.432199999999999989e+02
1.916999999999999886e+02
-2.934700000000000273e+02
1.311800000000000068e+02
-3.019200000000000159e+02
2.063700000000000045e+02
3.845000000000000284e+01
-2.410000000000000142e+01
8.781999999999999318e+01
1.209999999999999964e+01
-3.295199999999999818e+02
2.419999999999999929e+00
-3.914999999999999858e+01
9.932999999999999829e+01
6.789000000000000057e+01
-2.596000000000000085e+01
1.809199999999999875e+02
2.034699999999999989e+02
-1.392599999999999909e+02
-6.289900000000000091e+02
2.403400000000000034e+02
1.413199999999999932e+02
9.126999999999999602e+01
-7.478200000000000500e+02
-2.213499999999999943e+02
-4.014999999999999858e+01
2.228999999999999915e+01
5.077000000000000313e+01
1.090600000000000023e+02
1.759000000000000057e+02
2.958600000000000136e+02
6.801000000000000512e+01
-2.923999999999999844e+01
6.549999999999999822e+00
-9.330000000000000071e+00
1.637000000000000099e+01
-3.185999999999999943e+01
1.409999999999999920e+00
4.072999999999999687e+01
-2.069999999999999840e+00
3.242000000000000171e+01
-8.181000000000000227e+01
2.399999999999999911e+00
-9.725000000000000000e+01
-2.406800000000000068e+02
-2.261999999999999886e+02
5.693500000000000227e+02
1.925699999999999932e+02
-9.251999999999999602e+01
1.392999999999999972e+01
-9.909000000000000341e+01
9.232999999999999829e+01
-1.353100000000000023e+02
-3.588000000000000256e+01
3.509599999999999795e+02
1.546200000000000045e+02
-4.860799999999999841e+02
-1.304000000000000057e+02
-1.270000000000000018e+00
-6.071000000000000085e+01
8.718000000000000682e+01
9.818000000000000682e+01
7.854999999999999716e+01
-2.479199999999999875e+02
2.060099999999999909e+02
2.615600000000000023e+02
-1.621399999999999864e+02
-2.013899999999999864e+02
1.062000000000000028e+02
2.980699999999999932e+02
-6.937000000000000455e+01
-3.735099999999999909e+02
1.220199999999999960e+02
6.199999999999999956e-01
-1.180300000000000011e+02
-3.453000000000000114e+01
1.301399999999999864e+02
2.579499999999999886e+02
2.188799999999999955e+02
8.699999999999999289e+00
-3.918199999999999932e+02
-2.857900000000000205e+02
3.502200000000000273e+02
1.192999999999999972e+02
9.570000000000000284e+00
-8.881999999999999318e+01
2.849599999999999795e+02
2.089600000000000080e+02
3.032599999999999909e+02
-1.792000000000000171e+01
-1.844000000000000057e+02
-1.057500000000000000e+02
-2.153700000000000045e+02
-3.304599999999999795e+02
1.903700000000000045e+02
-1.466200000000000045e+02
-4.678399999999999750e+02
-1.004099999999999966e+02
-6.459999999999999964e+00
1.804399999999999977e+02
3.449599999999999795e+02
4.010999999999999943e+01
-5.123200000000000500e+02
7.857999999999999829e+01
6.067999999999999545e+02
-8.150000000000000000e+01
-3.214000000000000057e+01
-1.266400000000000006e+02
-2.126200000000000045e+02
1.355200000000000102e+02
1.867500000000000000e+02
-1.311100000000000136e+02
3.523399999999999750e+02
2.538499999999999943e+02
-5.172699999999999818e+02
8.939000000000000057e+01
7.732599999999999909e+02
-3.246700000000000159e+02
-3.188199999999999932e+02
-3.505500000000000114e+02
3.267500000000000000e+02
4.793999999999999773e+01
-1.031800000000000068e+02
2.004900000000000091e+02
1.789000000000000057e+01
2.645199999999999818e+02
-7.108099999999999454e+02
-6.440000000000000391e+00
4.501499999999999773e+02
8.609999999999999432e+01
-6.373999999999999773e+02
2.991000000000000227e+02
1.477400000000000091e+02
5.225999999999999801e+01
-6.773000000000000398e+01
2.192000000000000171e+01
-5.918999999999999773e+01
2.419999999999999929e+01
8.310000000000000497e+00
3.173999999999999844e+01
-4.195000000000000284e+01
1.015000000000000036e+01
-5.570000000000000284e+00
-3.825000000000000000e+01
3.956000000000000227e+01
-9.880000000000000782e+00
-1.270000000000000018e+00
3.627000000000000313e+01
-4.695000000000000284e+01
3.979999999999999982e+00
5.940000000000000391e+00
-2.830999999999999872e+01
2.055999999999999872e+01
2.979999999999999982e+00
-2.700000000000000178e-01
-1.176999999999999957e+01
-5.464999999999999858e+01
2.305000000000000071e+01
-4.940000000000000391e+00
-1.343999999999999950e+01
1.201999999999999957e+01
-1.050000000000000000e+01
1.944000000000000128e+01
7.800000000000000266e-01
-2.644000000000000128e+01
2.719999999999999929e+01
-8.769999999999999574e+00
-1.100000000000000000e+01
2.253000000000000114e+01
-2.105999999999999872e+01
1.167999999999999972e+01
1.519999999999999929e+01
-1.908999999999999986e+01
2.285999999999999943e+01
-3.040000000000000036e+00
-3.339999999999999858e+01
1.660000000000000142e+01
7.700000000000000178e+00
-1.368999999999999950e+01
2.009999999999999787e+00
-2.830999999999999872e+01
1.080000000000000071e+01
7.820000000000000284e+00
-3.214000000000000057e+01
4.853999999999999915e+01
-4.199999999999999845e-01
-3.185999999999999943e+01
3.060000000000000142e+01
-1.239000000000000057e+01
1.241000000000000014e+01
2.144000000000000128e+01
9.160000000000000142e+00
-8.089999999999999858e+00
-2.866000000000000014e+01
-4.392999999999999972e+01
2.183999999999999986e+01
1.870399999999999920e+02
1.274000000000000021e+01
-1.297000000000000064e+01
-2.737999999999999901e+01
-5.153999999999999915e+01
-1.207000000000000028e+01
-7.084999999999999432e+01
-3.239200000000000159e+02
3.285500000000000114e+02
1.940600000000000023e+02
-5.292000000000000171e+01
-1.104800000000000040e+02
-4.470000000000000284e+01
1.617999999999999972e+01
-5.030000000000000249e+00
3.810999999999999943e+01
1.726000000000000156e+01
2.189999999999999947e+00
-1.483999999999999986e+01
-2.705000000000000071e+01
-3.546000000000000085e+01
1.933999999999999986e+01
3.490000000000000213e+00
-2.000000000000000042e-02
2.187000000000000099e+01
-1.914000000000000057e+01
2.617000000000000171e+01
1.108999999999999986e+01
-3.207000000000000028e+01
4.000000000000000000e+01
-2.498000000000000043e+01
1.300000000000000044e-01
2.880999999999999872e+01
-1.755999999999999872e+01
2.314000000000000057e+01
-1.407000000000000028e+01
-2.480000000000000071e+01
3.005999999999999872e+01
4.280000000000000249e+00
-1.823000000000000043e+01
9.800000000000000711e+00
-1.755999999999999872e+01
2.740000000000000213e+00
1.589000000000000057e+01
-1.391999999999999993e+01
1.839999999999999858e+01
2.030999999999999872e+01
-1.653000000000000114e+01
2.251999999999999957e+01
1.338000000000000078e+01
-1.471000000000000085e+01
2.630000000000000071e+01
2.987999999999999901e+01
-2.448000000000000043e+01
-1.173000000000000043e+01
1.209999999999999964e+00
-2.610999999999999943e+01
1.916000000000000014e+01
7.339999999999999858e+00
-2.171999999999999886e+01
1.885000000000000142e+01
1.466999999999999993e+01
-2.689999999999999858e+01
1.762000000000000099e+01
3.361999999999999744e+01
-2.310000000000000053e+00
3.699000000000000199e+01
-1.991000000000000014e+01
-4.567999999999999972e+01
2.728999999999999915e+01
7.679999999999999716e+00
-2.667999999999999972e+01
1.164000000000000057e+01
3.569999999999999840e+00
1.810000000000000053e+00
2.910999999999999943e+01
-2.646000000000000085e+01
-4.867000000000000171e+01
1.654499999999999886e+02
-1.755000000000000071e+01
-2.000900000000000034e+02
-7.462999999999999545e+01
9.945000000000000284e+01
2.391599999999999966e+02
-2.619599999999999795e+02
-4.129999999999999893e+00
-4.028999999999999915e+01
1.300500000000000114e+02
-2.353000000000000114e+02
-3.368399999999999750e+02
1.214399999999999977e+02
1.492599999999999909e+02
2.496999999999999886e+01
-6.056000000000000227e+01
-1.654900000000000091e+02
-5.577000000000000313e+01
3.999000000000000199e+01
-2.894000000000000128e+01
5.267000000000000171e+01
1.654600000000000080e+02
-8.248000000000000398e+01
-6.139999999999999680e+00
7.073000000000000398e+01
-4.489000000000000057e+01
3.959999999999999964e+00
1.289000000000000057e+01
-4.467999999999999972e+01
1.380000000000000071e+01
2.469999999999999929e+01
-1.696999999999999886e+01
2.789000000000000057e+01
-1.540000000000000036e+00
-3.835999999999999943e+01
4.018999999999999773e+01
-1.409999999999999920e+00
-3.431000000000000227e+01
3.624000000000000199e+01
1.227999999999999936e+01
-4.507999999999999829e+01
2.503999999999999915e+01
-7.690000000000000391e+00
-3.696999999999999886e+01
5.942999999999999972e+01
9.223000000000000398e+01
-2.750000000000000000e+00
-2.346999999999999886e+01
-7.856000000000000227e+01
-6.637999999999999545e+01
4.940000000000000391e+00
4.646999999999999886e+01
-6.075999999999999801e+01
-5.374000000000000199e+01
-2.937999999999999901e+01
-2.571000000000000085e+01
4.711999999999999744e+01
-4.228000000000000114e+01
6.154999999999999716e+01
8.750000000000000000e+01
-6.987999999999999545e+01
-7.506000000000000227e+01
5.492999999999999972e+01
5.340999999999999659e+01
-6.053999999999999915e+01
-3.529999999999999805e+00
3.457999999999999829e+01
7.230000000000000426e+00
-8.689000000000000057e+01
-2.130999999999999872e+01
-2.526999999999999957e+01
1.052300000000000040e+02
3.829999999999999716e+01
-1.757000000000000028e+01
-5.849999999999999645e+00
-8.931999999999999318e+01
-1.964000000000000057e+01
-1.621999999999999886e+01
4.304999999999999716e+01
-3.507000000000000028e+01
1.880999999999999872e+01
-3.368999999999999773e+01
-1.330000000000000071e+00
1.516999999999999993e+01
-4.400000000000000355e+00
1.757000000000000028e+01
5.646000000000000085e+01
7.040000000000000036e+00
5.480000000000000426e+00
1.544999999999999929e+01
3.917000000000000171e+01
6.650000000000000000e+01
-1.273499999999999943e+02
-3.857000000000000028e+01
1.035300000000000011e+02
-4.570299999999999727e+02
1.185900000000000034e+02
1.404799999999999898e+02
6.931999999999999318e+01
-1.737000000000000099e+01
-4.240000000000000213e+00
-5.542999999999999972e+01
1.045699999999999932e+02
1.787000000000000099e+01
-5.107000000000000028e+01
7.845999999999999375e+01
-1.072900000000000063e+02
6.720000000000000284e+01
2.785999999999999943e+01
-7.871999999999999886e+01
8.679999999999999716e+00
3.005999999999999872e+01
-4.264000000000000057e+01
3.083999999999999986e+01
-6.500000000000000222e-01
-3.720000000000000284e+01
3.514000000000000057e+01
-1.987000000000000099e+01
-6.200000000000000178e+00
1.748999999999999844e+01
-2.055999999999999872e+01
-6.799999999999999822e+00
1.862000000000000099e+01
-2.487999999999999901e+01
7.370000000000000107e+00
1.769999999999999929e+01
-1.283999999999999986e+01
-4.589999999999999858e+00
1.778999999999999915e+01
-1.076999999999999957e+01
-1.989000000000000057e+01
2.098000000000000043e+01
-5.339999999999999858e+00
-3.546999999999999886e+01
2.050000000000000000e+01
2.350000000000000089e+00
-3.835999999999999943e+01
2.442999999999999972e+01
8.140000000000000568e+00
-3.260999999999999943e+01
1.257000000000000028e+01
-1.072000000000000064e+01
-3.139000000000000057e+01
1.885999999999999943e+01
-1.583000000000000007e+01
-8.910000000000000142e+00
2.971000000000000085e+01
-1.368999999999999950e+01
2.189999999999999858e+01
4.553999999999999915e+01
-4.429999999999999716e+01
2.358999999999999986e+01
7.980000000000000426e+00
-2.537999999999999901e+01
4.268999999999999773e+01
1.434999999999999964e+01
3.700000000000000178e+00
-5.300000000000000266e-01
-2.455000000000000071e+01
-5.404999999999999716e+01
2.312000000000000099e+01
1.401999999999999957e+01
1.937000000000000099e+01
2.470000000000000195e+00
-4.871000000000000085e+01
8.240000000000000213e+00
5.620000000000000107e+00
-4.759000000000000341e+01
3.685000000000000142e+01
-1.375999999999999979e+01
-3.153000000000000114e+01
3.245000000000000284e+01
-2.571000000000000085e+01
2.737999999999999901e+01
3.014999999999999858e+01
-3.714999999999999858e+01
4.796000000000000085e+01
2.903000000000000114e+01
-3.772999999999999687e+01
4.049000000000000199e+01
3.202000000000000313e+01
-3.557000000000000028e+01
1.053999999999999915e+01
3.635999999999999943e+01
-1.502999999999999936e+01
-4.914999999999999858e+01
4.275000000000000000e+01
8.000000000000000167e-02
-4.772999999999999687e+01
3.868999999999999773e+01
2.003000000000000114e+01
-2.414000000000000057e+01
-8.560000000000000497e+00
1.957999999999999829e+01
-1.092999999999999972e+01
-6.275000000000000000e+01
2.782999999999999829e+01
4.469999999999999751e+00
-3.978999999999999915e+01
3.935999999999999943e+01
9.810000000000000497e+00
-4.314999999999999858e+01
3.939999999999999858e+01
2.400000000000000000e+01
1.331000000000000050e+01
1.199999999999999956e-01
-1.732000000000000028e+01
-5.653999999999999915e+01
2.505000000000000071e+01
2.392000000000000171e+01
-1.525999999999999979e+01
3.421999999999999886e+01
-1.000000000000000056e-01
-4.728000000000000114e+01
1.308000000000000007e+01
-1.000000000000000021e-02
-4.750000000000000000e+01
2.794000000000000128e+01
-3.959999999999999964e+00
-1.200000000000000000e+01
2.989000000000000057e+01
-1.147000000000000064e+01
1.358000000000000007e+01
1.678000000000000114e+01
-2.373000000000000043e+01
3.281000000000000227e+01
1.089000000000000057e+01
-3.162000000000000099e+01
3.981000000000000227e+01
6.400000000000000355e+00
-3.231000000000000227e+01
2.073000000000000043e+01
-1.457000000000000028e+01
-1.494999999999999929e+01
1.837999999999999901e+01
-2.214999999999999858e+01
2.360000000000000142e+01
1.086999999999999922e+01
-4.170000000000000284e+01
3.307000000000000028e+01
3.640000000000000124e+00
-3.721999999999999886e+01
2.471000000000000085e+01
-6.629999999999999893e+00
1.429999999999999938e+00
1.583999999999999986e+01
-2.294999999999999929e+01
2.801999999999999957e+01
3.089999999999999858e+00
-3.617999999999999972e+01
3.028999999999999915e+01
-3.120000000000000107e+00
-2.221999999999999886e+01
1.650000000000000000e+01
-1.892000000000000171e+01
1.707999999999999829e+01
8.660000000000000142e+00
-2.953999999999999915e+01
2.860999999999999943e+01
7.669999999999999929e+00
-3.892000000000000171e+01
2.321999999999999886e+01
-1.111999999999999922e+01
-5.959999999999999964e+00
1.135999999999999943e+01
-2.217999999999999972e+01
2.601999999999999957e+01
1.166000000000000014e+01
1.368999999999999950e+01
8.490000000000000213e+00
-2.528000000000000114e+01
-3.361999999999999744e+01
2.446000000000000085e+01
-1.007000000000000028e+01
6.519999999999999574e+00
4.910000000000000142e+00
-1.967999999999999972e+01
2.826999999999999957e+01
-8.109999999999999432e+00
-3.493999999999999773e+01
2.503999999999999915e+01
-1.102999999999999936e+01
1.300000000000000000e+01
1.502999999999999936e+01
-3.019000000000000128e+01
3.557000000000000028e+01
9.640000000000000568e+00
-2.957000000000000028e+01
2.394000000000000128e+01
-1.015000000000000036e+01
-6.540000000000000036e+00
1.046000000000000085e+01
-1.882000000000000028e+01
2.694000000000000128e+01
3.259999999999999787e+00
-3.450999999999999801e+01
2.435000000000000142e+01
-5.129999999999999893e+00
-2.548000000000000043e+01
1.644000000000000128e+01
-8.970000000000000639e+00
-2.189000000000000057e+01
1.363000000000000078e+01
-1.566200000000000045e+02
1.432400000000000091e+02
3.112000000000000099e+01
-1.307899999999999920e+02
2.395600000000000023e+02
-1.439000000000000057e+02
4.309999999999999609e+00
5.139999999999999858e+01
-1.489699999999999989e+02
-1.926000000000000156e+01
-3.153999999999999915e+01
3.717999999999999972e+01
-4.188000000000000256e+01
9.019999999999999574e+00
-3.119000000000000128e+01
6.729000000000000625e+01
5.364000000000000057e+01
3.996999999999999886e+01
1.086999999999999922e+01
-2.376999999999999957e+01
5.514000000000000057e+01
1.225999999999999943e+02
-1.532000000000000028e+01
-9.684999999999999432e+01
1.308700000000000045e+02
9.309000000000000341e+01
2.582599999999999909e+02
-2.724300000000000068e+02
8.965999999999999659e+01
-4.730000000000000426e+00
-1.730999999999999872e+01
7.856000000000000227e+01
-4.554999999999999716e+01
-8.557999999999999829e+01
1.302800000000000011e+02
8.490000000000000213e+00
-4.556000000000000227e+01
-9.401000000000000512e+01
1.853000000000000114e+01
1.416000000000000014e+01
-1.567999999999999972e+01
2.291000000000000014e+01
2.573600000000000136e+02
-1.130799999999999983e+02
-1.527299999999999898e+02
-1.108599999999999994e+02
2.296800000000000068e+02
-5.246999999999999886e+01
-8.059000000000000341e+01
-5.017999999999999972e+01
-1.272000000000000064e+01
3.947999999999999687e+01
-8.359999999999999432e+00
-4.628999999999999915e+01
1.096599999999999966e+02
-3.220000000000000284e+01
-3.300999999999999801e+01
1.855000000000000071e+01
4.200000000000000178e+00
-4.490999999999999659e+01
3.368999999999999773e+01
2.857999999999999829e+01
-5.053000000000000114e+01
3.224000000000000199e+01
-1.610999999999999943e+01
-2.687000000000000099e+01
5.006000000000000227e+01
2.357000000000000028e+01
-1.998000000000000043e+01
-2.382999999999999829e+01
2.355000000000000071e+01
-1.446000000000000085e+01
-2.360999999999999943e+01
3.217999999999999972e+01
-2.705000000000000071e+01
-1.714999999999999858e+01
4.563000000000000256e+01
-2.423999999999999844e+01
2.903000000000000114e+01
2.251000000000000156e+01
-2.255000000000000071e+01
-1.217999999999999972e+01
1.751999999999999957e+01
-1.800000000000000044e+00
3.709999999999999964e+00
-1.696999999999999886e+01
-2.873999999999999844e+01
1.539000000000000057e+01
1.907000000000000028e+01
-1.413000000000000078e+01
1.517999999999999972e+01
3.870000000000000107e+00
-3.432999999999999829e+01
2.791000000000000014e+01
2.032999999999999829e+01
4.600000000000000000e+01
1.674399999999999977e+02
-2.046999999999999886e+02
-5.803999999999999915e+01
1.899999999999999911e+00
1.880999999999999872e+01
7.559999999999999609e+00
-1.283999999999999986e+01
1.386999999999999922e+01
8.098999999999999488e+01
3.021000000000000085e+01
-1.382000000000000028e+01
1.840000000000000080e+00
-1.079599999999999937e+02
-1.253900000000000006e+02
2.726000000000000156e+01
5.500000000000000444e-01
-1.225999999999999979e+01
2.992999999999999972e+01
-1.382000000000000028e+01
9.609999999999999432e+00
2.448999999999999844e+01
-3.745000000000000284e+01
4.595000000000000284e+01
1.123000000000000043e+01
-6.211999999999999744e+01
4.956000000000000227e+01
-4.450000000000000178e+00
-9.851000000000000512e+01
6.545999999999999375e+01
4.327000000000000313e+01
-2.698999999999999844e+01
5.307999999999999829e+01
-2.303999999999999915e+01
-1.773000000000000043e+01
6.662999999999999545e+01
2.776000000000000156e+01
-3.073999999999999844e+01
1.929499999999999886e+02
-1.444000000000000057e+02
2.762999999999999901e+01
-5.152000000000000313e+01
8.919999999999999929e+00
1.951200000000000045e+02
-3.981000000000000227e+01
-6.664000000000000057e+01
-5.896999999999999886e+01
3.838000000000000256e+01
3.899999999999999911e+00
-4.945000000000000284e+01
2.092000000000000171e+01
5.879999999999999716e+01
-4.828000000000000114e+01
2.110999999999999943e+01
-3.978999999999999915e+01
-9.034999999999999432e+01
2.760000000000000142e+01
-2.487000000000000099e+01
2.898999999999999844e+01
4.271000000000000085e+01
-4.477000000000000313e+01
5.145000000000000284e+01
5.689999999999999858e+01
-4.875999999999999801e+01
3.729999999999999982e+00
2.889999999999999858e+01
-5.715999999999999659e+01
1.419399999999999977e+02
2.630999999999999872e+01
-3.409000000000000341e+01
-2.910000000000000142e+01
7.151999999999999602e+01
-4.678999999999999915e+01
9.676000000000000512e+01
4.057000000000000028e+01
-1.456399999999999864e+02
1.252999999999999936e+01
6.059999999999999609e+00
-3.110999999999999943e+01
3.017999999999999972e+01
-3.689999999999999947e+00
1.042999999999999972e+01
2.498000000000000043e+01
-2.655999999999999872e+01
3.653999999999999915e+01
1.139000000000000057e+01
-5.207000000000000028e+01
3.155000000000000071e+01
4.699000000000000199e+01
-6.559999999999999609e+00
5.578000000000000114e+01
-1.321000000000000085e+01
-3.577000000000000313e+01
1.316999999999999993e+01
-3.292000000000000171e+01
2.194000000000000128e+01
4.379999999999999893e+00
-5.536999999999999744e+01
3.005999999999999872e+01
-7.099999999999999645e-01
-8.369999999999999218e+00
2.228000000000000114e+01
-2.714000000000000057e+01
2.144000000000000128e+01
8.539999999999999147e+00
-3.763000000000000256e+01
3.073000000000000043e+01
-1.541000000000000014e+01
-2.917999999999999972e+01
2.723999999999999844e+01
1.444999999999999929e+01
2.519999999999999929e+01
-6.099999999999999645e+00
-1.056000000000000050e+01
-6.469999999999999751e+00
-2.067000000000000171e+01
-2.230000000000000071e+01
-1.659999999999999920e+00
-4.239000000000000057e+01
2.555999999999999872e+01
9.210000000000000853e+00
-2.085000000000000142e+01
2.235999999999999943e+01
-3.935999999999999943e+01
2.178000000000000114e+01
-1.143999999999999950e+01
-6.418999999999999773e+01
4.586999999999999744e+01
-1.223000000000000043e+01
7.921999999999999886e+01
2.639000000000000057e+01
-6.459000000000000341e+01
5.027000000000000313e+01
-1.005000000000000071e+01
4.814999999999999858e+01
2.560000000000000142e+01
-1.257000000000000028e+02
7.601000000000000512e+01
-6.700000000000000178e+00
-3.364499999999999886e+02
1.953700000000000045e+02
1.341500000000000057e+02
1.214000000000000057e+02
2.526200000000000045e+02
-7.917000000000000171e+01
-3.904900000000000091e+02
-4.423799999999999955e+02
4.925099999999999909e+02
1.743700000000000045e+02
1.145400000000000063e+02
-2.726999999999999957e+01
-1.182000000000000028e+02
-7.032999999999999829e+01
-7.709999999999999964e+00
8.468000000000000682e+01
-5.849000000000000199e+01
-1.795300000000000011e+02
1.097099999999999937e+02
6.199999999999999956e-01
7.029000000000000625e+01
5.218999999999999773e+01
-4.735000000000000142e+01
5.832000000000000028e+01
4.810999999999999943e+01
-9.779999999999999361e+00
5.784000000000000341e+01
-3.930000000000000160e+00
-5.535000000000000142e+01
1.386999999999999922e+01
-7.012000000000000455e+01
8.859999999999999432e+00
2.294000000000000128e+01
-2.401999999999999957e+01
9.160000000000000142e+00
-1.116000000000000014e+01
-1.903000000000000114e+01
2.403000000000000114e+01
-1.705000000000000071e+01
-8.651000000000000512e+01
3.037000000000000099e+01
2.055999999999999872e+01
-5.628999999999999915e+01
4.250000000000000000e+01
-2.085999999999999943e+01
1.528999999999999915e+01
4.206000000000000227e+01
-5.027000000000000313e+01
1.546000000000000085e+01
-9.550000000000000711e+00
-6.032999999999999829e+01
5.924000000000000199e+01
2.535000000000000142e+01
-6.793000000000000682e+01
5.736999999999999744e+01
3.003999999999999915e+01
-6.384000000000000341e+01
5.659000000000000341e+01
4.259999999999999787e+00
-7.512000000000000455e+01
7.700000000000000000e+01
-1.472000000000000064e+01
-5.996000000000000085e+01
1.582000000000000028e+01
-6.259999999999999787e+00
-2.032999999999999829e+01
4.360999999999999943e+01
3.600000000000000089e+00
-7.448000000000000398e+01
1.053999999999999915e+01
-4.385000000000000142e+01
-6.057999999999999829e+01
2.999999999999999889e-02
6.999999999999999556e-01
6.169999999999999929e+00
2.032000000000000028e+01
-3.950999999999999801e+01
6.790000000000000036e+00
3.385000000000000142e+01
-4.885999999999999943e+01
-9.499999999999999556e-01
3.696999999999999886e+01
-6.730000000000000426e+00
4.989000000000000057e+01
1.138000000000000078e+01
-6.082000000000000028e+01
4.913000000000000256e+01
2.062000000000000099e+01
-3.714999999999999858e+01
4.072999999999999687e+01
-1.288700000000000045e+02
3.390000000000000124e+00
-9.081000000000000227e+01
-4.793999999999999773e+01
6.543999999999999773e+01
1.923600000000000136e+02
1.513899999999999864e+02
-4.138000000000000256e+01
-9.301000000000000512e+01
-1.658199999999999932e+02
4.000000000000000222e-01
-1.549000000000000021e+01
-1.206000000000000050e+01
4.296000000000000085e+01
-3.628000000000000114e+01
1.003299999999999983e+02
1.004099999999999966e+02
-2.000000000000000000e+01
5.258700000000000045e+02
-3.369100000000000250e+02
-6.659999999999999432e+01
7.546999999999999886e+01
-4.227000000000000313e+01
5.236999999999999744e+01
7.537000000000000455e+01
-2.976000000000000156e+01
5.603000000000000114e+01
4.814999999999999858e+01
-5.065999999999999659e+01
4.177000000000000313e+01
4.546000000000000085e+01
-7.940999999999999659e+01
1.716000000000000014e+01
3.492999999999999972e+01
-8.871999999999999886e+01
5.629999999999999893e+00
1.485999999999999943e+01
-1.855999999999999872e+01
9.990000000000000568e+01
-4.557999999999999829e+01
6.396999999999999886e+01
1.200799999999999983e+02
-1.276999999999999957e+01
-1.313499999999999943e+02
6.990000000000000568e+01
-2.040099999999999909e+02
6.409999999999999432e+01
6.459999999999999964e+00
6.469999999999999751e+00
-2.410000000000000142e+00
3.863000000000000256e+01
-9.887000000000000455e+01
-9.543000000000000682e+01
9.971999999999999886e+01
1.923999999999999844e+01
-5.367000000000000171e+01
8.507999999999999829e+01
-9.699999999999999289e+00
-2.312000000000000099e+01
5.061999999999999744e+01
-2.569999999999999929e+01
5.377000000000000313e+01
2.046000000000000085e+01
-6.182999999999999829e+01
5.146000000000000085e+01
-4.950000000000000178e+00
-3.689999999999999858e+01
2.092999999999999972e+01
-2.816000000000000014e+01
1.449000000000000021e+01
-7.580000000000000071e+00
-6.188000000000000256e+01
4.371999999999999886e+01
2.458999999999999986e+01
-1.780000000000000027e+00
-3.642000000000000171e+01
