1589141032.00
64.000000
-0.00
-0.00
-0.00
-0.00
-0.00
-0.00
-0.00
-0.00
-0.00
-0.00
0.00
0.01
0.01
-0.00
-0.03
-0.05
-0.05
0.00
0.13
0.36
0.66
1.01
1.37
1.72
2.06
2.40
2.79
3.24
3.80
4.42
5.06
5.66
6.20
6.68
7.15
7.68
8.31
9.14
10.09
11.04
11.88
12.56
13.14
13.76
14.65
15.96
17.91
20.32
22.90
25.38
27.58
29.57
31.68
34.32
37.81
42.54
48.15
54.10
59.83
64.97
69.58
74.14
79.34
85.71
93.76
103.00
112.62
121.73
129.77
136.75
143.30
150.75
157.77
166.64
177.95
191.79
206.97
220.57
228.25
225.36
208.53
176.87
132.76
80.05
23.07
-34.94
-92.44
-149.16
-205.23
-260.37
-313.74
-363.87
-409.83
-450.91
-486.50
-515.74
-537.23
-549.22
-549.96
-538.37
-514.21
-478.67
-433.88
-382.45
-327.02
-269.84
-212.63
-156.66
-102.95
-52.37
-5.90
35.58
71.43
101.35
125.50
144.38
158.69
169.15
176.37
180.75
182.57
182.07
179.51
175.23
169.65
163.18
156.15
148.81
141.30
133.69
126.02
118.33
110.69
103.16
95.80
88.68
81.83
75.25
68.95
62.95
57.25
51.86
46.78
42.03
37.59
33.45
29.61
26.07
22.81
19.83
17.11
14.67
12.48
10.54
8.83
7.35
6.07
4.97
4.04
3.27
2.63
2.11
1.68
1.31
0.99
0.72
0.48
0.28
0.13
0.03
-0.04
-0.09
-0.15
-0.23
-0.33
-0.44
-0.54
-0.61
-0.64
-0.64
-0.64
-0.67
-0.77
-0.91
-1.08
-1.23
-1.32
-1.31
-1.27
-1.25
-1.34
-1.61
-2.04
-2.55
-3.01
-3.30
-3.37
-3.31
-3.28
-3.49
-4.04
-4.93
-5.98
-6.93
-7.57
-7.79
-7.73
-7.70
-8.03
-8.94
-10.38
-12.07
-13.61
-14.66
-15.10
-15.10
-15.04
-15.30
-16.16
-17.75
-20.07
-22.92
-25.86
-28.04
-28.42
-26.07
-20.70
-12.92
-4.16
3.90
10.01
13.93
16.32
18.37
21.00
24.47
28.39
32.09
35.10
37.39
39.20
40.68
41.64
41.51
39.68
35.79
30.09
23.41
16.93
11.75
8.58
7.62
8.58
10.86
13.66
16.19
17.80
18.17
17.38
15.95
14.55
13.65
13.28
12.98
12.15
10.44
8.01
5.50
3.76
3.10
3.26
3.49
2.85
0.70
-3.09
-8.06
-13.33
-17.88
-20.75
-21.23
-19.10
-14.72
-8.96
-3.02
1.96
5.14
6.20
5.22
2.66
-0.89
-4.76
-8.33
-11.10
-12.86
-13.67
-13.87
-13.87
-13.87
-13.86
-13.55
-12.63
-10.92
-8.54
-5.87
-3.41
-1.60
-0.63
-0.38
-0.49
-0.54
-0.20
0.55
1.48
2.12
1.97
0.63
-2.06
-5.92
-10.44
-14.91
-18.47
-20.39
-20.25
-18.01
-14.05
-8.98
-3.51
1.68
6.12
9.58
12.21
14.43
17.03
20.64
25.58
31.71
38.33
44.48
49.31
52.43
54.01
54.53
54.39
53.56
51.53
47.53
41.01
32.00
21.15
9.57
-1.68
-11.99
-21.35
-30.23
-39.23
-48.83
-59.13
-70.01
-81.16
-92.20
-102.73
-112.31
-120.51
-127.04
-131.76
-134.68
-135.80
-135.08
-132.43
-128.01
-122.34
-116.26
-110.60
-105.77
-101.47
-96.86
-90.99
-83.41
-74.46
-65.11
-56.45
-49.00
-42.45
-35.72
-27.46
-16.77
-3.52
11.46
26.85
41.27
53.72
63.74
71.29
76.57
79.71
80.79
79.92
77.37
73.65
69.39
65.16
61.26
57.77
54.55
51.43
48.34
45.28
42.37
39.71
37.36
35.34
33.65
32.27
31.17
30.27
29.45
28.55
27.40
25.93
24.14
22.05
19.69
17.02
13.99
10.55
6.78
2.85
-0.98
-4.47
-7.47
-9.96
-12.06
-13.98
-15.98
-18.24
-20.81
-23.55
-26.09
-27.87
-28.23
-26.61
-22.64
-16.39
-8.31
0.76
9.86
18.13
25.03
30.38
34.37
37.37
39.73
41.69
43.31
44.56
45.38
45.72
45.54
44.83
43.59
41.85
39.77
37.62
35.73
34.40
33.66
33.32
33.01
32.36
31.20
29.60
27.77
25.89
23.94
21.76
19.06
15.66
11.56
7.02
2.37
-2.04
-5.99
-9.44
-12.43
-15.14
-17.69
-20.23
-22.86
-25.66
-28.67
-31.87
-35.08
-37.89
-39.68
-39.79
-37.75
-33.52
-27.57
-20.75
-13.91
-7.68
-2.30
2.34
6.45
10.15
13.38
16.00
17.91
19.19
19.99
20.51
20.81
20.81
20.41
19.53
18.27
16.87
15.67
14.92
14.69
14.88
15.20
15.32
15.00
14.10
12.70
11.04
9.39
7.96
6.78
5.67
4.39
2.73
0.60
-1.92
-4.63
-7.35
-9.98
-12.47
-14.83
-17.07
-19.16
-21.13
-23.11
-25.24
-27.63
-30.14
-32.31
-33.46
-32.89
-30.18
-25.43
-19.21
-12.34
-5.62
0.48
5.86
10.66
15.02
18.99
22.42
25.13
27.03
28.21
28.89
29.30
29.60
29.79
29.83
29.65
29.26
28.72
28.10
27.46
26.74
25.83
24.59
22.91
20.72
18.05
14.99
11.66
8.23
4.84
1.65
-1.21
-3.66
-5.76
-7.64
-9.50
-11.49
-13.65
-15.86
-17.92
-19.65
-20.97
-21.99
-22.91
-24.03
-25.61
-27.75
-30.30
-32.87
-34.88
-35.72
-34.84
-32.01
-27.34
-21.29
-14.53
-7.78
-1.62
3.59
7.82
11.23
14.07
16.53
18.60
20.12
20.92
21.01
20.61
20.09
19.78
19.84
20.15
20.46
20.51
20.17
19.47
18.56
17.56
16.51
15.42
14.25
12.99
11.61
10.11
8.50
6.80
5.03
3.24
1.45
-0.33
-2.13
-3.94
-5.74
-7.44
-8.95
-10.26
-11.42
-12.58
-13.85
-15.32
-16.96
-18.71
-20.51
-22.34
-24.15
-25.82
-27.04
-27.36
-26.27
-23.37
-18.61
-12.38
-5.44
1.29
7.06
11.45
14.47
16.42
17.65
18.42
18.77
18.66
18.06
17.11
16.11
15.33
14.97
14.93
14.93
14.61
13.72
12.29
10.56
8.92
7.63
6.73
5.98
5.04
3.68
1.91
0.03
-1.59
-2.64
-3.06
-3.00
-2.74
-2.55
-2.57
-2.79
-3.14
-3.51
-3.83
-4.08
-4.30
-4.57
-4.98
-5.60
-6.44
-7.47
-8.62
-9.80
-10.83
-11.42
-11.20
-9.74
-6.72
-2.13
3.72
10.17
16.45
21.89
26.12
29.10
31.07
32.33
33.12
33.55
33.62
33.32
32.75
32.03
31.36
30.87
30.57
30.34
30.06
29.66
29.17
28.73
28.43
28.30
28.21
28.02
27.65
27.20
26.92
27.06
27.77
28.94
30.26
31.35
31.87
31.74
31.06
30.08
29.01
28.06
27.24
26.56
25.93
25.28
24.53
23.61
22.53
21.31
20.06
18.89
17.99
17.45
17.33
17.47
17.57
17.24
16.12
14.00
10.94
7.24
3.44
0.08
-2.43
-4.00
-4.87
-5.59
-6.81
-9.14
-12.87
-18.02
-24.34
-31.44
-39.05
-47.00
-55.26
-63.77
-72.24
-80.07
-86.50
-90.76
-92.42
-91.56
-88.73
-84.72
-80.20
-75.52
-70.63
-65.36
-59.65
-53.75
-48.17
-43.38
-39.57
-36.55
-33.87
-31.13
-28.19
-25.18
-22.46
-20.32
-18.93
-18.32
-18.45
-19.23
-20.57
-22.20
-23.72
-24.54
-24.15
-22.23
-18.77
-14.16
-8.96
-3.80
0.85
4.70
7.76
10.16
12.11
13.78
15.20
16.25
16.82
16.91
16.77
16.80
17.45
18.98
21.34
24.14
26.80
28.73
29.53
29.08
27.48
25.05
22.20
19.31
16.72
14.65
13.19
12.29
11.82
11.63
11.61
11.61
11.48
11.05
10.16
8.73
6.77
4.40
1.82
-0.77
-3.23
-5.49
-7.52
-9.40
-11.18
-12.94
-14.73
-16.55
-18.31
-19.89
-21.14
-21.89
-22.06
-21.57
-20.43
-18.66
-16.33
-13.61
-10.68
-7.77
-5.08
-2.78
-0.94
0.46
1.51
2.36
3.12
3.89
4.67
5.44
6.11
6.63
7.01
7.31
7.69
8.20
8.82
9.37
9.63
9.41
8.71
7.67
6.54
5.53
4.72
4.04
3.40
2.82
2.40
2.30
2.57
3.05
3.42
3.34
2.62
1.33
-0.27
-1.86
-3.21
-4.28
-5.18
-6.09
-7.15
-8.38
-9.69
-10.91
-11.82
-12.23
-12.02
-11.20
-9.84
-8.16
-6.32
-4.52
-2.85
-1.32
0.11
1.47
2.75
3.89
4.83
5.59
6.25
7.00
7.98
9.18
10.45
11.55
12.30
12.68
12.83
12.94
13.17
13.48
13.73
13.68
13.18
12.13
10.54
8.42
5.86
2.96
-0.10
-3.11
-5.87
-8.38
-10.74
-13.20
-15.96
-19.10
-22.47
-25.73
-28.42
-30.17
-30.83
-30.55
-29.75
-28.96
-28.60
-28.87
-29.67
-30.65
-31.36
-31.39
-30.45
-28.42
-25.34
-21.41
-16.97
-12.47
-8.36
-4.95
-2.30
-0.26
1.40
2.93
4.38
5.69
6.74
7.51
8.05
8.54
9.07
9.63
10.08
10.24
10.03
9.49
8.80
8.10
7.40
6.58
5.44
3.88
1.97
-0.06
-1.89
-3.30
-4.19
-4.61
-4.65
-4.47
-4.20
-3.99
-3.95
-4.14
-4.50
-4.89
-5.17
-5.34
-5.57
-6.16
-7.41
-9.45
-12.21
-15.35
-18.38
-20.75
-21.97
-21.72
-19.89
-16.62
-12.30
-7.44
-2.57
1.91
5.78
8.97
11.52
13.46
14.80
15.56
15.83
15.76
15.51
15.24
14.99
14.75
14.48
14.23
14.08
14.13
14.42
14.87
15.35
15.71
15.86
15.74
15.37
14.77
14.07
13.44
13.12
13.30
14.01
15.05
16.06
16.65
16.61
16.01
15.14
14.40
14.14
14.58
15.77
17.67
20.15
22.96
25.76
28.12
29.69
30.31
30.12
29.45
28.72
28.11
27.45
26.30
24.14
20.71
16.20
11.23
6.60
2.94
0.58
-0.55
-0.74
-0.28
0.62
1.84
3.30
4.74
5.83
6.24
5.78
4.46
2.51
0.25
-2.00
-4.08
-5.93
-7.62
-9.25
-10.89
-12.56
-14.18
-15.55
-16.51
-16.89
-16.67
-15.96
-15.01
-14.05
-13.28
-12.78
-12.56
-12.61
-12.94
-13.57
-14.50
-15.66
-16.89
-17.94
-18.65
-18.94
-18.85
-18.50
-18.06
-17.68
-17.42
-17.31
-17.24
-17.07
-16.55
-15.50
-13.79
-11.45
-8.67
-5.66
-2.61
0.39
3.35
6.27
9.08
11.65
13.79
15.39
16.40
16.84
16.77
16.24
15.34
14.20
12.99
11.87
10.90
10.05
9.16
8.10
6.81
5.38
3.99
2.82
1.96
1.36
0.90
0.41
-0.20
-0.99
-1.89
-2.80
-3.65
-4.40
-5.12
-5.88
-6.75
-7.70
-8.67
-9.55
-10.34
-11.06
-11.83
-12.76
-13.86
-15.08
-16.27
-17.26
-17.93
-18.14
-17.82
-16.88
-15.25
-12.96
-10.08
-6.79
-3.25
0.33
3.81
7.08
10.09
12.83
15.25
17.30
18.93
20.06
20.64
20.65
20.19
19.45
18.69
18.06
17.62
17.46
17.67
18.37
19.58
21.21
23.06
24.82
25.97
26.09
25.12
23.36
21.34
19.48
17.93
16.57
15.06
12.61
8.53
2.62
-4.71
-12.66
-20.42
-27.33
-32.96
-37.11
-40.25
-43.01
-45.98
-49.46
-53.69
-58.84
-64.91
-71.45
-74.94
-72.33
-62.80
-48.23
-31.34
-14.17
1.90
15.71
26.07
31.92
32.36
27.37
18.16
7.00
-3.59
-11.78
-16.72
-18.56
-18.13
-16.48
-14.51
-12.63
-10.80
-8.86
-6.85
-5.04
-3.79
-3.35
-3.82
-5.15
-7.01
-8.95
-10.58
-11.75
-12.34
-12.17
-11.38
-9.95
-8.02
-5.87
-3.95
-2.70
-2.44
-3.20
-4.70
-6.50
-8.03
-8.91
-8.93
-8.12
-6.62
-4.78
-2.96
-1.49
-0.55
-0.03
0.36
1.08
2.58
5.18
8.89
13.39
18.09
22.32
25.55
27.55
28.46
28.67
28.70
29.03
29.97
31.66
34.05
36.93
39.96
42.72
44.84
46.10
46.47
46.09
45.14
43.75
41.94
39.69
37.01
33.98
30.79
27.65
24.73
22.08
19.68
17.45
15.36
13.47
11.95
10.98
10.67
11.00
11.73
12.48
12.90
12.79
12.20
11.43
10.92
11.07
12.08
13.91
16.28
18.82
21.12
22.93
24.19
25.11
26.16
28.06
31.56
37.15
44.63
52.74
59.01
60.25
53.34
36.45
9.96
-23.37
-58.92
-91.48
-116.55
-131.32
-135.02
-128.78
-115.07
-97.13
-78.35
-61.61
-48.70
-40.06
-34.80
-31.16
-27.16
-21.30
-12.95
-2.50
8.77
19.11
26.84
30.94
31.39
29.24
26.21
23.99
23.71
25.62
29.23
33.67
38.00
41.31
42.79
41.82
38.19
32.25
25.00
17.71
11.52
6.95
3.82
1.39
-1.30
-5.08
-10.48
-17.66
-26.35
-35.87
-45.20
-53.22
-58.97
-61.98
-62.41
-60.90
-58.31
-55.36
-52.49
-49.81
-47.24
-44.63
-41.89
-38.97
-35.84
-32.59
-29.36
-26.45
-24.22
-22.98
-22.87
-23.73
-25.10
-26.32
-26.74
-25.90
-23.70
-20.44
-16.64
-12.90
-9.70
-7.29
-5.66
-4.65
-4.01
-3.48
-2.88
-2.17
-1.40
-0.68
-0.01
0.81
2.10
4.21
7.25
10.97
14.70
17.68
19.33
19.52
18.62
17.21
15.87
14.89
14.37
14.31
14.81
16.11
18.45
21.88
26.12
30.64
34.86
38.42
41.26
43.64
45.85
48.04
50.19
52.12
53.75
55.13
56.43
57.70
58.68
58.79
57.23
53.42
47.23
39.13
30.02
20.86
12.39
4.89
-1.72
-7.67
-13.20
-18.37
-23.08
-27.10
-30.23
-32.31
-33.34
-33.41
-32.75
-31.58
-30.09
-28.43
-26.67
-24.82
-22.91
-20.91
-18.75
-16.37
-13.80
-11.24
-9.15
-8.14
-8.76
-11.23
-15.27
-20.17
-25.03
-29.11
-32.12
-34.22
-35.92
-37.76
-40.15
-43.21
-46.72
-50.21
-53.04
-54.45
-53.73
-50.28
-43.77
-34.21
-21.99
-7.90
7.04
21.75
35.32
47.16
57.03
64.95
71.03
75.29
77.65
77.97
76.24
72.65
67.61
61.67
55.38
49.13
43.16
37.60
32.52
28.00
24.13
20.90
18.20
15.76
13.24
10.36
7.06
3.56
0.24
-2.52
-4.48
-5.73
-6.51
-7.16
-7.92
-8.87
-10.00
-11.20
-12.37
-13.38
-14.04
-14.04
-13.04
-10.75
-7.14
-2.48
2.65
7.63
11.96
15.37
17.89
19.58
20.48
20.50
19.46
17.37
14.50
11.39
8.67
6.80
5.86
5.52
5.22
4.42
2.91
0.85
-1.31
-3.10
-4.22
-4.74
-4.97
-5.32
-6.04
-7.22
-8.74
-10.43
-12.18
-14.01
-16.00
-18.21
-20.49
-22.51
-23.83
-24.09
-23.22
-21.50
-19.45
-17.63
-16.40
-15.77
-15.46
-15.18
-14.74
-14.28
-14.16
-14.74
-16.17
-18.25
-20.50
-22.38
-23.47
-23.70
-23.37
-23.04
-23.34
-24.66
-27.02
-29.96
-32.76
-34.68
-35.31
-34.68
-33.10
-30.96
-28.44
-25.46
-21.92
-17.91
-13.94
-10.73
-8.95
-8.85
-10.19
-12.43
-15.07
-17.84
-20.74
-23.76
-26.71
-29.19
-30.76
-31.20
-30.62
-29.42
-28.01
-26.55
-24.97
-23.02
-20.56
-17.70
-14.78
-12.26
-10.45
-9.48
-9.19
-9.29
-9.41
-9.25
-8.59
-7.38
-5.71
-3.81
-1.94
-0.33
0.99
2.19
3.57
5.39
7.81
10.69
13.72
16.55
18.86
20.57
21.73
22.53
23.13
23.64
24.00
24.11
23.84
23.13
22.05
20.76
19.52
18.50
17.81
17.40
17.11
16.79
16.31
15.62
14.74
13.70
12.56
11.36
10.20
9.22
8.54
8.23
8.26
8.47
8.67
8.68
8.41
7.83
6.98
5.91
4.73
3.57
2.59
1.91
1.59
1.54
1.54
1.31
0.65
-0.52
-2.12
-3.93
-5.71
-7.22
-8.31
-8.82
-8.66
-7.79
-6.22
-4.07
-1.53
1.16
3.75
6.03
7.91
9.40
10.59
11.59
12.44
13.13
13.58
13.71
13.50
12.99
12.33
11.63
11.00
10.40
9.80
9.13
8.40
7.69
7.13
6.79
6.63
6.50
6.17
5.44
4.28
2.84
1.38
0.16
-0.71
-1.24
-1.53
-1.73
-1.90
-2.08
-2.30
-2.57
-2.88
-3.22
-3.51
-3.68
-3.69
-3.54
-3.34
-3.26
-3.45
-4.01
-4.91
-5.96
-6.78
-6.93
-6.02
-3.87
-0.63
3.30
7.39
11.29
14.95
18.56
22.43
26.70
31.24
35.68
39.60
42.72
44.96
46.41
47.22
47.49
47.32
46.86
46.36
46.12
46.37
47.24
48.73
50.82
53.54
56.94
61.07
65.81
70.91
76.01
80.79
85.01
88.52
91.09
92.38
91.97
89.43
84.45
76.81
66.33
52.83
36.22
16.70
-4.96
-27.29
-48.44
-66.61
-80.64
-90.27
-96.12
-99.23
-100.63
-101.00
-100.57
-99.37
-97.40
-94.80
-91.74
-88.35
-84.64
-80.51
-75.86
-70.75
-65.41
-60.21
-55.41
-51.14
-47.29
-43.61
-39.86
-36.01
-32.16
-28.54
-25.27
-22.29
-19.38
-16.25
-12.78
-9.05
-5.35
-2.00
0.81
3.06
4.94
6.62
8.24
9.77
11.09
12.10
12.72
13.04
13.20
13.36
13.63
13.95
14.08
13.76
12.73
10.89
8.36
5.44
2.49
-0.28
-2.86
-5.44
-8.27
-11.53
-15.20
-19.08
-22.86
-26.21
-28.80
-30.43
-30.89
-30.07
-27.96
-24.72
-20.68
-16.32
-12.17
-8.62
-5.88
-3.91
-2.60
-1.77
-1.35
-1.34
-1.79
-2.67
-3.82
-5.06
-6.24
-7.30
-8.25
-9.09
-9.68
-9.75
-9.06
-7.51
-5.24
-2.61
-0.00
2.27
4.13
5.64
6.97
8.26
9.61
11.03
12.51
14.02
15.44
16.63
17.47
17.89
17.93
17.73
17.46
17.34
17.53
18.13
19.15
20.49
21.92
23.12
23.70
23.35
21.95
19.67
16.96
14.47
12.80
12.30
12.96
14.33
15.78
16.70
16.80
16.21
15.32
14.59
14.19
13.91
13.24
11.58
8.56
4.20
-1.11
-6.77
-12.13
-16.59
-19.70
-21.12
-20.76
-18.81
-15.84
-12.60
-9.86
-8.03
-7.14
-6.86
-6.77
-6.59
-6.27
-5.93
-5.74
-5.74
-5.96
-6.39
-7.11
-8.14
-9.43
-10.72
-11.63
-11.82
-11.23
-10.06
-8.78
-7.83
-7.46
-7.67
-8.27
-9.04
-9.89
-10.82
-11.80
-12.67
-13.04
-12.44
-10.55
-7.39
-3.37
0.88
4.72
7.78
10.03
11.70
13.02
14.05
14.67
14.55
13.37
11.01
7.59
3.54
-0.57
-4.14
-6.76
-8.31
-8.97
-9.12
-9.13
-9.25
-9.55
-9.92
-10.22
-10.41
-10.50
-10.58
-10.66
-10.68
-10.57
-10.27
-9.85
-9.43
-9.12
-8.95
-8.92
-9.01
-9.33
-10.11
-11.63
-14.06
-17.29
-20.88
-24.18
-26.53
-27.50
-27.11
-25.90
-24.75
-24.58
-26.00
-28.96
-32.85
-36.71
-39.70
-41.43
-42.05
-41.98
-41.68
-41.28
-40.71
-39.84
-38.68
-37.50
-36.71
-36.63
-37.28
-38.34
-39.23
-39.26
-37.79
-34.28
-28.40
-20.01
-9.27
3.29
16.91
30.77
44.17
56.59
67.67
77.01
84.11
88.43
89.57
87.55
82.93
76.68
69.93
63.58
58.01
53.14
48.58
43.99
39.25
34.48
29.95
25.89
22.36
19.30
16.62
14.34
12.50
11.14
10.12
9.10
7.62
5.38
2.40
-0.95
-4.07
-6.35
-7.43
-7.20
-5.83
-3.70
-1.31
0.79
2.11
2.34
1.46
-0.20
-2.07
-3.58
-4.33
-4.25
-3.58
-2.73
-2.01
-1.54
-1.21
-0.78
-0.07
0.94
2.04
2.94
3.38
3.27
2.68
1.88
1.14
0.61
0.32
0.13
-0.13
-0.54
-1.11
-1.74
-2.34
-2.90
-3.50
-4.24
-5.20
-6.29
-7.35
-8.18
-8.67
-8.87
-9.00
-9.35
-10.15
-11.46
-13.16
-14.98
-16.62
-17.89
-18.69
-19.00
-18.78
-17.94
-16.30
-13.82
-10.59
-6.93
-3.29
-0.07
2.54
4.57
6.22
7.64
8.87
9.80
10.29
10.30
9.96
9.55
9.39
9.66
10.34
11.16
11.76
11.84
11.27
10.17
8.85
7.65
6.81
6.41
6.36
6.50
6.61
6.55
6.25
5.67
4.88
3.96
3.03
2.20
1.55
1.11
0.85
0.75
0.78
0.92
1.08
1.13
0.91
0.29
-0.78
-2.23
-3.87
-5.54
-7.12
-8.52
-9.69
-10.55
-10.88
-10.43
-9.04
-6.71
-3.70
-0.46
2.54
4.99
6.84
8.19
9.23
10.00
10.44
10.44
9.95
9.14
8.30
7.71
7.52
7.62
7.72
7.47
6.63
5.21
3.49
1.90
0.92
0.85
1.79
3.59
5.96
8.53
10.98
13.06
14.54
15.27
15.17
14.32
13.01
11.67
10.78
10.58
11.07
11.86
12.38
12.13
10.87
8.82
6.59
4.97
4.61
5.78
8.30
11.66
15.21
18.32
20.56
21.63
21.42
19.91
17.32
14.06
10.73
7.95
6.12
5.34
5.31
5.57
5.66
5.28
4.43
3.27
2.06
1.00
0.24
-0.25
-0.55
-0.83
-1.24
-1.84
-2.56
-3.25
-3.72
-3.86
-3.63
-3.09
-2.29
-1.32
-0.26
0.77
1.65
2.26
2.65
2.96
3.37
3.96
4.62
5.13
5.21
4.79
3.95
2.96
2.02
1.17
0.21
-1.16
-3.26
-6.24
-10.09
-14.62
-19.45
-24.11
-28.10
-30.87
-32.02
-31.35
-28.94
-25.10
-20.34
-15.17
-10.08
-5.39
-1.20
2.55
6.02
9.36
12.51
15.25
17.23
18.17
18.02
17.01
15.60
14.29
13.39
12.91
12.59
12.03
10.95
9.28
7.18
4.92
2.75
0.82
-0.86
-2.29
-3.43
-4.17
-4.40
-4.06
-3.25
-2.17
-1.06
-0.15
0.39
0.49
0.13
-0.66
-1.72
-2.82
-3.65
-3.97
-3.68
-2.88
-1.86
-1.02
-0.78
-1.43
-3.09
-5.65
-8.74
-11.82
-14.41
-16.23
-17.32
-18.01
-18.73
-19.79
-21.26
-22.92
-24.44
-25.59
-26.31
-26.70
-26.96
-27.19
-27.36
-27.28
-26.66
-25.24
-22.85
-19.51
-15.41
-10.92
-6.45
-2.38
1.05
3.68
5.46
6.35
6.38
5.70
4.53
3.23
2.17
1.65
1.77
2.48
3.53
4.66
5.65
6.41
7.02
7.60
8.29
9.04
9.70
10.07
10.05
9.76
9.52
9.70
10.48
11.75
13.15
14.22
14.73
14.75
14.69
15.05
16.32
18.74
22.37
27.09
32.72
39.00
45.64
52.28
58.46
63.72
67.72
70.33
71.64
71.94
71.52
70.46
68.67
65.94
62.20
57.67
52.89
48.48
44.86
42.08
39.73
37.23
33.95
29.43
23.36
15.49
5.69
-6.07
-19.51
-34.05
-48.81
-62.78
-75.01
-84.77
-91.66
-95.68
-97.25
-97.13
-96.20
-95.21
-94.59
-94.43
-94.55
-94.77
-95.00
-95.26
-95.59
-95.89
-95.89
-95.14
-93.21
-89.69
-84.41
-77.36
-68.78
-59.11
-48.91
-38.81
-29.33
-20.87
-13.67
-7.83
-3.25
0.33
3.28
6.04
8.94
12.12
15.50
18.80
21.71
23.95
25.36
25.85
25.45
24.23
22.39
20.23
18.09
16.29
14.95
14.02
13.25
12.37
11.23
9.88
8.53
7.45
6.83
6.68
6.85
7.10
7.21
7.06
6.67
6.19
5.76
5.48
5.36
5.29
5.14
4.78
4.16
3.31
2.37
1.46
0.74
0.36
0.46
1.11
2.29
3.85
5.47
6.74
7.26
6.82
5.48
3.54
1.38
-0.71
-2.68
-4.68
-6.87
-9.19
-11.23
-12.28
-11.63
-8.85
-3.96
2.47
9.59
16.44
22.37
27.07
30.59
33.13
34.89
35.95
36.20
35.51
33.84
31.42
28.67
26.02
23.76
21.94
20.58
19.61
19.06
19.14
20.30
23.04
27.58
33.75
41.00
48.82
56.62
63.92
70.49
76.47
81.98
86.81
90.24
91.20
88.96
83.07
73.68
61.65
48.63
36.46
26.53
19.58
15.90
15.99
19.80
26.56
34.72
42.18
46.58
45.78
38.71
23.49
2.48
-18.61
-33.57
-39.64
-37.92
-31.85
-24.71
-18.09
-12.06
-5.49
1.93
9.93
17.51
23.07
25.76
25.72
24.45
23.96
26.26
31.54
39.20
47.51
54.68
57.70
54.99
47.03
34.71
21.98
9.85
-1.42
-12.90
-25.49
-41.75
-62.24
-84.56
-105.14
-120.65
-129.97
-132.64
-130.13
-107.14
-58.24
9.41
81.09
144.38
194.58
226.94
247.04
257.98
258.95
246.16
217.65
180.13
139.98
102.12
68.84
41.56
19.75
-1.55
-27.35
-57.60
-87.31
-111.50
-127.71
-136.56
-139.69
-139.79
-145.77
-163.94
-192.86
-224.66
-252.12
-272.11
-285.70
-295.77
-306.02
-328.34
-370.26
-429.55
-496.75
-563.12
-624.93
-682.76
-738.76
-736.37
-649.62
-499.15
-335.20
-195.86
-91.27
-12.86
53.67
119.95
190.77
254.53
298.63
318.39
318.77
308.81
296.63
287.42
283.03
282.62
277.06
260.47
234.65
207.29
185.51
172.00
165.50
163.05
161.67
155.28
141.06
121.16
100.98
85.04
74.80
69.16
65.97
63.26
57.81
48.27
35.91
23.66
13.86
7.27
3.26
0.63
-1.63
-4.73
-8.96
-13.47
-16.83
-17.92
-16.50
-13.04
-8.40
-3.36
1.61
6.37
11.12
16.11
21.44
26.93
32.06
36.21
38.87
40.01
40.01
39.63
39.72
40.81
42.87
45.24
46.93
47.02
45.28
42.10
38.44
35.40
33.78
33.72
34.73
35.78
35.39
31.88
23.49
9.17
-10.56
-33.11
-54.24
-69.66
-76.81
-76.18
-70.95
-65.93
-65.00
-69.26
-76.27
-81.06
-78.28
-64.49
-39.64
-7.22
26.42
54.04
69.88
71.16
58.62
35.86
7.96
-21.57
-47.52
-65.07
-70.95
-64.52
-48.45
-28.19
-10.28
0.12
1.23
-4.82
-13.90
-22.34
-28.73
-34.32
-41.72
-52.89
-67.44
-82.19
-91.88
-91.37
-77.64
-51.06
-15.54
22.57
56.39
80.43
91.83
90.57
78.53
58.74
34.86
11.34
-6.86
-15.17
-11.27
3.29
22.80
39.28
45.51
38.09
18.78
-6.56
-30.75
-48.37
-57.56
-59.83
-57.83
-54.11
-50.27
-46.84
-43.35
-38.33
-29.63
-15.10
6.31
34.81
67.92
100.39
125.83
139.29
139.45
128.72
111.71
92.80
76.68
66.10
61.68
62.51
67.16
74.33
82.68
90.72
97.63
107.17
125.39
157.83
206.15
266.38
329.67
384.83
422.00
420.23
370.28
279.32
169.01
63.52
-22.48
-86.22
-131.75
-164.18
-186.84
-198.81
-199.17
-189.69
-175.02
-160.77
-150.75
-145.79
-144.37
-144.11
-141.17
-133.19
-120.48
-105.75
-92.53
-83.13
-77.81
-75.33
-73.93
-71.00
-64.99
-56.01
-45.75
-36.36
-29.31
-24.81
-22.16
-20.41
-18.21
-14.69
-9.85
-4.46
0.45
4.08
6.16
6.81
6.27
5.01
3.37
1.53
-0.69
-3.35
-6.49
-9.99
-13.56
-16.96
-19.82
-21.66
-22.07
-20.73
-17.61
-13.04
-7.60
-1.97
2.98
6.84
9.68
11.91
14.03
16.23
18.29
19.61
19.68
17.51
13.06
7.17
1.14
-3.78
-7.09
-9.21
-11.38
-14.92
-21.76
-32.36
-45.63
-59.82
-73.08
-84.53
-94.54
-104.48
-116.05
-132.39
-155.44
-185.55
-220.99
-257.92
-291.14
-315.80
-329.72
-324.26
-299.55
-260.32
-213.45
-165.07
-118.51
-74.05
-30.53
12.66
54.13
89.06
112.58
121.62
116.06
98.83
74.95
49.94
28.49
13.19
3.14
-3.91
-10.29
-17.17
-23.91
-28.37
-28.20
-22.10
-10.60
3.31
16.19
25.54
30.77
33.56
36.79
43.05
53.54
67.56
82.68
96.17
106.13
112.11
115.07
116.45
117.26
117.85
118.16
118.16
118.37
119.58
122.31
126.69
131.72
135.69
137.11
135.44
131.20
125.42
118.88
111.61
104.20
96.35
87.22
76.31
64.31
53.14
45.12
41.97
44.14
52.95
67.23
83.45
97.54
107.14
112.46
115.26
117.56
120.59
128.12
140.84
156.18
170.44
181.64
190.42
198.70
208.13
219.34
236.42
259.34
283.00
299.83
303.93
293.77
271.67
242.43
181.84
88.21
-19.74
-116.83
-189.66
-239.06
-271.06
-291.41
-303.90
-310.73
-308.18
-294.97
-273.75
-248.82
-224.46
-201.93
-181.34
-162.89
-146.85
-129.23
-107.89
-83.64
-58.78
-35.47
-12.98
10.15
30.57
39.04
29.78
0.18
-46.91
-99.48
-152.18
-200.58
-242.32
-274.57
-296.21
-306.39
-305.85
-296.71
-280.79
-260.62
-237.79
-214.11
-190.37
-167.30
-144.62
-121.98
-99.85
-77.26
-53.91
-29.09
-2.28
28.78
65.33
106.75
150.10
189.74
222.58
246.36
260.50
266.03
267.78
270.37
276.42
285.98
295.63
304.82
312.96
318.90
302.45
251.84
169.16
70.14
-14.23
-80.30
-128.77
-160.57
-178.76
-184.89
-179.02
-163.22
-141.69
-119.57
-102.68
-91.22
-83.40
-77.73
-73.46
-68.74
-62.47
-54.79
-46.98
-42.01
-39.94
-40.05
-41.68
-43.81
-43.88
-39.40
-28.98
-12.88
6.45
27.61
49.52
71.29
92.59
113.87
135.58
157.69
179.80
201.03
221.26
239.92
255.34
264.71
264.88
253.25
228.81
192.58
147.25
96.81
45.38
-3.24
-45.93
-80.67
-106.92
-125.86
-139.95
-152.02
-164.07
-176.36
-186.87
-192.53
-190.90
-181.60
-166.57
-149.19
-133.07
-120.92
-114.03
-111.51
-111.38
-111.67
-111.47
-110.60
-108.80
-105.14
-98.00
-85.65
-66.43
-40.10
-8.31
25.75
59.02
89.92
118.21
143.68
159.49
157.85
134.73
94.38
47.69
7.00
-18.53
-25.32
-15.78
3.14
23.68
39.64
49.04
52.00
50.05
45.63
41.08
37.50
34.52
31.80
29.56
28.65
29.88
33.79
40.02
47.90
56.14
63.40
69.32
74.47
79.85
85.91
92.38
98.54
103.82
108.15
112.05
116.35
121.01
124.28
122.38
110.88
86.66
49.73
3.72
-44.89
-88.70
-121.83
-141.58
-148.75
-146.58
-139.01
-129.25
-119.22
-109.69
-100.86
-92.88
-85.97
-80.38
-76.07
-72.67
-69.79
-67.26
-65.30
-64.35
-64.71
-66.27
-68.30
-69.74
-69.51
-66.98
-62.11
-55.43
-47.76
-40.00
-32.95
-27.35
-23.84
-22.99
-25.06
-29.92
-36.96
-45.37
-54.41
-63.68
-72.99
-82.11
-90.41
-96.86
-100.37
-100.39
-97.34
-92.53
-87.59
-83.76
-81.37
-79.88
-78.36
-76.15
-73.12
-69.70
-66.30
-62.98
-59.28
-54.51
-48.25
-40.73
-32.72
-25.13
-18.53
-12.84
-7.47
-1.66
5.07
12.71
20.88
29.02
36.71
43.79
50.28
56.32
61.98
67.32
72.32
76.95
81.05
84.27
86.04
85.65
82.39
75.75
65.48
51.63
34.57
15.05
-5.70
-25.88
-43.22
-55.50
-61.13
-59.65
-51.98
-40.08
-26.42
-13.28
-2.33
5.53
10.12
11.77
11.12
8.90
5.80
2.36
-1.03
-4.12
-6.62
-8.07
-7.85
-5.37
-0.28
7.22
16.29
25.53
33.44
38.78
40.96
40.08
36.81
32.03
26.66
21.47
17.10
14.08
12.71
13.03
14.76
17.43
20.53
23.67
26.59
29.12
31.10
32.38
32.83
32.43
31.26
29.46
27.15
24.42
21.31
17.84
14.08
10.18
6.40
3.11
0.77
-0.21
0.47
2.85
6.67
11.43
16.55
21.48
25.83
29.38
32.02
33.72
34.47
34.35
33.50
32.15
30.54
28.92
27.46
26.22
25.17
24.21
23.18
22.01
20.68
19.24
17.82
16.59
15.63
14.95
14.42
13.85
13.01
11.79
10.22
8.48
6.82
5.47
4.47
3.73
2.99
2.00
0.67
-0.91
-2.46
-3.71
-4.49
-4.87
-5.08
-5.41
-6.06
-7.13
-8.54
-10.16
-11.83
-13.39
-14.63
-15.31
-15.17
-13.95
-11.55
-8.07
-3.83
0.69
5.01
8.74
11.72
14.02
15.82
17.31
18.55
19.44
19.85
19.69
19.05
18.17
17.34
16.69
16.18
15.58
14.65
13.32
11.71
10.11
8.72
7.59
6.53
5.25
3.53
1.37
-1.03
-3.34
-5.33
-6.89
-8.09
-9.08
-10.01
-10.94
-11.87
-12.74
-13.54
-14.27
-14.97
-15.76
-16.72
-17.91
-19.34
-20.94
-22.62
-24.29
-25.87
-27.23
-28.20
-28.47
-27.73
-25.72
-22.40
-17.97
-12.87
-7.62
-2.67
1.71
5.44
8.52
11.01
12.88
14.13
14.74
14.79
14.47
14.03
13.73
13.71
13.98
14.40
14.81
15.12
15.31
15.42
15.38
14.99
14.01
12.28
9.90
7.22
4.67
2.63
1.20
0.24
-0.52
-1.29
-2.16
-3.12
-4.11
-5.13
-6.17
-7.23
-8.28
-9.26
-10.13
-10.94
-11.76
-12.72
-13.95
-15.56
-17.59
-19.98
-22.45
-24.56
-25.79
-25.70
-24.10
-21.12
-17.21
-12.86
-8.53
-4.47
-0.75
2.62
5.66
8.34
10.62
12.45
13.82
14.76
15.34
15.67
15.88
16.09
16.31
16.53
16.67
16.66
16.57
16.49
16.55
16.78
17.06
17.18
16.90
16.07
14.78
13.25
11.80
10.67
9.88
9.25
8.47
7.25
5.45
3.13
0.54
-2.09
-4.55
-6.79
-8.83
-10.78
-12.75
-14.89
-17.38
-20.39
-24.03
-28.15
-32.35
-35.96
-38.28
-38.77
-37.29
-34.13
-29.89
-25.26
-20.79
-16.75
-13.17
-9.95
-6.95
-4.16
-1.63
0.58
2.40
3.87
5.01
5.86
6.44
6.71
6.65
6.24
5.55
4.76
4.09
3.76
3.93
4.63
5.75
7.10
8.39
9.41
10.02
10.27
10.29
10.30
10.40
10.59
10.75
10.71
10.36
9.64
8.63
7.43
6.17
4.97
3.95
3.21
2.79
2.57
2.31
1.67
0.36
-1.67
-4.13
-6.46
-7.95
-8.04
-6.44
-3.31
0.89
5.54
10.10
14.30
18.06
21.49
24.62
27.41
29.71
31.35
32.26
32.43
32.03
31.20
30.09
28.79
27.35
25.80
24.14
22.43
20.70
19.06
17.58
16.33
15.29
14.37
13.44
12.37
11.10
9.63
8.00
6.31
4.62
3.02
1.56
0.25
-0.99
-2.28
-3.77
-5.50
-7.40
-9.28
-10.89
-12.08
-12.80
-13.12
-13.18
-13.14
-13.15
-13.38
-14.01
-15.16
-16.73
-18.42
-19.65
-19.83
-18.51
-15.67
-11.66
-7.11
-2.60
1.48
5.05
8.27
11.30
14.19
16.86
19.10
20.77
21.83
22.36
22.51
22.37
21.97
21.31
20.39
19.25
17.99
16.66
15.34
14.05
12.80
11.65
10.62
9.73
8.93
8.14
7.23
6.11
4.73
3.11
1.30
-0.64
-2.65
-4.69
-6.74
-8.85
-11.02
-13.24
-15.42
-17.38
-18.95
-20.02
-20.67
-21.06
-21.44
-21.96
-22.68
-23.53
-24.37
-25.10
-25.59
-25.70
-25.22
-23.94
-21.70
-18.55
-14.76
-10.75
-6.94
-3.62
-0.86
1.44
3.42
5.12
6.46
7.32
7.64
7.49
7.10
6.73
6.54
6.53
6.57
6.49
6.23
5.87
5.57
5.49
5.63
5.82
5.84
5.50
4.75
3.75
2.73
1.91
1.41
1.16
1.01
0.83
0.52
0.07
-0.47
-1.09
-1.74
-2.45
-3.21
-3.91
-4.44
-4.72
-4.83
-4.97
-5.47
-6.54
-8.21
-10.25
-12.26
-13.74
-14.28
-13.67
-12.01
-9.67
-7.15
-4.96
-3.39
-2.45
-1.87
-1.25
-0.31
1.02
2.55
3.99
5.09
5.72
5.97
5.98
5.90
5.79
5.63
5.36
4.98
4.54
4.21
4.16
4.53
5.29
6.28
7.27
8.04
8.53
8.84
9.14
9.54
10.04
10.53
10.85
10.93
10.84
10.79
10.97
11.42
12.01
12.45
12.47
11.95
11.01
9.99
9.31
9.37
10.38
12.38
15.25
18.76
22.63
26.63
30.62
34.61
38.70
43.05
47.64
52.17
55.96
58.04
57.40
53.26
45.26
33.56
18.84
2.05
-15.75
-33.57
-50.57
-65.93
-78.89
-88.65
-94.59
-96.53
-94.92
-90.88
-86.00
-81.77
-79.21
-78.49
-78.99
-79.71
-79.70
-78.48
-76.22
-73.69
-72.06
-72.55
-76.09
-82.91
-92.31
-102.69
-111.84
-117.65
-118.80
-115.32
-108.59
-100.81
-94.06
-89.53
-87.01
-85.09
-81.80
-75.30
-64.52
-49.30
-30.28
-8.64
14.25
36.90
57.93
76.15
90.92
102.35
111.36
119.47
128.23
138.66
150.82
163.75
175.76
185.01
190.02
190.16
185.81
178.20
168.98
159.59
150.91
142.95
135.13
126.66
117.00
106.13
94.44
82.55
71.03
60.38
51.02
43.32
37.49
33.39
30.49
27.95
25.05
21.43
17.30
13.27
9.99
7.83
6.74
6.30
6.06
5.70
4.98
3.80
2.08
-0.20
-2.95
-5.80
-8.24
-9.81
-10.32
-10.09
-9.75
-9.93
-11.07
-13.24
-16.17
-19.51
-22.82
-25.73
-28.06
-29.61
-30.07
-29.23
-27.21
-24.19
-20.75
-17.15
-13.35
-9.17
-4.17
2.35
10.89
21.23
32.93
44.58
54.79
62.08
64.81
61.71
52.35
37.27
17.56
-4.72
-28.14
-49.25
-62.69
-64.81
-55.99
-38.76
-14.89
11.32
40.53
71.75
102.09
127.66
145.16
153.28
152.35
144.10
130.08
111.50
88.44
61.60
33.12
6.34
-15.63
-31.40
-42.40
-52.54
-66.04
-86.18
-114.17
-148.92
-187.88
-228.18
-267.33
-303.13
-333.26
-355.27
-367.39
-370.12
-365.11
-353.94
-337.21
-314.33
-283.97
-244.51
-195.68
-138.95
-79.39
-22.85
26.59
67.50
100.62
127.51
150.31
169.42
184.11
190.17
183.75
164.16
134.30
99.13
62.90
29.35
-0.31
-9.60
11.58
59.52
118.98
175.46
222.57
254.33
276.08
290.80
299.87
301.20
292.45
276.80
257.97
239.42
221.81
205.37
189.21
173.20
155.63
135.19
112.31
88.61
65.83
41.91
15.87
-11.79
-38.39
-62.64
-84.35
-103.32
-119.24
-132.09
-147.93
-170.01
-196.30
-220.66
-238.48
-248.40
-251.13
-248.22
-242.04
-243.66
-259.36
-286.04
-314.34
-337.08
-352.52
-362.71
-370.75
-380.68
-407.41
-459.75
-534.45
-619.89
-705.32
-783.90
-850.35
-898.56
-849.54
-673.04
-410.80
-142.88
74.94
228.20
326.24
382.11
415.22
433.99
429.92
398.68
348.56
296.43
255.93
232.80
225.38
228.66
235.05
229.94
206.38
170.00
134.23
110.39
102.90
110.36
129.76
155.80
178.02
190.04
193.01
193.07
195.43
201.91
211.87
225.66
242.06
256.64
266.34
271.48
274.48
277.05
279.45
281.57
285.87
293.07
300.31
303.26
298.58
284.96
263.06
235.48
192.39
136.87
81.85
40.03
14.85
2.48
-2.44
-3.56
-2.42
-0.00
5.08
12.56
20.05
24.51
24.23
18.92
8.81
-6.45
-23.75
-40.05
-54.33
-67.75
-82.22
-98.89
-117.93
-139.10
-162.23
-187.11
-212.43
-236.56
-257.38
-272.08
-277.55
-271.70
-254.79
-229.55
-200.13
-170.38
-143.08
-119.74
-100.76
-85.98
-75.18
-68.23
-64.71
-63.60
-63.44
-62.86
-61.29
-59.05
-57.17
-56.68
-58.25
-61.79
-66.69
-72.25
-77.91
-83.54
-89.29
-95.48
-102.16
-108.97
-115.06
-119.32
-120.79
-118.98
-114.22
-107.65
-101.08
-96.39
-95.02
-97.30
-102.52
-109.30
-116.32
-123.00
-129.49
-136.28
-143.45
-150.23
-155.10
-156.31
-152.66
-143.86
-130.59
-113.89
-94.80
-74.07
-52.35
-30.38
-9.09
10.60
28.21
43.79
57.80
70.87
83.56
96.33
109.54
123.31
137.27
150.38
161.07
167.71
169.35
166.30
160.07
152.90
146.82
142.95
141.29
141.08
141.38
141.50
141.07
139.94
137.97
135.18
131.77
128.10
124.44
120.45
115.00
106.31
92.44
72.18
45.60
14.48
-17.89
-47.19
-69.01
-79.85
-78.21
-65.07
-43.81
-19.12
4.46
23.91
38.15
47.45
52.18
52.01
46.06
34.10
17.66
0.33
-13.49
-20.53
-20.25
-14.99
-8.68
-4.83
-4.91
-8.07
-12.09
-14.66
-14.46
-11.46
-6.58
-1.11
3.62
6.45
6.49
3.23
-3.35
-12.74
-24.06
-36.21
-48.00
-58.19
-65.51
-68.80
-67.39
-61.45
-52.14
-41.37
-31.24
-23.29
-18.21
-15.72
-14.95
-14.88
-14.77
-14.27
-13.27
-11.59
-8.62
-3.31
5.55
18.69
35.81
55.32
74.69
91.35
103.58
111.09
114.98
117.05
119.04
122.08
126.62
132.68
140.13
148.68
157.67
165.86
171.39
172.03
165.55
150.05
124.26
87.77
41.25
-13.27
-72.37
-131.68
-186.50
-232.83
-267.95
-290.60
-300.71
-299.11
-287.16
-266.61
-239.78
-209.33
-178.02
-148.21
-121.39
-98.00
-77.59
-59.14
-41.52
-23.71
-4.90
15.63
38.68
65.03
95.31
129.71
167.70
207.96
248.57
287.41
322.59
352.74
377.03
394.72
405.06
407.23
400.82
386.43
366.02
342.70
320.02
300.79
286.22
275.82
268.24
262.37
257.95
255.16
254.01
253.62
251.89
246.01
233.72
214.52
190.18
164.03
139.22
117.92
101.02
88.00
76.74
64.11
46.80
22.55
-8.70
-44.84
-80.91
-110.14
-126.85
-129.96
-124.24
-119.01
-124.44
-147.91
-192.41
-254.99
-327.48
-399.13
-460.73
-506.55
-534.42
-544.60
-533.65
-501.66
-456.47
-409.40
-367.76
-334.09
-307.33
-285.81
-267.79
-251.06
-233.85
-213.80
-190.32
-161.32
-125.47
-82.95
-35.72
13.17
58.71
93.76
111.61
108.31
85.49
48.49
5.02
-36.22
-65.78
-77.12
-68.64
-42.75
-5.28
38.62
83.35
123.50
155.16
178.70
195.53
206.66
213.45
215.86
216.07
215.11
212.33
206.86
201.13
197.06
194.90
194.39
193.18
192.35
193.20
196.53
182.53
142.77
83.50
20.83
-18.29
-36.43
-39.44
-32.35
-24.60
-21.49
-23.22
-29.44
-47.42
-77.96
-117.47
-156.48
-187.86
-208.60
-218.93
-217.61
-204.07
-180.47
-150.40
-120.00
-92.62
-71.07
-56.39
-47.11
-39.32
-30.03
-18.60
-5.45
6.91
17.24
24.80
29.64
32.88
36.30
40.78
45.68
49.85
51.12
48.47
42.12
34.03
27.44
25.17
28.44
36.49
47.52
58.96
68.95
76.59
81.99
85.55
86.20
82.60
74.22
62.13
48.20
33.94
19.56
3.75
-15.78
-42.74
-78.64
-121.04
-163.78
-199.63
-223.25
-232.76
-229.66
-217.67
-203.47
-192.75
-188.53
-191.15
-199.94
-214.66
-235.03
-259.70
-272.01
-259.88
-222.57
-170.96
-118.18
-72.59
-37.89
-14.61
-1.39
4.20
2.79
-4.34
-15.16
-26.47
-34.94
-38.96
-38.55
-34.84
-29.15
-24.23
-21.76
-21.08
-21.84
-21.96
-19.54
-13.08
-1.48
15.93
37.89
62.13
85.97
106.97
123.40
134.04
138.65
138.08
133.92
127.41
119.59
111.38
103.65
97.19
92.20
88.47
85.70
83.69
82.22
81.10
80.11
78.86
77.04
74.34
70.64
66.12
61.09
55.75
50.12
44.09
37.65
31.00
24.50
18.37
12.54
6.52
-0.35
-8.63
-18.28
-28.44
-37.53
-43.74
-45.70
-42.84
-35.55
-24.81
-11.84
2.20
16.35
29.69
41.34
50.53
56.88
60.45
61.81
61.75
60.95
59.75
58.14
55.89
52.80
48.87
44.43
40.13
36.81
35.21
35.66
37.80
40.59
42.63
42.63
39.89
34.48
27.15
18.88
10.52
2.54
-5.01
-12.18
-19.01
-25.30
-30.82
-35.35
-38.89
-41.61
-43.78
-45.54
-46.91
-47.76
-48.01
-47.76
-47.37
-47.35
-48.23
-50.26
-53.33
-56.86
-59.96
-61.66
-61.23
-58.35
-53.26
-46.59
-39.12
-31.49
-24.08
-16.98
-10.17
-3.69
2.31
7.63
12.13
15.82
18.87
21.47
23.74
25.68
27.15
28.05
28.34
28.16
27.73
27.33
27.10
27.02
26.90
26.48
25.49
23.86
21.69
19.25
16.82
14.58
12.56
10.64
8.65
6.49
4.16
1.71
-0.79
-3.27
-5.65
-7.84
-9.69
-11.09
-12.07
-12.83
-13.74
-15.21
-17.51
-20.59
-24.04
-27.11
-29.01
-29.10
-27.10
-23.20
-17.88
-11.81
-5.54
0.53
6.26
11.63
16.66
21.33
25.52
29.06
31.79
33.57
34.31
34.03
32.82
30.85
28.41
25.83
23.42
21.46
20.04
19.06
18.33
17.59
16.67
15.54
14.29
13.09
12.06
11.25
10.61
10.08
9.59
9.10
8.61
8.07
7.43
6.61
5.55
4.29
2.97
1.80
0.94
0.45
0.21
0.02
-0.36
-1.08
-2.16
-3.45
-4.66
-5.42
-5.28
-3.84
-0.82
3.86
10.02
17.24
24.97
32.58
39.56
45.55
50.40
54.16
57.07
59.48
61.77
64.20
66.78
69.25
71.11
71.83
71.05
68.75
65.24
61.02
56.58
52.15
47.74
43.11
37.94
31.90
24.80
16.54
7.17
-3.11
-13.90
-24.69
-34.85
-43.77
-50.99
-56.29
-59.81
-62.09
-63.94
-66.22
-69.47
-73.67
-78.28
-82.41
-85.20
-86.12
-85.04
-82.07
-77.51
-71.69
-65.05
-58.10
-51.35
-45.02
-38.81
-31.96
-23.47
-12.63
0.58
15.51
31.03
45.99
59.55
71.25
80.89
88.35
93.45
96.00
95.91
93.30
88.63
82.63
76.27
70.41
65.63
62.00
59.11
56.36
53.25
49.56
45.30
40.35
34.29
26.49
16.54
4.78
-7.53
-18.56
-26.71
-31.33
-33.03
-33.29
-33.78
-35.52
-38.61
-42.45
-46.20
-49.34
-51.89
-54.29
-57.03
-60.37
-64.16
-67.94
-71.13
-73.15
-73.62
-72.33
-69.22
-64.24
-57.34
-48.50
-37.93
-26.17
-14.17
-3.20
5.43
10.80
12.62
11.31
7.82
3.21
-1.76
-6.80
-12.00
-17.54
-23.39
-29.31
-34.90
-39.85
-44.04
-47.55
-50.48
-52.77
-54.21
-54.64
-54.16
-53.33
-53.02
-54.06
-56.83
-61.07
-65.88
-70.10
-72.68
-72.97
-70.70
-65.97
-58.97
-49.98
-39.39
-27.80
-16.06
-5.08
4.31
11.64
16.90
20.37
22.51
23.70
24.17
24.01
23.29
22.14
20.86
19.84
19.55
20.30
22.20
25.04
28.33
31.44
33.78
35.00
35.05
34.18
32.77
31.17
29.67
28.39
27.42
26.76
26.42
26.39
26.60
26.95
27.24
27.26
26.74
25.53
23.62
21.15
18.44
15.82
13.51
11.60
10.03
8.70
7.44
6.14
4.64
2.84
0.70
-1.66
-3.91
-5.70
-6.70
-6.85
-6.35
-5.64
-5.17
-5.28
-6.02
-7.27
-8.81
-10.44
-12.13
-13.90
-15.77
-17.69
-19.41
-20.52
-20.53
-19.01
-15.71
-10.65
-4.13
3.24
10.67
17.26
22.18
24.85
25.18
23.64
21.12
18.71
17.21
16.97
17.73
18.95
20.06
20.80
21.18
21.40
21.63
21.85
21.94
21.77
21.33
20.70
19.97
19.13
18.04
16.52
14.45
11.87
8.97
6.04
3.38
1.23
-0.29
-1.14
-1.40
-1.21
-0.75
-0.15
0.52
1.26
2.07
2.94
3.86
4.76
5.60
6.32
6.90
7.41
7.91
8.46
8.94
9.22
9.21
8.94
8.55
8.30
8.48
9.34
11.11
13.96
18.02
23.31
29.60
36.32
42.62
47.69
50.94
52.07
51.01
47.82
42.74
36.03
28.16
19.87
12.41
7.08
4.72
5.21
7.51
10.09
11.45
10.56
7.23
2.35
-2.67
-6.48
-8.53
-8.90
-7.85
-5.56
-2.12
2.45
8.62
16.74
26.93
38.78
51.42
64.20
76.37
86.83
91.41
87.01
74.06
57.41
43.09
34.70
33.07
36.80
43.53
51.14
58.96
66.13
73.39
80.61
86.33
89.41
89.31
86.32
81.06
74.42
66.55
56.08
44.44
30.80
14.30
-5.39
-27.85
-51.83
-75.10
-95.02
-109.26
-116.87
-119.27
-119.29
-120.56
-126.48
-139.24
-159.29
-185.70
-216.96
-251.76
-289.46
-328.84
-367.62
-402.33
-428.96
-443.99
-445.39
-433.06
-408.64
-375.19
-335.98
-294.04
-251.71
-210.39
-170.33
-130.84
-90.94
-50.39
-10.60
25.57
54.75
74.47
84.33
86.26
83.61
79.74
76.76
75.06
74.10
73.31
72.87
73.75
77.09
83.45
93.14
106.81
126.05
152.64
186.64
224.07
256.07
271.01
259.55
220.04
161.02
98.87
51.09
28.96
33.57
57.22
89.14
121.30
150.60
177.11
200.20
216.24
219.83
207.76
182.27
151.24
124.67
109.37
105.54
107.12
105.69
94.97
73.74
45.55
16.25
-9.19
-28.35
-41.42
-49.98
-55.73
-59.83
-62.77
-64.80
-66.07
-66.90
-67.39
-67.37
-66.59
-64.74
-61.65
-57.34
-51.96
-45.67
-38.68
-31.20
-23.40
-15.29
-6.67
2.75
13.17
24.33
35.45
45.39
53.09
58.02
60.47
61.39
61.86
62.68
63.88
64.90
64.99
63.72
61.27
58.51
56.73
57.19
60.76
67.47
76.26
84.90
90.28
89.30
79.83
61.80
37.42
10.49
-15.30
-38.13
-58.74
-79.74
-103.45
-129.66
-154.74
-172.86
-178.66
-169.98
-148.84
-120.37
-90.60
-64.47
-45.48
-36.28
-39.31
-56.15
-85.85
-123.29
-159.43
-183.97
-189.31
-173.80
-142.35
-104.11
-68.38
-41.16
-23.81
-13.97
-8.00
-3.01
2.27
8.04
14.75
24.07
38.46
59.59
86.29
113.47
133.60
140.07
131.12
111.83
92.53
84.39
94.33
121.81
159.53
197.12
225.79
241.29
243.98
236.37
220.39
196.10
162.47
119.46
69.97
20.12
-22.35
-50.62
-61.22
-55.13
-37.32
-14.70
6.28
21.49
29.64
31.73
29.80
25.98
22.01
19.30
19.15
22.64
30.29
41.48
54.34
66.20
74.61
78.24
77.34
73.22
67.41
60.97
54.34
47.84
42.14
38.21
36.80
37.72
39.47
39.68
36.22
28.10
15.58
-0.30
-18.74
-39.70
-63.59
-90.29
-118.28
-144.28
-164.12
-174.11
-172.55
-160.44
-141.21
-119.29
-98.64
-81.52
-68.23
-57.62
-48.04
-38.27
-27.98
-17.73
-8.66
-1.95
1.63
2.08
0.18
-2.70
-5.07
-5.79
-4.51
-1.73
1.30
2.95
1.74
-3.30
-12.43
-25.12
-40.25
-56.38
-72.08
-86.23
-98.14
-107.37
-113.41
-115.37
-112.07
-102.46
-86.35
-65.04
-41.23
-18.16
1.55
16.82
28.39
38.15
48.20
60.03
74.38
91.55
111.58
134.10
157.81
180.13
197.44
206.12
203.81
190.34
167.78
139.61
109.49
80.24
53.24
28.62
5.54
-17.18
-40.72
-66.21
-94.80
-127.52
-164.76
-205.52
-246.86
-284.08
-312.15
-327.57
-329.81
-321.51
-307.23
-291.05
-274.90
-258.49
-240.78
-221.62
-202.60
-186.35
-175.09
-169.48
-168.16
-168.65
-168.80
-168.02
-167.30
-168.40
-172.68
-180.32
-190.69
-201.96
-211.57
-216.76
-215.49
-206.96
-191.56
-170.72
-146.35
-121.82
-99.51
-79.80
-61.53
-43.46
-25.28
-7.47
9.36
25.08
37.26
44.67
48.29
50.11
50.92
49.72
44.92
36.14
25.07
10.32
-7.19
-23.13
-31.87
-30.64
-21.35
-9.09
0.83
5.30
-1.94
-22.53
-51.76
-81.72
-107.09
-127.74
-146.77
-167.07
-149.53
-74.34
47.71
182.84
301.12
389.69
448.43
482.95
500.79
507.63
503.50
487.18
460.62
429.01
397.14
367.06
338.42
309.41
281.50
250.00
211.25
165.76
117.93
72.90
34.39
4.45
-16.27
-28.61
-38.25
-50.72
-68.46
-90.31
-113.46
-135.41
-154.77
-171.42
-186.22
-202.18
-221.31
-243.11
-264.67
-282.23
-292.40
-292.71
-281.84
-259.78
-228.73
-192.03
-153.35
-115.92
-82.00
-52.69
-27.72
-5.85
14.36
33.82
52.94
72.05
91.58
112.03
133.64
156.08
178.52
199.46
216.78
227.86
229.68
219.02
192.83
149.13
88.15
13.78
-66.56
-143.03
-205.32
-245.10
-258.31
-246.11
-214.31
-171.28
-124.50
-80.10
-42.26
-13.31
6.19
16.89
20.11
17.59
11.34
5.39
2.70
4.39
10.55
21.50
37.98
60.29
87.53
117.77
151.69
188.90
227.02
262.81
293.98
319.63
339.69
354.68
365.76
378.51
396.24
417.26
436.17
447.41
447.60
436.19
415.26
364.39
281.70
185.08
99.28
38.13
1.24
-18.59
-28.90
-34.92
-39.51
-39.76
-33.48
-22.11
-9.68
-0.09
4.30
2.45
-5.80
-20.40
-38.35
-54.33
-67.73
-81.08
-97.50
-119.11
-146.80
-180.67
-221.11
-265.83
-311.77
-356.08
-394.69
-421.71
-430.49
-416.35
-378.68
-323.45
-257.00
-183.34
-103.91
-19.01
69.74
157.35
235.13
292.98
319.01
309.97
273.95
225.60
178.34
139.07
107.90
80.54
52.28
13.81
-37.50
-95.36
-149.65
-194.31
-229.97
-261.37
-293.81
-330.90
-383.54
-456.82
-545.65
-638.05
-722.37
-790.58
-837.55
-860.88
-803.34
-649.57
-438.73
-234.80
-78.10
25.69
88.75
125.60
146.33
157.04
151.90
128.95
95.49
63.86
43.37
35.72
37.55
43.74
50.94
50.41
38.49
19.62
2.99
-4.31
0.03
15.83
36.38
57.94
73.90
81.26
82.32
82.87
87.27
96.30
108.34
120.97
133.00
141.61
145.65
146.60
148.73
155.13
166.26
180.74
196.66
213.18
228.94
243.11
255.82
270.34
288.63
310.28
333.55
357.10
380.92
404.86
427.80
447.49
465.27
480.76
491.39
493.92
487.02
472.17
452.20
429.94
407.38
390.63
381.65
377.05
370.40
356.71
334.93
307.13
276.92
214.48
112.93
-10.62
-126.86
-215.69
-272.89
-303.64
-315.78
-316.41
-310.91
-297.41
-275.63
-248.39
-220.55
-196.07
-176.01
-159.78
-146.26
-134.44
-119.36
-98.93
-74.49
-49.70
-27.66
-9.70
3.99
13.41
17.94
22.45
28.82
36.42
43.10
47.04
47.73
45.59
41.46
36.20
31.88
29.06
27.15
24.66
20.29
13.51
4.52
-5.95
-16.96
-27.13
-36.04
-44.05
-52.20
-61.61
-73.03
-86.65
-102.08
-118.43
-134.66
-150.25
-165.19
-180.24
-197.02
-217.52
-243.33
-274.61
-309.34
-343.37
-371.36
-388.14
-390.27
-377.04
-350.69
-315.73
-277.88
-242.60
-213.96
-193.69
-180.99
-173.00
-165.94
-156.53
-143.11
-126.13
-107.60
-90.25
-76.45
-67.59
-64.07
-65.29
-70.04
-76.53
-82.63
-86.03
-84.78
-77.74
-64.92
-47.42
-27.12
-6.16
13.75
31.54
47.03
60.70
73.42
86.03
98.99
112.11
124.56
135.11
142.66
146.81
148.07
147.71
147.16
147.14
147.32
146.29
142.33
134.19
121.69
105.78
88.02
69.96
52.65
36.51
21.59
7.91
-4.32
-14.66
-22.60
-27.95
-30.87
-31.89
-31.70
-30.86
-29.70
-28.39
-27.09
-26.20
-26.32
-27.87
-30.79
-34.27
-36.88
-37.08
-33.84
-27.07
-17.57
-6.65
4.41
14.72
23.89
31.99
39.23
45.80
51.71
56.77
60.69
63.18
64.13
63.66
62.04
59.44
55.84
51.03
44.90
37.70
30.15
23.19
17.59
13.53
10.48
7.46
3.55
-1.73
-8.22
-15.22
-21.90
-27.69
-32.44
-36.46
-40.37
-44.67
-49.61
-54.93
-60.15
-64.83
-68.88
-72.79
-77.33
-83.25
-90.48
-98.19
-104.69
-108.06
-106.73
-99.83
-87.13
-68.81
-45.36
-17.89
11.40
39.30
62.15
77.18
83.69
83.48
80.11
77.30
77.41
80.68
85.77
90.87
94.89
97.84
100.47
103.50
106.98
110.34
112.71
113.44
112.38
109.68
105.81
100.97
95.03
87.60
78.21
66.76
53.66
39.87
26.57
14.79
4.88
-3.52
-11.37
-19.77
-29.42
-40.28
-51.34
-61.00
-67.41
-69.22
-65.90
-57.93
-46.59
-33.48
-20.06
-7.24
4.57
15.39
25.25
34.05
41.45
46.95
50.16
50.86
49.16
45.38
40.05
33.77
27.16
20.81
15.11
10.19
5.83
1.53
-3.35
-9.27
-16.30
-24.15
-32.19
-39.83
-46.71
-52.88
-58.67
-64.53
-70.75
-77.36
-84.08
-90.46
-96.06
-100.65
-104.16
-106.69
-108.33
-109.18
-109.18
-108.17
-105.84
-101.67
-95.14
-85.79
-73.60
-59.09
-43.39
-27.78
-13.34
-0.49
10.97
21.60
31.94
42.16
52.13
61.48
69.88
77.04
82.76
87.01
89.93
91.97
93.68
95.57
97.66
99.48
100.30
99.60
97.39
94.03
89.96
85.20
79.29
71.55
61.61
49.80
37.18
25.23
15.18
7.69
2.54
-1.15
-4.51
-8.29
-12.75
-17.55
-22.10
-26.18
-30.11
-34.32
-38.71
-42.19
-43.11
-40.23
-33.73
-25.36
-17.50
-11.75
-7.89
-3.95
2.51
12.94
26.97
42.67
57.80
70.76
81.18
89.51
96.36
102.06
106.56
109.73
111.62
112.49
112.69
112.51
111.89
110.34
107.16
101.62
93.31
82.42
69.77
56.60
44.14
33.22
24.02
16.13
8.80
1.31
-6.70
-15.15
-23.60
-31.58
-38.81
-45.39
-51.77
-58.49
-65.94
-74.18
-82.86
-91.31
-98.62
-103.69
-105.40
-102.89
-95.80
-84.60
-70.55
-55.38
-40.82
-28.06
-17.65
-9.50
-3.25
1.59
5.42
8.57
11.34
13.82
16.04
17.77
18.76
18.75
17.70
15.68
12.97
9.98
7.29
5.51
5.13
6.35
8.82
11.74
14.08
14.96
13.91
10.88
6.21
0.27
-6.54
-13.98
-21.73
-29.35
-36.29
-41.96
-45.95
-48.15
-48.90
-48.91
-49.10
-50.38
-53.36
-58.13
-64.10
-70.02
-74.31
-75.43
-72.40
-65.08
-54.20
-41.08
-27.24
-13.84
-1.52
9.65
19.89
29.45
38.40
46.55
53.57
59.15
63.04
65.04
65.08
63.27
60.01
55.96
51.95
48.66
46.40
45.00
43.97
42.77
41.02
38.53
35.29
31.33
26.74
21.70
16.56
11.66
7.23
3.22
-0.71
-5.01
-9.99
-15.75
-22.15
-28.86
-35.62
-42.25
-48.68
-55.03
-61.43
-68.00
-74.46
-80.06
-83.51
-83.44
-78.90
-69.82
-57.16
-42.56
-27.78
-14.10
-2.09
8.27
17.22
24.98
31.61
37.02
41.17
44.10
45.92
46.71
46.43
45.01
42.40
38.72
34.33
29.74
25.49
21.86
18.79
15.81
12.31
7.70
1.77
-5.33
-13.09
-20.84
-28.01
-34.24
-39.63
-44.66
-50.13
-56.83
-65.14
-74.73
-84.55
-93.19
-99.43
-102.78
-103.57
-102.82
-101.75
-101.39
-102.25
-104.21
-106.53
-107.94
-106.86
-101.72
-91.36
-75.45
-54.63
-30.51
-5.17
19.25
41.13
59.56
74.47
86.29
95.79
103.66
110.27
115.70
119.73
122.08
122.51
120.83
116.93
110.69
102.17
91.68
79.90
67.75
56.12
45.53
35.95
26.76
16.96
5.66
-7.70
-23.02
-39.62
-56.41
-72.14
-85.79
-96.76
-104.93
-110.53
-113.89
-115.28
-114.84
-112.67
-108.92
-103.92
-98.00
-91.32
-83.70
-74.56
-63.25
-49.30
-32.84
-14.50
4.76
24.30
43.97
64.09
84.82
105.41
123.80
136.78
141.06
134.46
117.02
90.99
60.29
29.43
2.54
-16.86
-25.90
-22.24
-4.79
25.34
64.15
105.22
141.51
167.73
182.11
186.55
185.03
181.35
177.30
172.47
165.24
154.37
139.98
123.50
106.70
90.77
75.87
61.39
46.61
31.23
15.56
0.27
-13.82
-26.27
-37.13
-46.87
-56.24
-65.83
-75.91
-86.33
-96.70
-106.58
-115.58
-123.31
-129.23
-132.59
-132.66
-128.94
-121.60
-111.37
-99.43
-86.95
-74.77
-63.38
-52.94
-43.51
-35.08
-27.60
-20.81
-14.37
-7.96
-1.48
4.93
10.92
16.10
20.26
23.30
25.29
26.29
26.44
25.94
25.10
24.20
23.40
22.68
21.80
20.55
18.75
16.38
13.50
10.07
5.93
0.82
-5.45
-12.84
-20.96
-29.21
-36.96
-43.77
-49.54
-54.48
-59.07
-63.89
-69.50
-76.26
-84.14
-92.64
-100.73
-107.03
-110.09
-108.83
-102.84
-92.47
-78.67
-62.66
-45.65
-28.60
-12.27
2.81
16.22
27.75
37.32
45.07
51.16
55.65
58.50
59.57
58.89
56.73
53.68
50.39
47.31
44.58
42.01
39.37
36.51
33.53
30.67
28.07
25.63
23.01
19.79
15.79
11.10
6.11
1.10
-3.90
-9.34
-15.89
-24.24
-34.67
-46.94
-60.26
-73.55
-85.50
-94.93
-100.84
-102.68
-100.59
-95.42
-88.60
-81.66
-75.73
-71.22
-67.76
-64.60
-60.95
-56.28
-50.30
-42.88
-33.88
-23.12
-10.62
3.35
18.14
32.85
46.60
58.64
68.46
75.72
80.26
82.05
81.21
78.06
73.04
66.66
59.36
51.44
43.06
34.43
25.84
17.82
10.90
5.47
1.56
-1.21
-3.41
-5.48
-7.52
-9.20
-10.04
-9.71
-8.37
-6.67
-5.53
-5.70
-7.36
-9.98
-12.57
-14.18
-14.35
-13.49
-12.76
-13.68
-17.55
-24.86
-35.00
-46.45
-57.18
-65.30
-69.67
-70.08
-67.05
-61.55
-54.36
-45.79
-35.60
-23.21
-7.88
10.93
33.19
57.84
82.66
104.54
120.44
128.47
128.78
123.58
116.21
109.74
105.81
104.20
103.42
101.63
97.64
91.23
82.87
73.28
62.97
52.16
40.95
29.58
18.50
8.33
-0.32
-7.25
-12.79
-17.81
-23.30
-29.97
-37.81
-46.14
-53.87
-59.93
-63.72
-65.25
-65.02
-63.84
-62.44
-61.30
-60.33
-58.94
-56.10
-50.86
-42.71
-32.02
-19.91
-7.85
2.92
11.95
19.61
26.76
34.09
41.74
49.17
55.49
59.87
61.89
61.68
59.78
56.80
53.24
49.27
44.87
39.89
34.31
28.30
22.20
16.41
11.24
6.92
3.57
1.30
0.24
0.44
1.79
3.88
6.08
7.67
8.07
6.90
4.08
-0.34
-6.24
-13.52
-22.05
-31.55
-41.63
-51.73
-61.37
-70.27
-78.54
-86.53
-94.69
-103.10
-111.23
-117.85
-121.26
-119.90
-112.88
-100.39
-83.59
-64.23
-43.95
-23.92
-4.68
13.65
30.94
46.89
60.96
72.58
81.34
87.11
90.01
90.28
88.29
84.44
79.30
73.50
67.70
62.37
57.68
53.54
49.62
45.60
41.19
36.12
30.01
22.31
12.37
-0.44
-16.43
-35.50
-57.06
-80.19
-103.78
-126.75
-148.30
-167.96
-185.76
-202.02
-217.20
-231.47
-244.46
-255.01
-261.33
-261.58
-254.51
-240.06
-219.38
-194.46
-167.14
-138.58
-108.87
-77.48
-44.15
-9.52
24.88
57.28
86.54
112.52
135.72
156.54
174.59
188.79
197.96
201.64
200.40
195.53
188.32
179.50
169.22
157.44
144.55
131.48
119.44
109.39
101.66
95.91
91.37
87.19
82.71
77.51
71.77
65.87
60.37
55.67
51.69
47.88
43.34
37.38
29.84
21.47
13.83
8.94
8.76
14.72
27.32
46.02
69.22
94.40
118.44
138.08
150.50
153.99
148.39
135.14
117.04
97.53
79.95
66.77
59.28
57.56
60.84
67.97
77.78
89.27
101.50
113.47
124.00
131.89
136.10
136.14
132.14
124.77
115.00
103.80
91.93
79.99
68.46
57.83
48.53
40.75
34.41
29.05
23.98
18.52
12.19
4.88
-3.22
-11.79
-20.52
-29.43
-38.77
-48.92
-60.08
-72.04
-84.14
-95.40
-104.98
-112.42
-117.86
-121.95
-125.59
-129.70
-134.89
-141.38
-148.77
-156.10
-161.97
-164.70
-162.90
-155.72
-143.26
-126.48
-106.95
-86.41
-66.26
-47.37
-30.02
-14.15
0.33
13.25
24.18
32.59
38.13
40.89
41.32
40.08
37.72
34.46
30.24
24.91
18.44
10.99
2.86
-5.73
-14.76
-24.43
-34.97
-46.49
-58.77
-71.18
-82.81
-92.74
-100.42
-106.04
-110.59
-115.58
-122.41
-131.67
-142.66
-153.62
-162.19
-166.33
-164.76
-157.14
-143.76
-125.18
-102.21
-75.89
-47.61
-19.04
8.51
34.62
60.04
86.04
113.30
140.79
165.72
184.43
194.11
194.20
186.70
175.20
163.11
152.29
142.56
132.55
120.80
106.87
91.48
75.99
61.66
49.09
38.25
28.84
20.69
13.83
8.49
4.84
2.71
1.53
0.46
-1.29
-4.14
-8.00
-12.29
-16.25
-19.35
-21.65
-23.72
-26.49
-30.74
-36.78
-44.33
-52.67
-60.95
-68.61
-75.56
-82.17
-89.03
-96.67
-105.18
-113.95
-121.69
-126.68
-127.20
-122.11
-111.19
-95.28
-76.02
-55.28
-34.69
-15.31
2.51
18.82
33.78
47.42
59.50
69.63
77.43
82.65
85.33
85.73
84.24
81.31
77.34
72.76
67.97
63.37
59.25
55.72
52.63
49.60
46.20
42.08
37.10
31.30
24.96
18.39
11.81
5.32
-1.16
-7.80
-14.80
-22.28
-30.23
-38.47
-46.75
-54.85
-62.68
-70.35
-78.13
-86.51
-95.88
-106.33
-117.36
-127.74
-135.65
-139.11
-136.65
-127.72
-112.99
-93.99
-72.64
-50.75
-29.59
-9.98
7.66
23.05
35.99
46.38
54.25
59.71
62.88
63.88
62.79
59.82
55.37
50.08
44.80
40.45
37.87
37.55
39.52
43.21
47.54
51.23
53.13
52.58
49.53
44.58
38.59
32.36
26.33
20.49
14.48
7.88
0.48
-7.66
-16.21
-24.80
-33.16
-41.32
-49.46
-57.84
-66.68
-76.08
-85.97
-96.01
-105.38
-112.69
-116.11
-113.88
-104.94
-89.50
-69.08
-46.12
-23.13
-1.97
16.52
32.38
46.10
58.09
68.53
77.38
84.62
90.31
94.59
97.56
99.15
99.17
97.44
93.91
88.78
82.43
75.42
68.34
61.74
56.03
51.36
47.64
44.55
41.70
38.71
35.26
31.09
25.97
19.66
12.13
3.68
-4.96
-12.80
-18.87
-22.73
-24.64
-25.54
-26.76
-29.60
-34.95
-43.08
-53.53
-65.18
-76.36
-85.02
-89.23
-87.53
-79.31
-65.03
-46.05
-24.36
-2.05
19.03
37.56
52.84
64.70
73.40
79.41
83.22
85.19
85.48
84.15
81.31
77.19
72.07
66.27
59.99
53.27
46.16
38.78
31.41
24.35
17.82
11.92
6.58
1.70
-2.78
-6.83
-10.51
-14.02
-17.82
-22.42
-28.16
-35.01
-42.60
-50.34
-57.61
-64.04
-69.53
-74.39
-79.19
-84.53
-90.95
-98.71
-107.49
-116.11
-122.77
-125.42
-122.57
-113.71
-99.27
-80.72
-60.06
-39.14
-19.10
-0.33
17.15
33.27
47.73
60.73
72.36
82.52
91.05
97.83
102.71
105.36
105.30
102.23
97.30
91.77
86.43
81.35
76.34
70.92
64.48
56.36
46.08
34.78
23.39
12.14
0.81
-10.07
-19.24
-25.03
-26.09
-30.53
-43.06
-63.74
-88.94
-115.00
-139.30
-160.42
-177.64
-190.95
-201.00
-207.26
-209.15
-206.86
-200.93
-191.32
-178.37
-162.90
-145.95
-128.40
-109.30
-86.90
-58.70
-27.26
6.57
42.19
78.97
115.85
151.05
182.74
208.53
225.96
233.52
232.16
224.39
213.39
201.79
190.96
181.31
172.50
163.94
155.31
147.16
139.90
133.52
127.51
121.19
114.30
107.01
99.75
92.89
86.71
80.96
75.01
68.26
60.46
51.92
43.27
35.07
27.50
20.26
12.42
2.72
-10.05
-26.57
-46.69
-69.24
-92.25
-113.35
-130.41
-142.16
-148.50
-150.30
-148.91
-145.70
-141.59
-137.07
-132.40
-127.93
-124.22
-121.92
-121.49
-122.91
-125.60
-128.32
-129.52
-127.62
-121.44
-110.44
-94.86
-75.60
-53.97
-31.44
-9.26
11.67
30.85
48.10
63.22
75.92
85.87
92.82
96.75
98.22
98.38
98.60
100.09
103.15
107.40
112.10
116.49
119.84
121.79
122.33
121.43
119.14
115.04
108.90
101.10
92.48
83.78
75.83
69.38
64.74
61.85
59.30
55.27
48.39
37.86
23.46
6.17
-11.91
-28.25
-40.42
-47.95
-51.66
-52.99
-49.76
-40.71
-27.14
-12.28
-2.42
2.70
3.86
1.45
-1.38
-2.87
-2.53
-0.72
1.71
3.65
4.51
3.16
-0.99
-7.85
-17.28
-29.29
-43.65
-59.54
-75.65
-90.18
-102.28
-111.62
-118.20
-122.54
-125.32
-126.94
-127.39
-126.40
-123.58
-119.24
-114.02
-108.49
-103.15
-98.03
-92.59
-85.90
-77.00
-65.23
-50.88
-34.83
-18.17
-2.00
12.94
26.39
38.33
48.92
58.27
66.33
73.00
78.23
82.02
84.41
85.50
85.32
83.90
81.25
77.48
72.89
67.96
63.25
59.19
55.88
52.99
49.91
46.06
41.13
35.26
28.89
22.46
16.11
9.57
2.30
-6.11
-15.68
-25.82
-35.56
-43.90
-50.19
-54.48
-57.37
-59.78
-62.57
-66.32
-71.14
-76.63
-81.98
-86.06
-87.61
-85.50
-79.05
-68.27
-53.93
-37.38
-20.14
-3.54
11.55
24.74
35.98
45.37
52.96
58.78
62.82
65.18
66.02
65.56
64.05
61.73
58.77
55.33
51.58
47.69
43.86
40.26
37.00
34.06
31.30
28.44
25.23
21.52
17.33
12.85
8.33
3.97
-0.16
-4.15
-8.14
-12.28
-16.57
-20.96
-25.35
-29.67
-34.02
-38.57
-43.68
-49.65
-56.67
-64.64
-72.96
-80.56
-85.98
-87.76
-84.86
-77.03
-64.90
-49.76
-33.11
-16.27
-0.15
14.86
28.62
41.09
52.22
61.89
69.96
76.28
80.65
82.89
82.80
80.28
75.38
68.42
59.95
50.72
41.50
32.91
25.22
18.31
11.77
5.11
-2.07
-9.86
-18.10
-26.37
-34.31
-41.65
-48.39
-54.68
-60.78
-66.88
-73.08
-79.36
-85.58
-91.52
-96.97
-101.72
-105.64
-108.82
-111.57
-114.48
-118.34
-123.71
-130.74
-138.77
-146.39
-151.76
-153.11
-149.25
-139.97
-126.03
-108.91
-90.28
-71.62
-53.82
-37.21
-21.61
-6.63
8.06
22.56
36.70
50.10
62.21
72.46
80.39
85.74
88.59
89.44
89.13
88.69
88.94
90.25
92.34
94.36
95.31
94.51
91.90
88.02
83.66
79.36
75.10
70.27
64.02
55.70
45.24
33.26
20.81
9.04
-1.16
-9.40
-15.86
-21.38
-27.30
-35.19
-46.19
-60.23
-75.69
-89.43
-97.53
-96.45
-84.26
-61.43
-30.94
2.58
34.25
60.32
79.18
91.26
98.34
102.37
104.64
105.51
104.73
102.18
98.25
93.84
89.85
86.70
84.09
81.37
77.95
73.72
69.07
64.54
60.61
57.20
53.82
49.72
44.30
37.41
29.44
21.25
13.81
7.84
3.46
0.29
-2.53
-5.92
-10.59
-16.78
-24.27
-32.47
-40.60
-47.97
-54.15
-59.09
-63.12
-66.85
-70.97
-75.89
-81.51
-87.02
-91.06
-92.10
-89.04
-81.62
-70.56
-57.31
-43.46
-30.26
-18.24
-7.32
2.93
12.92
22.77
32.30
41.16
48.98
55.46
60.37
63.50
64.65
63.66
60.50
55.36
48.71
41.24
33.71
26.73
20.67
15.57
11.28
7.59
4.31
1.33
-1.45
-4.20
-7.10
-10.31
-13.87
-17.69
-21.61
-25.48
-29.25
-32.97
-36.70
-40.39
-43.91
-47.05
-49.60
-51.53
-53.04
-54.57
-56.72
-60.01
-64.63
-70.19
-75.64
-79.44
-80.04
-76.37
-68.24
-56.42
-42.35
-27.58
-13.35
-0.33
11.38
21.97
31.65
40.54
48.58
55.66
61.66
66.49
70.10
72.38
73.28
72.73
70.81
67.75
63.94
59.94
56.30
53.50
51.75
50.95
50.69
50.35
49.35
47.29
44.03
39.70
34.64
29.18
23.61
18.09
12.68
7.36
2.11
-3.09
-8.28
-13.46
-18.71
-24.07
-29.62
-35.43
-41.59
-48.25
-55.56
-63.68
-72.53
-81.67
-90.11
-96.42
-99.17
-97.44
-91.19
-81.28
-69.10
-55.89
-42.36
-28.60
-14.37
0.37
15.28
29.56
42.31
52.87
61.07
67.05
71.18
73.73
74.80
74.40
72.57
69.44
65.16
59.76
53.08
44.82
34.87
23.49
11.46
-0.12
-10.26
-18.48
-24.95
-30.32
-35.34
-40.50
-45.87
-51.29
-56.51
-61.47
-66.24
-71.02
-75.89
-80.86
-85.79
-90.53
-94.99
-99.21
-103.42
-108.04
-113.59
-120.39
-128.33
-136.47
-143.11
-146.02
-143.18
-133.41
-116.82
-94.84
-69.64
-43.49
-18.10
5.57
27.24
46.86
64.36
79.50
92.00
101.81
109.13
114.46
118.34
121.17
123.13
124.15
124.11
122.95
120.72
117.65
113.94
109.72
104.99
99.73
93.86
87.36
80.22
72.45
64.11
55.28
46.18
37.09
28.35
20.23
12.82
5.98
-0.56
-7.10
-13.82
-20.63
-27.30
-33.46
-38.82
-43.35
-47.24
-50.98
-55.18
-60.38
-66.81
-74.12
-81.35
-87.02
-89.55
-87.73
-81.19
-70.46
-56.80
-41.70
-26.40
-11.69
2.13
14.93
26.59
36.81
45.31
51.89
56.54
59.48
60.96
61.28
60.61
59.13
57.04
54.65
52.31
50.33
48.91
48.02
47.44
46.74
45.48
43.27
39.89
35.38
29.94
23.91
17.62
11.34
5.19
-0.76
-6.53
-12.11
-17.47
-22.61
-27.55
-32.37
-37.11
-41.76
-46.29
-50.68
-55.06
-59.67
-64.86
-70.90
-77.71
-84.80
-91.24
-95.89
-97.61
-95.66
-89.77
-80.30
-68.00
-53.88
-38.96
-24.04
-9.73
3.64
15.84
26.62
35.73
42.95
48.24
51.81
54.13
55.76
57.13
58.38
59.35
59.72
59.21
57.76
55.52
52.85
50.07
47.39
44.80
42.16
39.29
35.97
32.11
27.71
22.90
17.91
12.93
8.09
3.33
-1.54
-6.76
-12.52
-18.84
-25.51
-32.22
-38.65
-44.56
-49.94
-54.95
-59.90
-65.12
-70.94
-77.38
-84.16
-90.54
-95.38
-97.43
-95.65
-89.61
-79.61
-66.59
-51.75
-36.16
-20.55
-5.21
9.73
24.08
37.48
49.49
59.66
67.78
73.83
77.93
80.23
80.84
79.88
77.55
74.19
70.25
66.23
62.48
59.14
56.19
53.44
50.70
47.82
44.67
41.10
36.94
32.09
26.58
20.65
14.71
9.11
4.00
-0.89
-6.06
-12.01
-18.90
-26.44
-33.93
-40.63
-46.09
-50.41
-54.15
-58.11
-62.97
-69.11
-76.42
-84.43
-92.34
-99.12
-103.64
-104.84
-101.96
-94.69
-83.39
-68.93
-52.63
-35.89
-19.92
-5.44
7.31
18.52
28.55
37.66
45.87
52.89
58.35
61.89
63.44
63.18
61.48
58.80
55.59
52.22
48.98
46.03
43.41
41.09
38.94
36.82
34.55
31.86
28.52
24.37
19.47
14.09
8.73
3.84
-0.28
-3.72
-6.90
-10.38
-14.70
-20.15
-26.66
-33.82
-40.96
-47.44
-52.82
-57.12
-60.83
-64.76
-69.71
-76.20
-84.20
-93.13
-101.88
-108.93
-112.70
-111.83
-105.56
-94.05
-78.36
-60.15
-41.14
-22.70
-5.42
10.62
25.59
39.58
52.41
63.69
73.07
80.46
85.98
90.05
93.13
95.60
97.61
98.96
99.33
98.51
96.67
94.39
92.41
91.14
90.36
89.17
86.33
80.89
72.64
62.25
51.01
40.22
30.67
22.43
15.00
7.59
-0.42
-9.20
-18.48
-27.60
-35.86
-42.78
-48.41
-53.18
-57.89
-63.29
-69.93
-77.83
-86.46
-94.79
-101.44
-105.03
-104.45
-99.18
-89.38
-75.84
-59.81
-42.68
-25.75
-9.93
4.29
16.86
28.07
38.31
47.88
56.80
64.81
71.43
76.30
79.27
80.53
80.50
79.53
77.82
75.39
72.19
68.25
63.83
59.30
54.94
50.88
46.89
42.57
37.48
31.40
24.45
17.12
10.03
3.68
-1.84
-6.88
-12.07
-18.02
-24.95
-32.61
-40.39
-47.66
-54.16
-59.98
-65.58
-71.40
-77.76
-84.82
-92.57
-100.93
-109.62
-118.02
-125.01
-129.17
-129.07
-123.80
-113.39
-98.81
-81.75
-63.92
-46.50
-29.86
-13.56
3.14
20.79
39.29
57.89
75.25
89.97
101.00
107.92
111.05
111.16
109.22
105.96
101.83
97.09
92.03
87.07
82.70
79.21
76.22
72.77
67.63
59.95
49.77
38.15
26.66
16.61
8.47
1.60
-5.18
-13.03
-22.44
-33.16
-44.44
-55.52
-65.96
-75.60
-84.25
-91.59
-97.03
-100.12
-100.99
-100.53
-100.01
-100.44
-101.85
-103.35
-103.54
-101.35
-96.48
-89.28
-80.21
-69.28
-55.99
-39.73
-20.40
1.22
23.63
45.21
64.73
81.59
95.67
106.98
115.48
121.23
124.52
126.04
126.65
127.07
127.82
128.88
129.97
130.68
130.64
129.61
127.47
124.17
119.68
114.03
107.29
99.66
91.35
82.47
73.01
62.84
51.82
39.96
27.44
14.54
1.47
-11.71
-25.02
-38.56
-52.19
-65.56
-78.18
-89.54
-99.46
-108.15
-116.22
-124.46
-133.50
-143.45
-153.66
-162.74
-168.91
-170.51
-166.48
-156.78
-142.27
-124.42
-104.76
-84.51
-64.33
-44.44
-24.95
-6.02
11.93
28.34
42.69
54.64
64.12
71.28
76.44
79.89
81.92
82.75
82.60
81.77
80.60
79.47
78.62
78.08
77.60
76.75
75.04
72.14
67.92
62.50
56.19
49.35
42.33
35.42
28.77
22.38
16.08
9.60
2.66
-4.84
-12.73
-20.67
-28.20
-35.02
-41.08
-46.62
-52.18
-58.42
-65.91
-74.90
-85.09
-95.45
-104.37
-110.01
-110.82
-106.03
-95.86
-81.40
-64.08
-45.24
-25.74
-6.07
13.49
32.51
50.34
66.08
78.87
88.11
93.62
95.69
94.92
92.05
87.79
82.70
77.20
71.63
66.34
61.66
57.85
54.95
52.77
50.93
48.91
46.32
42.87
38.41
32.80
26.05
18.19
9.51
0.47
-8.38
-16.63
-24.25
-31.55
-39.13
-47.39
-56.41
-65.75
-74.74
-82.77
-89.69
-95.92
-102.25
-109.55
-118.41
-129.00
-141.00
-153.60
-165.55
-175.21
-180.75
-180.48
-173.47
-159.78
-140.55
-117.58
-92.63
-66.76
-40.02
-11.95
17.62
47.78
76.31
100.43
117.85
127.85
131.48
130.98
128.70
126.17
123.77
121.19
118.11
114.61
111.25
108.57
106.63
104.94
102.73
99.41
94.94
89.77
84.51
79.75
75.55
71.55
67.13
61.73
55.13
47.54
39.48
31.54
24.15
17.39
11.03
4.62
-2.26
-9.83
-18.01
-26.48
-34.77
-42.55
-49.78
-56.78
-64.11
-72.32
-81.48
-90.95
-99.33
-104.75
-105.49
-100.54
-90.01
-75.05
-57.45
-38.96
-20.89
-3.82
12.17
27.13
40.97
53.37
63.85
72.01
77.58
80.54
81.09
79.60
76.56
72.56
68.10
63.59
59.19
54.92
50.70
46.48
42.21
37.84
33.21
28.04
22.01
14.96
7.00
-1.47
-9.88
-17.76
-24.89
-31.32
-37.33
-43.16
-49.05
-55.15
-61.58
-68.49
-75.88
-83.56
-91.04
-97.69
-102.98
-106.83
-109.72
-112.55
-116.28
-121.35
-127.38
-133.01
-136.17
-134.67
-126.89
-112.27
-91.53
-66.45
-39.40
-12.69
11.88
33.31
51.33
66.26
78.74
89.56
99.41
108.78
117.74
125.93
132.67
137.17
138.81
137.34
133.05
126.56
118.72
110.33
101.99
94.05
86.60
79.61
72.95
66.47
59.99
53.30
46.21
38.61
30.58
22.33
14.15
6.23
-1.46
-9.18
-17.22
-25.80
-34.83
-43.91
-52.46
-59.92
-65.93
-70.48
-74.01
-77.31
-81.46
-87.56
-96.31
-107.64
-120.46
-132.74
-142.01
-146.03
-143.55
-134.59
-120.32
-102.56
-83.11
-63.32
-43.97
-25.50
-8.27
7.29
20.77
31.99
41.08
48.46
54.65
60.03
64.80
69.03
72.91
76.78
81.12
86.32
92.48
99.23
105.88
111.61
115.73
117.83
117.76
115.55
111.26
105.00
96.96
87.43
76.91
65.95
55.09
44.69
34.82
25.26
15.57
5.31
-5.82
-17.83
-30.41
-42.99
-54.97
-65.88
-75.54
-84.13
-92.06
-99.92
-108.29
-117.57
-127.77
-138.24
-147.61
-153.96
-155.33
-150.42
-139.20
-122.98
-104.09
-84.97
-67.45
-52.21
-39.01
-27.06
-15.66
-4.52
6.22
16.17
24.90
32.08
37.64
41.71
44.70
47.29
50.16
53.93
58.88
64.83
71.27
77.40
82.43
85.70
86.83
85.77
82.75
78.17
72.48
65.99
58.90
51.29
43.28
35.05
26.74
18.41
9.93
1.02
-8.52
-18.67
-29.02
-38.90
-47.65
-54.87
-60.61
-65.34
-69.82
-74.81
-81.01
-88.83
-98.34
-109.06
-119.92
-129.31
-135.32
-136.34
-131.48
-120.88
-105.62
-87.30
-67.54
-47.69
-28.80
-11.76
2.63
13.70
21.17
25.27
26.73
26.45
25.11
22.99
20.14
16.47
12.18
7.70
3.60
0.47
-0.92
0.59
6.52
18.26
36.12
58.70
83.02
105.43
123.15
135.26
142.87
148.13
152.77
157.22
160.55
161.32
158.60
152.54
144.12
134.41
123.89
112.25
98.78
82.92
64.77
44.91
24.47
4.35
-14.95
-33.25
-50.41
-65.81
-78.19
-85.76
-86.93
-80.91
-68.23
-50.61
-30.38
-9.78
9.69
27.30
42.98
56.82
68.83
78.80
86.38
91.31
93.45
92.88
89.80
84.60
77.79
70.10
62.29
55.08
48.98
44.05
40.06
36.56
33.03
29.11
24.61
19.51
13.77
7.34
0.12
-7.89
-16.46
-25.12
-33.32
-40.64
-47.05
-52.96
-59.01
-65.85
-73.69
-82.28
-90.89
-98.70
-105.11
-109.94
-113.53
-116.52
-119.73
-123.93
-129.72
-137.35
-146.51
-156.11
-164.38
-169.15
-168.46
-161.19
-147.38
-128.21
-105.52
-81.22
-56.92
-33.62
-11.86
8.16
26.42
42.95
57.75
70.67
81.32
89.14
93.68
94.85
93.11
89.30
84.41
79.24
74.23
69.55
65.19
61.25
57.79
54.87
52.25
49.51
46.09
41.60
36.02
29.67
23.14
16.98
11.45
6.44
1.47
-3.98
-10.30
-17.55
-25.46
-33.60
-41.59
-49.27
-56.69
-63.94
-71.12
-78.19
-85.23
-92.43
-100.30
-109.30
-119.47
-130.05
-139.33
-145.02
-145.03
-138.20
-124.75
-106.19
-84.68
-62.30
-40.40
-19.56
0.25
19.20
37.23
54.07
69.20
82.14
92.54
100.29
105.43
108.06
108.37
106.51
102.83
97.86
92.31
86.95
82.37
78.79
75.94
73.20
69.88
65.43
59.67
52.78
45.21
37.40
29.76
22.50
15.76
9.59
3.96
-1.24
-6.26
-11.47
-17.31
-24.10
-31.97
-40.69
-49.71
-58.29
-65.83
-72.12
-77.51
-82.86
-89.19
-97.10
-106.34
-115.59
-122.73
-125.53
-122.46
-113.17
-98.67
-80.77
-61.46
-42.23
-23.88
-6.66
9.43
24.24
37.49
48.81
57.96
64.93
69.84
72.82
73.89
73.01
70.19
65.61
59.82
53.61
48.02
44.07
42.59
43.99
48.20
54.69
62.53
70.65
77.90
83.31
86.04
85.59
81.78
74.92
65.74
55.24
44.40
33.81
23.68
13.74
3.53
-7.43
-19.50
-32.86
-47.48
-63.04
-78.99
-94.57
-109.03
-121.85
-132.73
-141.41
-147.47
-150.12
-148.32
-141.15
-128.27
-109.93
-86.93
-60.26
-31.21
-1.36
27.30
52.66
73.08
88.01
98.32
105.72
111.98
117.95
123.34
127.13
128.43
127.09
123.81
119.65
115.38
111.16
106.63
101.43
95.49
89.14
82.88
77.05
71.54
65.77
59.01
50.74
41.04
30.62
20.50
11.60
4.19
-2.18
-8.52
-15.80
-24.46
-34.16
-43.96
-52.79
-59.90
-65.26
-69.48
-73.51
-78.34
-84.68
-92.85
-102.65
-113.37
-123.64
-131.69
-135.52
-133.51
-124.96
-110.39
-91.40
-70.16
-48.71
-28.37
-9.56
7.94
24.56
40.49
55.52
69.10
80.56
89.34
95.17
98.04
98.16
95.99
92.08
87.04
81.42
75.67
70.08
64.79
59.91
55.52
51.73
48.48
45.58
42.60
39.06
34.60
29.20
23.12
16.79
10.59
4.62
-1.31
-7.53
-14.26
-21.52
-28.98
-36.19
-42.78
-48.59
-53.79
-58.70
-63.66
-68.89
-74.49
-80.62
-87.58
-95.78
-105.43
-116.07
-126.38
-134.25
-137.40
-134.17
-124.19
-108.56
-89.35
-68.88
-48.88
-30.16
-12.70
3.87
19.84
35.18
49.58
62.64
74.05
83.63
91.25
96.73
99.82
100.28
98.12
93.68
87.71
81.17
75.02
69.91
66.10
63.38
61.26
59.17
56.61
53.32
49.23
44.42
38.95
32.92
26.46
19.84
13.40
7.41
1.94
-3.30
-8.87
-15.35
-22.93
-31.30
-39.67
-47.10
-53.08
-57.71
-61.82
-66.52
-72.85
-81.27
-91.41
-102.11
-111.50
-117.55
-118.45
-113.20
-101.83
-85.47
-65.92
-45.13
-24.66
-5.41
12.27
28.38
42.97
55.99
67.38
77.04
84.98
91.16
95.53
98.00
98.57
97.35
94.64
90.87
86.45
81.80
77.20
72.87
68.90
65.30
61.89
58.36
54.36
49.59
44.00
37.74
31.24
25.00
19.46
14.79
10.78
6.93
2.54
-3.00
-10.04
-18.41
-27.55
-36.64
-44.98
-52.25
-58.64
-64.82
-71.60
-79.72
-89.49
-100.67
-112.43
-123.38
-131.83
-136.04
-134.74
-127.41
-114.57
-97.58
-78.26
-58.36
-39.12
-21.10
-4.29
11.53
26.55
40.76
53.82
65.23
74.41
80.88
84.39
85.11
83.60
80.68
77.11
73.36
69.52
65.43
60.93
56.04
51.05
46.35
42.19
38.51
34.93
30.97
26.20
20.60
14.51
8.46
3.00
-1.68
-5.75
-9.73
-14.11
-19.22
-25.05
-31.33
-37.87
-44.59
-51.60
-58.99
-66.69
-74.39
-81.78
-88.81
-95.90
-103.76
-112.99
-123.50
-134.07
-142.51
-146.18
-142.88
-131.73
-113.44
-90.17
-64.71
-39.58
-16.38
4.42
23.17
40.51
56.89
72.34
86.57
99.16
109.77
118.13
124.01
127.10
127.15
124.13
118.43
110.95
102.83
95.14
88.55
83.16
78.62
74.40
70.07
65.40
60.40
55.19
49.84
44.33
38.49
32.07
24.92
17.03
8.69
0.34
-7.67
-15.26
-22.77
-30.75
-39.65
-49.43
-59.56
-69.24
-77.79
-85.08
-91.46
-97.69
-104.56
-112.68
-122.27
-133.10
-144.39
-154.69
-162.09
-164.61
-160.80
-150.25
-133.80
-113.34
-91.11
-69.17
-48.80
-30.37
-13.62
2.05
17.17
31.89
45.94
58.69
69.39
77.38
82.38
84.50
84.26
82.39
79.68
76.74
73.99
71.57
69.49
67.58
65.74
63.88
61.98
60.01
57.85
55.27
52.00
47.86
42.87
37.34
31.70
26.35
21.44
16.78
12.01
6.77
0.92
-5.34
-11.74
-17.96
-23.89
-29.53
-35.02
-40.48
-46.11
-52.25
-59.38
-67.99
-78.14
-89.14
-99.41
-106.75
-109.01
-104.76
-93.97
-77.87
-58.55
-38.21
-18.50
-0.26
16.37
31.58
45.44
57.72
67.98
75.77
80.89
83.51
84.11
83.35
81.74
79.63
77.08
74.01
70.38
66.28
61.99
57.88
54.26
51.13
48.35
45.56
42.46
38.84
34.68
30.10
25.22
20.14
14.91
9.53
3.99
-1.71
-7.57
-13.54
-19.60
-25.71
-31.92
-38.26
-44.80
-51.49
-58.17
-64.64
-70.85
-77.03
-83.78
-91.73
-101.17
-111.59
-121.53
-128.91
-131.60
-128.22
-118.57
-103.65
-85.15
-64.88
-44.18
-23.83
-4.19
14.53
32.11
48.26
62.79
75.67
86.92
96.50
104.14
109.39
111.88
111.53
108.83
104.62
99.89
95.38
91.35
87.68
83.96
79.82
75.16
70.06
64.83
59.68
54.63
49.50
44.03
38.03
31.50
24.62
17.67
10.85
4.14
-2.62
-9.68
-17.18
-25.04
-33.05
-40.86
-48.25
-55.13
-61.64
-68.00
-74.53
-81.51
-89.30
-98.26
-108.61
-120.18
-132.08
-142.65
-149.66
-150.95
-145.20
-132.39
-113.85
-91.78
-68.46
-45.58
-23.96
-3.73
15.35
33.39
50.24
65.49
78.66
89.33
97.29
102.53
105.21
105.60
104.03
100.93
96.77
92.06
87.32
82.94
79.18
76.01
73.15
70.19
66.68
62.30
56.91
50.64
43.72
36.47
29.13
21.82
14.49
7.07
-0.53
-8.32
-16.26
-24.31
-32.43
-40.64
-48.90
-57.04
-64.80
-71.87
-78.03
-83.29
-87.98
-92.74
-98.38
-105.60
-114.59
-124.78
-134.65
-142.04
-144.66
-140.85
-130.08
-113.18
-92.01
-68.71
-45.18
-22.61
-1.51
17.98
35.78
51.67
65.33
76.45
84.89
90.68
93.99
95.04
94.12
91.59
87.93
83.68
79.35
75.35
71.81
68.69
65.73
62.69
59.38
55.74
51.79
47.57
43.06
38.17
32.83
27.10
21.19
15.46
10.20
5.56
1.37
-2.73
-7.21
-12.37
-18.24
-24.62
-31.13
-37.44
-43.31
-48.79
-54.05
-59.38
-65.10
-71.52
-78.90
-87.32
-96.49
-105.51
-112.83
-116.52
-114.74
-106.52
-92.03
-72.72
-50.76
-28.36
-7.16
12.11
29.40
45.05
59.22
71.82
82.45
90.66
96.22
99.20
100.02
99.22
97.35
94.81
91.77
88.27
84.32
80.01
75.51
71.06
66.83
62.86
59.01
55.09
50.93
46.49
41.81
36.98
32.04
26.91
21.52
15.88
10.04
4.20
-1.56
-7.34
-13.47
-20.31
-28.11
-36.77
-45.80
-54.53
-62.32
-68.95
-74.66
-80.17
-86.37
-94.04
-103.47
-114.22
-125.09
-134.12
-139.13
-138.20
-130.33
-115.75
-95.96
-73.20
-49.76
-27.42
-7.02
11.25
27.62
42.33
55.42
66.80
76.33
83.92
89.55
93.20
94.86
94.61
92.69
89.50
85.66
81.75
78.25
75.36
73.00
70.86
68.52
65.71
62.27
58.28
53.84
49.00
43.73
37.97
31.72
25.15
18.59
12.31
6.45
0.92
-4.54
-10.22
-16.27
-22.68
-29.32
-36.03
-42.70
-49.16
-55.29
-60.95
-66.13
-71.07
-76.26
-82.33
-89.80
-98.63
-107.99
-116.19
-121.10
-120.70
-113.85
-100.63
-82.38
-61.23
-39.39
-18.54
0.43
17.34
32.43
45.99
58.14
68.87
78.03
85.45
90.95
94.37
95.59
94.63
91.69
87.21
81.85
76.31
71.19
66.85
63.37
60.56
58.09
55.60
52.82
49.60
45.89
41.80
37.42
32.82
27.99
22.76
16.98
10.51
3.43
-4.05
-11.53
-18.69
-25.37
-31.68
-37.93
-44.38
-51.14
-58.03
-64.71
-70.81
-76.12
-80.74
-85.05
-89.74
-95.58
-103.16
-112.53
-122.80
-132.16
-138.14
-138.40
-131.57
-117.73
-98.49
-76.34
-53.77
-32.52
-13.26
4.21
20.39
35.61
49.80
62.53
73.36
82.04
88.58
93.18
96.05
97.24
96.68
94.30
90.29
85.18
79.75
74.83
70.87
67.83
65.17
62.18
58.34
53.55
48.04
42.17
36.15
29.94
23.35
16.32
9.03
1.87
-4.72
-10.52
-15.71
-20.72
-26.07
-32.12
-38.85
-45.95
-52.91
-59.22
-64.58
-69.00
-72.82
-76.60
-80.95
-86.36
-92.98
-100.51
-108.16
-114.68
-118.54
-118.22
-112.64
-101.52
-85.56
-66.33
-45.86
-26.03
-8.06
7.74
21.76
34.65
46.83
58.17
67.98
75.44
79.99
81.60
80.91
78.86
76.41
74.12
72.17
70.32
68.28
65.88
63.16
60.30
57.43
54.58
51.58
48.27
44.57
40.60
36.61
32.84
29.40
26.16
22.83
18.98
14.23
8.40
1.62
-5.75
-13.26
-20.52
-27.42
-34.10
-40.83
-47.82
-55.07
-62.49
-70.10
-78.26
-87.59
-98.60
-111.14
-124.00
-134.91
-141.14
-140.46
-131.87
-116.03
-94.94
-71.20
-47.15
-24.36
-3.56
15.15
31.85
46.72
59.97
71.91
82.98
93.48
103.43
112.44
119.80
124.72
126.66
125.45
121.43
115.32
108.03
100.49
93.34
86.86
80.84
74.83
68.40
61.41
54.06
46.72
39.75
33.22
27.06
21.09
15.32
9.89
5.01
0.73
-3.19
-7.18
-11.79
-17.42
-24.17
-31.79
-39.74
-47.36
-54.02
-59.43
-63.63
-67.03
-70.27
-74.10
-79.21
-86.07
-94.70
-104.37
-113.58
-120.18
-122.02
-117.56
-106.49
-89.88
-69.76
-48.50
-28.01
-9.39
7.11
21.71
34.79
46.55
56.90
65.61
72.42
77.15
79.84
80.66
79.84
77.64
74.32
70.20
65.71
61.39
57.77
55.17
53.58
52.64
51.75
50.36
48.13
45.09
41.52
37.75
33.97
30.10
25.92
21.11
15.58
9.51
3.29
-2.67
-8.14
-13.20
-18.17
-23.44
-29.28
-35.74
-42.66
-49.74
-56.77
-63.67
-70.65
-78.15
-86.72
-96.93
-108.93
-122.16
-135.20
-145.85
-151.74
-150.99
-142.85
-127.95
-107.98
-85.16
-61.51
-38.51
-16.94
2.89
20.90
37.04
51.23
63.35
73.29
80.99
86.40
89.58
90.69
89.96
87.73
84.43
80.54
76.54
72.81
69.52
66.56
63.63
60.38
56.62
52.36
47.81
43.14
38.37
33.44
28.21
22.71
17.11
11.70
6.65
1.95
-2.61
-7.30
-12.43
-18.22
-24.82
-32.23
-40.26
-48.48
-56.33
-63.27
-69.13
-74.13
-78.94
-84.42
-91.40
-100.20
-110.36
-120.40
-128.13
-131.15
-127.59
-116.79
-99.54
-77.85
-54.17
-30.55
-8.16
12.68
31.92
49.45
64.82
77.48
86.97
93.36
97.30
99.93
102.07
103.69
104.10
102.45
98.37
92.30
85.36
79.35
75.97
75.73
77.35
78.49
76.95
71.76
63.17
52.46
41.75
33.32
28.25
25.76
23.94
20.69
14.31
3.06
-14.37
-37.29
-62.09
-83.24
-95.28
-94.27
-79.13
-51.53
-16.51
15.71
32.91
29.90
12.46
-9.65
-29.93
-46.97
-60.71
-72.04
-81.45
-88.10
-90.18
-86.68
-78.41
-67.32
-55.72
-43.39
-30.02
-15.39
1.35
21.51
45.88
74.08
105.03
130.51
148.97
161.41
169.68
175.21
177.94
175.51
164.41
147.00
120.40
86.91
51.11
17.97
-8.72
-27.14
-37.93
-42.66
-43.08
-41.76
-39.77
-38.37
-39.53
-44.82
-54.56
-68.24
-83.63
-97.74
-109.00
-116.18
-119.86
-121.97
-124.82
-130.12
-139.20
-150.71
-161.01
-166.27
-163.00
-149.67
-127.11
-98.14
-61.64
-24.13
5.53
22.50
27.51
24.34
16.83
7.98
-0.13
-5.60
-8.46
-8.87
-7.18
-3.91
-0.32
2.89
6.23
11.25
20.85
36.19
57.03
81.01
103.29
117.48
118.20
103.37
70.21
24.57
-22.71
-58.32
-70.92
-55.16
-13.16
47.12
115.26
181.69
240.38
287.31
319.76
335.41
332.48
310.88
273.45
225.85
174.69
126.03
82.74
44.89
11.14
-19.72
-47.88
-72.66
-93.38
-109.97
-122.42
-130.68
-134.08
-131.24
-120.60
-101.21
-73.36
-38.75
-0.23
38.98
75.68
107.44
133.21
153.61
170.63
186.82
203.94
222.05
239.22
252.22
257.78
253.99
240.91
220.37
195.02
167.36
139.22
111.85
86.21
63.35
44.21
29.25
18.05
9.26
1.10
-7.85
-17.97
-28.47
-37.93
-45.15
-50.09
-54.12
-59.73
-69.59
-85.49
-107.67
-135.06
-165.66
-197.55
-229.60
-261.73
-294.84
-330.59
-370.94
-417.62
-471.02
-528.93
-585.73
-633.06
-662.05
-666.47
-645.17
-602.53
-546.81
-487.02
-429.89
-378.42
-332.49
-290.58
-251.36
-214.08
-177.93
-141.94
-105.30
-67.86
-30.54
4.87
36.25
61.90
81.24
95.37
105.84
113.60
118.94
122.26
124.39
126.32
128.63
131.03
133.35
134.53
132.81
127.04
118.04
108.66
102.55
102.57
109.87
125.32
147.98
174.71
201.03
222.61
235.94
238.32
228.01
198.33
149.51
91.85
39.63
0.74
-25.82
-46.14
-66.65
-90.79
-118.44
-143.21
-157.91
-158.19
-144.13
-119.35
-89.26
-59.02
-31.24
-9.89
4.83
14.56
20.91
24.55
25.86
25.50
24.60
24.51
26.16
31.05
39.53
50.63
62.71
75.00
88.24
104.22
124.43
148.62
174.78
198.55
214.41
217.99
208.19
187.73
161.89
136.14
114.08
97.02
84.02
73.19
62.89
52.48
42.05
31.85
21.73
11.10
-0.44
-12.90
-25.83
-38.29
-49.25
-57.73
-63.02
-64.72
-62.85
-57.76
-50.14
-40.86
-30.67
-20.08
-9.21
1.98
13.49
25.01
35.95
45.64
53.62
59.82
64.43
67.55
68.99
68.28
65.16
60.05
54.16
49.13
46.24
45.60
45.95
45.12
40.95
32.10
18.48
0.97
-19.09
-40.44
-62.03
-82.87
-101.71
-116.92
-126.72
-129.74
-125.56
-115.13
-100.49
-84.13
-67.93
-52.54
-37.33
-21.05
-2.79
17.23
37.56
55.98
70.41
79.53
83.17
81.97
77.11
69.96
61.88
54.21
48.16
44.66
44.17
46.67
51.68
58.41
66.07
73.97
81.67
88.92
95.59
101.57
106.75
111.07
114.48
116.98
118.44
118.49
116.53
111.78
103.61
91.82
76.83
59.62
41.49
23.71
7.37
-7.07
-19.75
-31.17
-41.80
-51.78
-60.88
-68.60
-74.44
-77.92
-79.06
-78.38
-76.66
-74.64
-72.67
-70.62
-68.04
-64.47
-59.30
-52.49
-44.69
-36.97
-30.35
-25.53
-22.87
-22.35
-23.62
-24.84
-24.19
-20.59
-14.00
-5.20
4.38
12.97
19.05
21.95
24.24
28.44
35.49
44.41
53.52
61.31
66.87
70.10
71.87
77.25
90.23
111.49
138.20
166.06
190.83
209.44
220.70
225.49
230.60
241.16
257.49
275.54
290.72
300.44
304.85
305.79
277.91
211.11
114.91
11.66
-80.56
-154.43
-209.97
-249.50
-275.61
-291.08
-294.27
-285.26
-267.52
-248.45
-232.06
-219.93
-211.69
-206.04
-202.00
-195.63
-184.85
-170.69
-156.32
-144.12
-135.10
-129.20
-123.99
-118.52
-110.41
-98.73
-84.51
-70.11
-57.24
-46.66
-38.34
-31.79
-26.80
-22.24
-17.58
-13.26
-10.36
-9.36
-10.14
-12.14
-14.46
-16.58
-17.77
-17.91
-17.49
-17.70
-19.53
-22.52
-26.11
-29.10
-29.77
-26.05
-16.62
-1.65
16.78
35.79
52.51
64.88
72.40
75.76
76.37
75.33
74.46
73.30
71.71
69.84
67.84
65.92
64.18
62.91
62.39
62.97
64.80
68.00
72.29
76.85
80.83
82.71
82.27
80.27
78.21
77.71
80.24
86.54
96.17
107.60
118.18
124.81
124.55
115.67
98.43
75.52
51.27
30.05
14.62
5.02
-1.16
-7.55
-17.17
-31.07
-47.97
-65.29
-80.65
-92.94
-102.40
-109.88
-115.93
-120.34
-122.42
-121.64
-118.38
-113.98
-110.11
-107.92
-107.41
-107.47
-106.62
-103.75
-98.70
-92.29
-85.82
-80.49
-76.83
-74.60
-73.03
-71.20
-68.51
-64.80
-60.39
-55.85
-51.80
-48.73
-46.97
-46.58
-47.33
-48.58
-49.31
-48.37
-44.83
-38.38
-29.43
-19.02
-8.36
1.57
10.32
17.98
24.90
31.42
37.71
43.74
49.28
53.98
57.42
59.06
58.42
55.30
49.96
43.23
36.27
30.28
26.08
23.98
23.78
24.97
26.93
29.02
30.61
31.02
29.66
26.13
20.50
13.36
5.70
-1.45
-7.36
-11.81
-15.06
-17.58
-19.75
-21.70
-23.31
-24.45
-25.14
-25.67
-26.40
-27.64
-29.43
-31.51
-33.58
-35.49
-37.39
-39.61
-42.42
-45.68
-48.76
-50.61
-50.21
-46.95
-40.92
-32.92
-24.10
-15.58
-8.00
-1.46
4.41
10.11
15.97
22.06
28.27
34.44
40.55
46.69
52.95
59.29
65.47
71.12
75.90
79.62
82.29
84.07
85.17
85.66
85.50
84.44
82.24
78.75
74.02
68.36
62.14
55.76
49.41
43.13
36.85
30.50
24.16
18.04
12.44
7.62
3.67
0.51
-2.01
-4.04
-5.59
-6.45
-6.26
-4.71
-1.78
2.08
5.91
8.52
8.85
6.44
1.62
-4.55
-10.66
-15.45
-18.21
-18.91
-18.03
-16.23
-14.05
-11.69
-9.11
-6.17
-2.80
0.91
4.77
8.51
11.91
14.78
16.95
18.31
18.74
18.15
16.60
14.26
11.39
8.25
5.04
1.78
-1.57
-5.14
-9.06
-13.43
-18.30
-23.67
-29.44
-35.39
-41.23
-46.50
-50.75
-53.65
-55.12
-55.48
-55.29
-55.21
-55.67
-56.74
-58.12
-59.29
-59.82
-59.54
-58.62
-57.43
-56.47
-56.11
-56.58
-57.88
-59.72
-61.51
-62.36
-61.31
-57.56
-50.83
-41.40
-30.09
-17.89
-5.69
5.84
16.29
25.43
33.09
39.15
43.63
46.63
48.36
49.10
49.04
48.41
47.34
45.92
44.19
42.10
39.56
36.56
33.19
29.67
26.31
23.39
21.08
19.40
18.21
17.23
16.14
14.66
12.61
10.02
7.07
3.99
0.97
-2.03
-5.15
-8.60
-12.41
-16.45
-20.42
-24.00
-27.07
-29.71
-32.19
-34.83
-37.90
-41.49
-45.56
-49.97
-54.48
-58.80
-62.48
-64.90
-65.32
-63.09
-57.86
-49.85
-39.83
-28.91
-18.18
-8.30
0.66
9.06
17.41
25.96
34.51
42.47
49.13
53.98
56.89
58.17
58.33
57.87
57.11
56.11
54.73
52.77
50.10
46.77
43.00
39.06
35.18
31.43
27.73
23.90
19.85
15.65
11.44
7.41
3.57
-0.18
-4.02
-8.09
-12.44
-17.04
-21.79
-26.65
-31.53
-36.36
-41.03
-45.42
-49.46
-53.10
-56.38
-59.40
-62.40
-65.75
-69.92
-75.22
-81.45
-87.78
-92.79
-94.93
-93.11
-87.21
-78.06
-67.14
-55.92
-45.33
-35.66
-26.68
-18.08
-9.74
-1.82
5.34
11.50
16.61
20.79
24.17
26.79
28.53
29.20
28.67
27.06
24.68
22.04
19.60
17.64
16.20
15.16
14.30
13.47
12.61
11.68
10.59
9.20
7.25
4.54
0.89
-3.66
-8.93
-14.59
-20.23
-25.53
-30.27
-34.39
-37.95
-40.99
-43.53
-45.45
-46.66
-47.12
-47.03
-46.75
-46.81
-47.69
-49.69
-52.76
-56.41
-59.70
-61.44
-60.46
-56.01
-47.99
-37.00
-24.12
-10.51
2.88
15.55
27.35
38.29
48.39
57.55
65.57
72.24
77.41
81.08
83.34
84.43
84.61
84.14
83.23
82.03
80.66
79.25
78.02
77.14
76.66
76.43
76.05
75.04
73.00
69.85
65.84
61.47
57.31
53.74
50.78
48.12
45.14
41.20
35.87
29.11
21.34
13.20
5.34
-1.92
-8.57
-14.90
-21.22
-27.73
-34.45
-41.38
-48.58
-56.13
-63.90
-71.30
-77.20
-80.18
-78.96
-72.98
-62.76
-49.71
-35.70
-22.42
-10.79
-0.87
7.96
16.50
25.24
34.19
42.77
50.16
55.52
58.32
58.44
56.14
51.92
46.35
39.97
33.28
26.76
20.83
15.86
11.98
9.08
6.75
4.48
1.88
-1.10
-4.16
-6.82
-8.64
-9.57
-9.90
-10.19
-11.01
-12.76
-15.52
-19.15
-23.51
-28.45
-33.94
-39.93
-46.30
-52.82
-59.13
-64.97
-70.23
-75.07
-79.83
-85.02
-91.06
-98.07
-105.74
-113.15
-118.94
-121.60
-119.90
-113.32
-102.24
-87.76
-71.29
-54.21
-37.53
-22.05
-8.45
2.58
10.61
15.83
19.28
22.70
27.93
36.11
47.26
60.36
73.85
86.48
97.69
107.57
116.36
123.91
129.56
132.32
131.32
126.27
117.61
106.38
93.76
80.81
68.20
56.30
45.29
35.32
26.61
19.38
13.73
9.44
6.06
3.01
-0.09
-3.20
-5.84
-7.37
-7.46
-6.36
-4.96
-4.40
-5.68
-9.31
-15.38
-23.81
-34.49
-47.16
-61.05
-74.47
-84.92
-89.67
-86.80
-76.03
-59.03
-38.80
-18.72
-1.37
12.15
22.19
30.03
37.08
44.25
51.68
58.92
65.25
70.05
72.94
73.75
72.33
68.43
61.89
52.77
41.70
29.86
18.75
9.74
3.62
0.46
-0.33
0.33
1.55
2.67
3.42
3.75
3.85
3.88
3.91
3.93
3.76
3.19
1.97
0.02
-2.73
-6.18
-10.19
-14.55
-18.95
-23.07
-26.62
-29.50
-31.84
-34.13
-37.01
-41.15
-46.90
-54.00
-61.47
-67.68
-70.80
-69.42
-63.11
-52.57
-39.40
-25.46
-12.28
-0.62
9.45
18.25
26.07
32.99
38.90
43.61
46.98
49.00
49.68
49.06
47.26
44.65
41.81
39.49
38.37
38.75
40.39
42.54
44.27
44.83
43.92
41.79
39.02
36.16
33.52
31.06
28.50
25.58
22.19
18.36
14.22
9.83
5.22
0.40
-4.58
-9.61
-14.54
-19.23
-23.59
-27.64
-31.47
-35.27
-39.28
-43.70
-48.71
-54.35
-60.55
-67.19
-73.99
-80.47
-85.85
-89.05
-88.91
-84.55
-75.75
-63.15
-48.07
-32.04
-16.36
-1.74
11.61
23.77
34.85
44.80
53.52
60.90
66.99
71.89
75.78
78.77
80.92
82.25
82.71
82.34
81.24
79.66
77.99
76.56
75.59
74.95
74.13
72.40
69.05
63.67
56.38
47.76
38.63
29.83
21.86
14.88
8.72
3.13
-2.14
-7.28
-12.36
-17.52
-22.97
-28.93
-35.57
-42.88
-50.63
-58.48
-66.03
-72.96
-79.21
-84.93
-90.50
-96.36
-102.66
-109.12
-114.84
-118.63
-119.43
-116.76
-111.05
-103.41
-95.17
-87.23
-79.65
-71.67
-62.11
-49.90
-34.60
-16.67
2.66
21.61
38.37
51.45
60.06
64.12
64.25
61.47
56.94
51.81
47.07
43.50
41.57
41.40
42.68
44.80
47.03
48.80
49.89
50.34
50.41
50.28
49.92
49.17
47.78
45.65
42.75
39.18
34.96
30.11
24.63
18.56
12.15
5.72
-0.34
-5.78
-10.54
-14.78
-18.73
-22.66
-26.81
-31.38
-36.65
-42.83
-49.97
-57.65
-64.86
-70.11
-71.88
-69.16
-61.96
-51.30
-38.87
-26.28
-14.50
-3.68
6.58
16.71
26.67
35.91
43.62
49.16
52.37
53.65
53.69
53.14
52.40
51.61
50.74
49.80
48.86
48.06
47.45
46.92
46.20
44.91
42.69
39.35
34.92
29.66
24.01
18.43
13.25
8.54
4.17
-0.09
-4.45
-8.98
-13.66
-18.39
-23.10
-27.79
-32.45
-37.11
-41.68
-46.06
-50.19
-54.05
-57.72
-61.40
-65.45
-70.24
-76.10
-83.02
-90.47
-97.31
-102.01
-103.13
-99.80
-92.04
-80.70
-67.17
-52.85
-38.82
-25.67
-13.55
-2.42
7.80
17.06
25.27
32.14
37.41
40.84
42.31
41.90
39.79
36.30
31.77
26.58
21.20
16.11
11.74
8.26
5.52
3.02
0.17
-3.54
-8.22
-13.61
-19.13
-24.04
-27.60
-29.16
-28.24
-24.57
-18.23
-9.67
0.20
10.17
18.95
25.46
29.07
29.69
27.73
23.88
18.89
13.31
7.43
1.26
-5.40
-12.81
-21.25
-30.87
-41.61
-52.98
-63.94
-72.97
-78.35
-78.74
-73.57
-63.39
-49.69
-34.41
-19.30
-5.44
6.90
18.03
28.42
38.34
47.65
55.90
62.46
66.81
68.61
67.84
64.85
60.25
54.88
49.58
44.95
41.32
38.67
36.79
35.46
34.49
33.68
32.77
31.45
29.41
26.50
22.78
18.54
14.05
9.54
5.10
0.77
-3.30
-6.99
-10.26
-13.27
-16.29
-19.58
-23.11
-26.51
-29.24
-30.86
-31.41
-31.37
-31.60
-32.92
-35.96
-40.79
-46.94
-53.43
-58.84
-61.62
-60.39
-54.33
-43.47
-28.69
-11.58
5.94
22.13
35.77
46.43
54.39
60.41
65.26
69.41
72.78
74.90
75.15
73.21
69.24
63.86
57.94
52.25
47.26
43.07
39.49
36.18
32.86
29.39
25.78
22.19
18.71
15.25
11.50
7.08
1.73
-4.44
-10.85
-16.72
-21.32
-24.27
-25.74
-26.34
-26.90
-28.14
-30.39
-33.59
-37.38
-41.27
-44.94
-48.31
-51.51
-54.86
-58.64
-63.13
-68.45
-74.55
-80.98
-86.85
-90.80
-91.34
-87.34
-78.56
-65.79
-50.56
-34.65
-19.37
-5.32
7.46
19.30
30.39
40.77
50.31
58.89
66.42
72.84
78.05
81.83
84.03
84.53
83.47
81.19
78.15
74.79
71.45
68.32
65.40
62.65
59.98
57.34
54.65
51.74
48.45
44.61
40.22
35.47
30.70
26.22
22.09
18.08
13.72
8.48
1.99
-5.80
-14.62
-24.00
-33.36
-42.19
-50.08
-56.88
-62.66
-67.71
-72.53
-77.79
-84.14
-92.01
-101.27
-110.99
-119.43
-124.49
-124.33
-118.13
-106.40
-90.84
-73.65
-56.86
-41.67
-28.42
-16.82
-6.38
3.27
12.26
20.52
27.85
34.02
38.89
42.41
44.68
45.86
46.10
45.61
44.62
43.52
42.86
43.24
44.98
47.91
51.37
54.34
55.95
55.76
53.89
50.89
47.34
43.65
39.91
36.11
32.23
28.42
24.85
21.53
18.21
14.38
9.46
3.08
-4.66
-13.25
-21.89
-29.85
-36.66
-42.29
-47.11
-51.65
-56.54
-62.20
-68.82
-76.07
-83.11
-88.63
-91.18
-89.68
-83.78
-74.06
-61.75
-48.28
-34.76
-21.80
-9.65
1.59
11.73
20.55
27.96
34.14
39.46
44.22
48.40
51.61
53.26
52.93
50.60
46.76
42.25
37.95
34.50
32.15
30.66
29.47
27.91
25.42
21.80
17.18
11.97
6.59
1.40
-3.53
-8.35
-13.49
-19.56
-27.13
-36.52
-47.38
-58.54
-68.09
-73.91
-74.42
-69.21
-59.35
-47.00
-34.75
-24.75
-18.24
-15.39
-15.70
-18.44
-22.93
-28.67
-34.98
-40.77
-44.43
-44.29
-39.15
-28.90
-14.70
1.45
17.45
31.87
44.30
55.12
65.00
74.33
83.01
90.46
96.05
99.41
100.67
100.42
99.54
98.78
98.56
98.71
98.68
97.84
95.85
92.91
89.55
86.33
83.45
80.64
77.42
73.41
68.63
63.44
58.24
53.21
48.15
42.66
36.52
29.83
23.10
16.92
11.63
7.08
2.65
-2.46
-8.90
-16.81
-25.80
-35.14
-44.07
-52.20
-59.58
-66.65
-73.91
-81.60
-89.46
-96.70
-102.27
-105.12
-104.49
-100.12
-92.24
-81.55
-69.04
-55.72
-42.50
-30.00
-18.48
-7.91
1.84
10.93
19.39
27.13
33.98
39.78
44.40
47.73
49.71
50.36
49.89
48.71
47.40
46.55
46.50
47.22
48.35
49.33
49.76
49.46
48.51
47.03
45.02
42.29
38.63
33.99
28.68
23.29
18.46
14.55
11.52
8.89
6.01
2.42
-2.02
-7.09
-12.35
-17.44
-22.12
-26.33
-30.08
-33.46
-36.64
-40.02
-44.20
-49.83
-57.24
-66.09
-75.16
-82.61
-86.51
-85.54
-79.52
-69.50
-57.34
-45.05
-34.11
-25.07
-17.60
-10.93
-4.36
2.35
8.89
14.60
18.84
21.30
22.14
21.78
20.71
19.14
16.98
13.99
10.05
5.40
0.64
-3.47
-6.35
-7.83
-8.20
-7.97
-7.58
-7.18
-6.58
-5.58
-4.14
-2.54
-1.26
-0.76
-1.21
-2.40
-3.91
-5.32
-6.55
-7.82
-9.56
-12.13
-15.59
-19.61
-23.60
-26.99
-29.41
-30.98
-32.23
-33.98
-37.12
-42.21
-49.20
-57.23
-64.70
-69.71
-70.59
-66.46
-57.56
-45.10
-30.86
-16.54
-3.40
7.99
17.57
25.57
32.30
38.06
43.14
47.78
52.10
56.02
59.22
61.26
61.82
60.87
58.81
56.27
53.92
52.15
51.03
50.34
49.74
49.07
48.31
47.62
47.06
46.49
45.58
43.95
41.41
38.09
34.34
30.48
26.58
22.34
17.35
11.32
4.37
-2.92
-9.76
-15.52
-20.01
-23.47
-26.46
-29.49
-32.86
-36.61
-40.67
-45.03
-49.84
-55.27
-61.22
-67.09
-71.75
-73.78
-72.04
-66.12
-56.57
-44.63
-31.74
-18.97
-6.78
4.84
16.00
26.48
35.70
42.90
47.56
49.73
49.98
49.21
48.19
47.30
46.41
45.13
43.09
40.25
36.95
33.75
31.12
29.20
27.75
26.32
24.46
21.99
18.93
15.44
11.66
7.63
3.31
-1.26
-5.92
-10.43
-14.51
-18.08
-21.27
-24.44
-28.02
-32.30
-37.23
-42.38
-47.07
-50.60
-52.59
-53.16
-52.95
-52.83
-53.67
-55.91
-59.42
-63.44
-66.71
-67.81
-65.50
-59.12
-48.81
-35.46
-20.39
-4.97
9.77
23.25
35.20
45.49
54.05
60.81
65.87
69.48
71.98
73.50
73.92
72.86
69.94
65.01
58.25
50.21
41.61
33.22
25.82
20.14
16.81
16.20
18.26
22.35
27.36
31.90
34.68
34.86
32.11
26.62
18.93
9.78
-0.12
-10.15
-19.82
-28.79
-36.81
-43.74
-49.48
-54.03
-57.46
-59.96
-61.73
-62.99
-63.94
-64.73
-65.56
-66.75
-68.80
-72.16
-77.00
-82.89
-88.63
-92.52
-92.86
-88.55
-79.56
-66.94
-52.35
-37.45
-23.36
-10.40
1.61
13.00
23.85
33.88
42.61
49.67
54.96
58.65
61.02
62.23
62.25
60.98
58.35
54.56
50.01
45.27
40.79
36.88
33.55
30.67
27.98
25.27
22.41
19.39
16.27
13.12
10.00
6.85
3.61
0.24
-3.16
-6.40
-9.22
-11.50
-13.38
-15.20
-17.44
-20.39
-24.07
-28.14
-32.11
-35.60
-38.45
-40.86
-43.20
-45.88
-49.21
-53.30
-58.01
-62.84
-66.97
-69.33
-68.86
-64.83
-57.16
-46.52
-34.10
-21.26
-9.10
1.83
11.47
20.08
27.95
35.22
41.80
47.45
51.92
55.04
56.85
57.53
57.41
56.81
55.97
55.01
53.93
52.74
51.47
50.27
49.26
48.53
47.98
47.33
46.18
44.12
40.90
36.55
31.38
25.90
20.72
16.29
12.82
10.15
7.81
5.18
1.68
-3.00
-8.82
-15.40
-22.21
-28.78
-34.75
-40.03
-44.70
-49.04
-53.38
-58.10
-63.48
-69.44
-75.46
-80.45
-83.06
-82.02
-76.71
-67.40
-55.23
-41.77
-28.45
-16.13
-5.00
5.21
14.88
24.15
32.92
40.86
47.64
53.04
56.97
59.44
60.54
60.42
59.29
57.47
55.38
53.37
51.77
50.66
49.96
49.39
48.59
47.22
45.06
42.16
38.67
34.83
30.77
26.52
22.00
17.11
11.82
6.13
0.14
-6.06
-12.33
-18.58
-24.68
-30.61
-36.36
-42.00
-47.65
-53.43
-59.40
-65.56
-71.88
-78.39
-85.20
-92.53
-100.44
-108.68
-116.44
-122.42
-125.11
-123.22
-116.24
-104.58
-89.50
-72.62
-55.38
-38.68
-22.78
-7.58
7.04
21.00
33.91
45.25
54.59
61.68
66.61
69.66
71.13
71.27
70.18
67.93
64.65
60.68
56.57
52.94
50.20
48.41
47.27
46.26
44.93
43.09
40.80
38.26
35.61
32.79
29.58
25.77
21.27
16.25
11.00
5.83
0.92
-3.75
-8.40
-13.34
-18.82
-24.94
-31.59
-38.41
-44.94
-50.79
-55.80
-60.14
-64.27
-68.81
-74.26
-80.69
-87.56
-93.73
-97.72
-98.07
-93.85
-84.98
-72.22
-57.00
-40.94
-25.41
-11.18
1.64
13.36
24.43
35.07
45.08
53.96
61.16
66.43
69.91
72.09
73.49
74.44
74.91
74.65
73.44
71.29
68.52
65.54
62.67
59.99
57.33
54.40
50.95
46.86
42.19
37.06
31.63
26.01
20.33
14.64
8.98
3.35
-2.32
-8.10
-14.09
-20.36
-26.91
-33.61
-40.26
-46.58
-52.34
-57.40
-61.83
-65.90
-70.11
-75.10
-81.37
-89.05
-97.57
-105.61
-111.38
-113.07
-109.48
-100.44
-86.81
-70.14
-52.10
-34.01
-16.64
-0.40
14.46
27.60
38.63
47.29
53.62
58.00
61.01
63.19
64.81
65.87
66.21
65.76
64.64
63.21
61.94
61.15
60.88
60.86
60.58
59.44
56.92
52.69
46.66
39.06
30.28
20.90
11.48
2.49
-5.76
-13.21
-19.96
-26.24
-32.39
-38.75
-45.68
-53.44
-62.15
-71.77
-82.18
-93.23
-104.93
-117.42
-130.90
-145.48
-160.99
-176.91
-192.41
-206.43
-217.75
-225.19
-227.56
-223.88
-213.56
-196.53
-173.31
-144.94
-112.83
-78.73
-44.66
-12.73
15.17
37.89
55.39
68.78
79.83
90.15
100.53
110.65
119.47
125.93
129.61
130.94
130.81
130.07
129.03
127.47
124.87
120.85
115.34
108.57
100.97
92.83
84.17
74.88
64.91
54.43
43.95
34.19
25.79
19.09
13.91
9.70
5.66
1.40
-3.48
-9.46
-16.91
-25.92
-36.25
-47.66
-60.18
-74.15
-89.52
-106.05
-122.97
-138.83
-151.62
-159.44
-161.49
-158.57
-152.98
-146.66
-141.47
-138.66
-138.18
-138.39
-136.50
-129.96
-117.44
-99.21
-74.13
-42.98
-8.70
25.01
56.02
84.66
113.05
143.70
178.25
222.17
275.98
333.56
384.84
421.42
439.68
440.62
428.44
408.91
397.22
403.35
427.78
463.58
502.94
540.65
573.70
600.38
619.32
641.54
672.50
707.71
736.18
749.21
744.40
723.79
691.19
578.07
364.25
87.39
-183.04
-397.23
-542.23
-628.18
-672.51
-689.21
-692.01
-676.11
-638.64
-585.23
-527.93
-476.83
-435.60
-405.71
-385.27
-371.84
-353.75
-324.72
-287.19
-249.39
-218.32
-196.26
-182.12
-173.12
-167.14
-156.96
-139.21
-116.13
-93.48
-76.12
-65.86
-62.18
-63.09
-66.54
-67.65
-63.40
-53.81
-41.12
-27.77
-15.33
-4.67
3.83
9.90
14.69
19.36
24.66
31.13
39.31
49.72
62.33
76.48
90.87
104.04
114.60
121.42
123.65
120.61
111.91
97.56
78.10
54.72
29.05
3.02
-21.47
-42.70
-59.32
-70.39
-75.54
-74.91
-69.16
-59.39
-46.83
-32.71
-18.02
-3.61
9.84
21.74
31.62
39.20
44.52
47.93
49.97
51.18
51.89
52.06
51.43
49.61
46.31
41.43
35.11
27.57
19.05
9.73
-0.15
-10.18
-19.78
-28.32
-35.33
-40.75
-44.94
-48.62
-52.53
-57.12
-62.31
-67.44
-71.61
-74.01
-74.23
-72.40
-69.32
-66.01
-63.36
-61.59
-60.24
-58.46
-55.46
-50.75
-44.45
-37.33
-30.52
-25.23
-22.15
-21.39
-22.63
-24.58
-24.69
-19.40
-5.73
17.08
46.53
77.41
103.58
119.76
123.95
118.08
106.73
94.33
83.18
73.02
62.41
50.10
35.07
17.07
-3.35
-25.08
-47.06
-68.15
-86.73
-100.38
-101.94
-86.51
-55.81
-18.54
15.29
39.18
51.31
53.57
50.18
46.00
44.10
45.54
49.37
54.53
59.90
64.41
67.26
68.30
67.90
65.93
62.04
56.02
48.01
37.80
26.08
12.58
-3.06
-20.89
-40.65
-61.49
-81.85
-99.82
-113.86
-123.31
-128.49
-130.10
-128.87
-125.56
-120.65
-114.23
-106.09
-96.02
-84.07
-70.79
-57.04
-43.82
-32.18
-22.95
-16.46
-12.40
-9.88
-7.57
-4.22
1.13
8.65
17.48
25.92
31.95
33.96
31.31
24.37
14.21
2.07
-11.16
-25.15
-39.88
-55.20
-70.28
-83.65
-93.39
-97.86
-96.32
-89.20
-78.10
-65.30
-53.05
-42.91
-35.40
-29.93
-25.10
-19.31
-11.25
-0.47
12.49
26.02
37.98
46.23
49.38
47.38
41.69
34.93
30.19
30.09
35.99
47.66
63.39
80.68
97.05
110.72
120.99
128.15
133.12
136.76
139.46
140.86
139.97
135.64
127.02
114.01
97.25
77.86
56.95
35.39
13.80
-7.23
-26.77
-43.58
-56.26
-63.73
-65.61
-62.46
-55.55
-46.60
-37.36
-29.27
-23.30
-19.84
-18.71
-19.25
-20.40
-20.99
-19.92
-16.44
-10.33
-1.86
8.19
18.85
29.22
38.72
47.23
54.89
61.77
67.34
70.35
68.99
61.58
47.42
27.46
4.46
-17.53
-34.11
-41.61
-38.02
-23.52
-0.31
27.73
55.96
80.04
96.86
105.22
106.05
101.91
96.23
92.23
92.04
96.15
103.37
111.23
116.88
118.05
113.90
105.17
93.93
82.56
72.94
65.91
61.28
58.29
55.97
53.47
49.94
44.58
36.69
26.05
13.18
-0.59
-13.55
-24.26
-32.17
-37.77
-42.32
-47.28
-53.67
-61.77
-71.15
-81.01
-90.52
-98.98
-105.85
-110.73
-113.23
-113.01
-109.91
-103.99
-95.60
-85.28
-73.75
-61.80
-50.28
-39.89
-30.98
-23.39
-16.41
-9.07
-0.53
9.42
20.17
30.44
38.83
44.36
46.84
46.87
45.51
43.86
42.62
42.05
42.03
42.36
42.89
43.55
44.30
44.85
44.67
43.09
39.62
34.14
27.03
18.97
10.64
2.38
-5.87
-14.44
-23.55
-33.10
-42.59
-51.28
-58.58
-64.32
-68.80
-72.71
-76.80
-81.65
-87.54
-94.35
-101.72
-109.07
-115.81
-121.35
-125.14
-126.64
-125.23
-120.23
-111.01
-97.21
-79.06
-57.54
-34.24
-11.17
9.27
25.18
35.52
39.96
38.70
32.39
22.25
10.02
-2.30
-13.32
-22.08
-28.11
-31.54
-33.07
-33.67
-34.10
-34.79
-35.82
-38.09
-41.94
-46.95
-52.25
-57.16
-61.28
-64.39
-66.39
-67.41
-70.35
-76.80
-86.00
-95.97
-105.37
-113.91
-121.71
-128.81
-135.04
-145.28
-161.43
-180.85
-199.04
-213.69
-225.38
-235.85
-246.53
-257.91
-277.69
-307.97
-342.99
-373.77
-394.96
-406.53
-411.26
-412.56
-413.08
-424.71
-451.16
-484.69
-512.16
-524.53
-519.78
-500.62
-471.88
-371.54
-188.62
32.90
231.65
376.13
467.07
517.77
541.80
549.30
547.29
529.98
496.86
455.92
418.25
390.49
372.05
359.45
349.45
340.19
323.19
296.80
267.47
244.94
234.79
236.40
245.44
256.42
265.03
259.17
234.23
193.80
146.52
100.63
61.45
31.59
11.54
0.28
-6.70
-11.85
-15.14
-14.99
-10.36
-1.45
10.81
24.98
39.31
51.14
59.21
63.50
64.87
64.13
61.66
57.48
51.58
44.05
35.24
26.06
17.41
9.91
3.79
-1.07
-4.95
-8.15
-10.89
-13.30
-15.31
-16.91
-18.12
-19.00
-19.68
-20.41
-21.51
-23.23
-25.49
-27.64
-28.68
-27.59
-23.80
-17.50
-9.58
-1.40
5.81
11.40
15.38
18.23
20.48
22.42
24.00
25.09
25.53
25.59
26.02
27.73
31.16
35.90
40.83
44.69
46.88
47.42
47.26
48.09
51.57
58.34
67.66
77.93
87.27
94.49
98.63
99.51
98.09
95.98
94.66
94.99
97.12
100.37
103.38
103.14
96.16
80.12
54.70
21.50
-16.39
-55.17
-92.02
-119.49
-131.71
-129.29
-117.42
-101.23
-83.71
-66.21
-49.33
-33.68
-19.52
-7.61
1.25
7.42
12.27
17.24
23.17
30.20
37.64
44.93
51.12
54.81
55.58
54.46
52.93
52.17
52.84
54.58
57.18
60.25
61.78
60.97
58.85
57.48
58.47
62.58
68.94
76.77
85.13
89.79
87.99
80.08
68.10
52.64
38.49
26.32
16.09
7.47
-5.24
-25.59
-52.09
-79.94
-104.93
-125.25
-141.75
-155.66
-168.25
-187.69
-219.32
-262.04
-310.30
-359.26
-406.94
-454.10
-501.90
-506.55
-448.54
-344.38
-230.71
-133.57
-60.08
-6.64
32.69
63.32
89.11
105.43
109.24
103.13
93.64
86.24
83.25
84.53
89.19
96.29
99.84
95.90
85.55
73.30
63.05
56.36
53.05
52.44
53.79
53.33
48.40
39.53
29.40
20.28
13.07
7.70
3.88
1.33
-1.56
-6.14
-12.28
-18.79
-24.67
-29.39
-32.63
-33.96
-34.18
-32.41
-28.86
-23.84
-17.77
-11.29
-5.07
0.48
5.38
9.95
14.59
18.87
22.06
23.08
21.09
15.83
7.70
-2.31
-13.09
-23.35
-32.21
-38.96
-43.45
-46.32
-49.26
-54.72
-65.01
-80.90
-100.75
-120.83
-136.51
-144.35
-143.62
-136.69
-127.87
-121.55
-120.50
-125.14
-134.22
-145.90
-158.80
-172.23
-185.79
-198.89
-210.00
-217.50
-219.89
-216.54
-207.84
-194.97
-179.39
-162.33
-144.54
-126.27
-107.67
-88.91
-70.52
-53.23
-37.83
-24.92
-14.67
-6.83
-0.78
4.15
8.55
12.69
16.50
19.67
21.83
22.77
22.51
21.36
19.73
18.04
16.53
15.30
14.27
13.30
12.29
11.21
10.17
9.27
8.68
8.53
8.86
9.61
10.69
11.96
13.29
14.65
16.10
17.79
19.92
22.66
26.04
29.93
34.07
38.21
42.22
46.25
50.70
56.07
62.66
70.38
78.68
86.79
94.11
100.53
106.63
113.47
122.15
133.40
147.19
162.81
179.28
195.65
211.46
226.77
242.10
258.23
276.15
296.94
321.53
350.08
381.15
411.43
436.11
450.32
450.81
437.29
412.50
381.13
347.89
316.05
286.91
260.32
235.75
213.03
192.48
174.39
158.57
144.19
130.24
116.09
101.87
88.38
76.69
67.51
60.78
55.73
51.18
46.08
39.88
32.65
24.92
17.40
10.64
4.89
0.04
-4.23
-8.31
-12.48
-16.86
-21.43
-26.06
-30.62
-35.04
-39.25
-43.21
-46.95
-50.50
-53.99
-57.47
-60.98
-64.38
-67.46
-70.00
-71.94
-73.41
-74.69
-76.06
-77.70
-79.58
-81.51
-83.20
-84.42
-84.97
-84.77
-83.78
-82.02
-79.51
-76.32
-72.52
-68.25
-63.74
-59.23
-54.94
-51.00
-47.36
-43.83
-40.16
-36.16
-31.80
-27.18
-22.46
-17.82
-13.34
-9.03
-4.88
-0.84
3.10
6.88
10.43
13.62
16.29
18.29
19.52
20.00
19.77
18.88
17.36
15.22
12.56
9.59
6.61
3.86
1.41
-0.99
-3.77
-7.38
-12.09
-17.81
-24.27
-31.06
-37.77
-44.07
-49.60
-53.96
-56.77
-57.82
-57.16
-55.17
-52.39
-49.36
-46.44
-43.76
-41.30
-39.00
-36.88
-34.95
-33.27
-31.82
-30.47
-29.04
-27.31
-25.18
-22.65
-19.89
-17.17
-14.80
-13.03
-11.99
-11.65
-11.78
-12.09
-12.31
-12.35
-12.25
-12.16
-12.15
-12.07
-11.62
-10.43
-8.34
-5.48
-2.26
0.75
3.12
4.70
5.62
6.08
6.22
5.98
5.23
3.86
1.88
-0.49
-3.04
-5.60
-8.15
-10.76
-13.41
-15.94
-18.06
-19.36
-19.59
-18.82
-17.44
-16.08
-15.29
-15.40
-16.35
-17.71
-18.99
-19.81
-20.10
-20.07
-20.05
-20.22
-20.60
-21.04
-21.35
-21.46
-21.40
-21.25
-21.01
-20.47
-19.44
-17.73
-15.44
-12.93
-10.84
-9.81
-10.31
-12.48
-16.09
-20.65
-25.61
-30.64
-35.61
-40.56
-45.55
-50.54
-55.28
-59.46
-62.73
-65.02
-66.62
-68.25
-70.99
-75.80
-83.18
-92.78
-103.41
-113.34
-120.91
-125.03
-125.35
-122.16
-116.03
-107.44
-96.77
-84.48
-71.38
-58.63
-47.58
-39.34
-34.46
-32.82
-33.72
-36.25
-39.65
-43.48
-47.59
-51.95
-56.32
-60.14
-62.63
-63.02
-60.87
-56.28
-49.71
-41.76
-32.75
-22.60
-11.07
1.96
16.24
31.04
45.41
58.50
69.74
78.91
85.95
90.87
93.64
94.26
92.82
89.57
85.00
79.74
74.48
69.75
65.80
62.48
59.36
55.88
51.71
46.83
41.49
36.06
30.84
25.91
21.24
16.82
12.83
9.61
7.56
6.84
7.35
8.67
10.27
11.69
12.72
13.38
13.73
13.75
13.15
11.52
8.58
4.35
-0.65
-5.62
-9.67
-12.19
-13.02
-12.40
-10.69
-8.21
-5.06
-1.16
3.52
8.87
14.49
19.78
24.04
26.77
27.75
27.15
25.38
22.96
20.27
17.43
14.39
10.97
7.14
3.08
-0.87
-4.34
-7.10
-9.10
-10.42
-11.15
-11.31
-10.92
-10.15
-9.32
-8.89
-9.13
-9.92
-10.68
-10.57
-8.87
-5.36
-0.40
5.24
10.81
16.05
21.35
27.53
35.41
45.30
56.73
68.55
79.35
88.00
94.10
98.15
101.46
105.75
112.72
123.34
137.51
153.74
169.41
181.41
187.14
185.21
175.86
160.69
141.94
121.77
101.74
82.87
65.84
51.19
39.45
30.85
25.23
21.96
20.14
18.90
17.52
15.64
13.03
9.60
5.20
-0.30
-6.93
-14.58
-22.89
-31.40
-39.55
-46.95
-53.35
-58.73
-63.21
-66.98
-70.19
-72.94
-75.38
-77.57
-79.59
-81.35
-82.64
-83.20
-82.85
-81.61
-79.78
-77.86
-76.34
-75.55
-75.50
-75.83
-75.95
-75.27
-73.41
-70.32
-66.27
-61.66
-56.91
-52.25
-47.69
-43.18
-38.58
-33.95
-29.46
-25.40
-22.03
-19.44
-17.50
-15.88
-14.29
-12.55
-10.67
-8.83
-7.20
-5.76
-4.39
-2.83
-0.97
1.13
3.23
5.07
6.48
7.49
8.22
8.71
8.78
8.02
5.95
2.28
-2.81
-8.79
-14.81
-20.22
-24.74
-28.60
-32.34
-36.45
-41.01
-45.55
-49.30
-51.49
-51.80
-50.48
-48.25
-45.93
-44.11
-42.99
-42.37
-41.85
-41.03
-39.68
-37.72
-35.13
-31.89
-27.95
-23.35
-18.22
-12.91
-7.85
-3.43
0.14
2.95
5.31
7.58
10.02
12.60
15.09
17.18
18.61
19.40
19.74
19.83
19.83
19.68
19.26
18.46
17.34
16.15
15.14
14.41
13.87
13.22
12.13
10.47
8.26
5.74
3.20
0.84
-1.27
-3.16
-4.92
-6.60
-8.30
-10.00
-11.69
-13.33
-14.86
-16.26
-17.58
-18.90
-20.30
-21.83
-23.40
-24.96
-26.49
-28.11
-30.01
-32.37
-35.19
-38.25
-41.10
-43.32
-44.66
-45.16
-45.18
-45.32
-46.12
-48.06
-51.30
-55.78
-61.20
-67.28
-73.79
-80.75
-88.39
-97.08
-107.13
-118.61
-131.32
-144.88
-158.89
-173.08
-187.40
-201.94
-216.89
-232.50
-249.10
-267.16
-287.15
-309.14
-332.31
-354.49
-372.27
-381.74
-379.68
-364.77
-338.10
-302.96
-263.71
-224.52
-188.34
-156.47
-128.95
-104.93
-83.19
-62.30
-40.72
-17.24
8.27
34.21
57.18
72.70
76.77
67.53
46.37
17.81
-11.73
-35.88
-50.17
-52.93
-45.29
-30.09
-10.78
9.69
29.27
46.87
62.09
74.90
85.62
94.78
103.20
111.79
121.23
131.72
142.84
153.75
163.59
171.76
178.20
183.24
187.44
191.37
195.31
199.20
202.51
204.31
204.10
201.22
194.85
184.09
168.32
147.34
121.35
90.91
56.96
21.53
-13.16
-45.35
-74.11
-99.32
-121.47
-141.56
-160.82
-180.17
-197.96
-211.50
-217.84
-214.49
-199.88
-173.83
-137.95
-95.52
-50.43
-1.67
51.78
108.82
165.55
217.11
259.84
292.02
313.85
327.04
343.11
371.04
412.34
460.75
507.50
546.60
576.21
597.63
613.70
641.64
694.11
771.83
863.76
955.61
1037.43
1104.96
1157.12
1193.76
1233.14
1289.18
1362.69
1442.05
1513.32
1568.76
1607.18
1630.22
1521.52
1223.60
762.16
234.15
-258.49
-658.94
-956.35
-1164.52
-1304.18
-1388.72
-1420.06
-1397.26
-1329.31
-1237.72
-1146.88
-1073.80
-1025.11
-999.29
-992.94
-985.91
-960.98
-913.78
-852.83
-790.47
-734.41
-685.72
-641.51
-598.08
-544.43
-473.76
-388.84
-300.76
-222.30
-161.82
-121.28
-97.57
-84.85
-72.65
-52.92
-23.96
10.07
43.03
70.60
91.45
106.13
115.43
120.96
123.36
122.06
116.43
107.24
96.83
88.13
82.89
80.97
80.78
80.61
79.73
78.98
80.39
86.17
97.46
113.51
131.67
148.08
158.89
161.67
156.37
145.65
134.38
128.46
132.91
150.02
177.83
210.31
238.90
255.23
253.91
233.82
197.82
150.98
98.68
45.37
-5.70
-52.37
-93.49
-129.29
-161.70
-193.66
-227.58
-263.39
-297.42
-323.32
-334.56
-327.28
-301.95
-262.92
-216.37
-167.82
-120.45
-75.10
-31.30
11.17
51.31
86.79
114.59
132.40
139.53
137.33
128.86
117.94
108.14
102.00
100.82
104.66
112.62
123.01
133.51
141.63
145.23
143.10
135.26
122.55
105.90
85.70
61.50
32.53
-1.50
-39.69
-79.93
-119.41
-155.54
-186.63
-211.95
-231.64
-246.25
-256.27
-261.91
-262.76
-257.60
-244.57
-221.76
-188.20
-144.96
-95.65
-45.94
-2.35
29.65
47.12
50.34
42.42
28.06
12.03
-1.93
-11.65
-16.39
-16.29
-11.91
-4.03
6.41
18.16
29.85
40.27
48.73
55.31
60.72
65.80
70.98
75.91
79.45
80.11
76.57
68.17
55.15
38.60
20.02
0.99
-17.18
-33.75
-48.46
-61.59
-73.68
-85.42
-97.34
-109.65
-122.15
-134.33
-145.66
-155.90
-165.26
-174.42
-184.25
-195.41
-208.10
-221.75
-235.00
-245.73
-251.43
-249.64
-238.55
-217.41
-186.78
-148.37
-104.73
-58.96
-14.53
25.03
56.47
77.54
87.74
88.80
84.28
78.59
75.39
76.23
80.14
84.24
85.29
81.34
72.94
63.33
57.64
61.30
78.36
110.01
153.87
204.04
252.19
289.37
308.29
305.63
283.40
248.66
211.52
181.71
165.08
161.63
165.90
169.66
165.65
150.51
125.54
95.16
64.10
35.05
7.73
-20.09
-50.67
-84.57
-119.94
-153.11
-180.00
-197.56
-204.54
-201.61
-190.63
-173.74
-152.63
-128.34
-101.54
-73.12
-44.63
-18.31
3.40
18.77
27.34
30.04
28.66
24.87
19.61
12.83
4.07
-6.65
-17.95
-27.01
-30.27
-24.80
-9.64
13.46
40.36
65.91
85.68
97.34
101.14
99.28
94.68
89.75
85.60
82.04
78.08
72.49
64.40
53.47
40.06
25.18
10.47
-2.06
-10.54
-13.92
-12.54
-8.33
-4.29
-3.54
-8.21
-18.63
-33.22
-49.02
-62.70
-71.50
-73.87
-69.60
-59.57
-45.15
-27.77
-8.67
11.18
30.88
49.55
66.21
79.94
90.01
96.06
98.21
97.05
93.66
89.36
85.36
82.34
80.17
77.99
74.51
68.72
60.24
49.54
37.64
25.81
15.24
6.83
1.13
-1.73
-2.06
-0.60
1.60
3.43
3.95
2.62
-0.77
-6.02
-12.71
-20.07
-27.15
-33.07
-37.36
-40.39
-43.28
-47.44
-53.72
-61.63
-69.08
-72.98
-70.39
-59.73
-41.65
-18.82
5.12
27.01
45.44
61.18
76.67
94.68
116.97
143.30
171.43
197.83
218.75
231.07
232.76
222.93
201.71
170.15
130.06
83.80
33.95
-17.07
-67.07
-113.96
-155.29
-188.14
-209.47
-217.10
-210.52
-191.47
-163.46
-130.90
-98.02
-68.23
-43.94
-26.82
-18.14
-18.79
-29.14
-48.78
-76.11
-108.24
-141.11
-170.19
-191.64
-203.54
-206.52
-203.36
-197.54
-191.42
-185.10
-176.56
-163.03
-142.74
-115.96
-84.80
-51.97
-19.48
12.06
43.01
73.67
103.45
130.72
153.57
170.80
182.57
190.36
196.38
202.58
209.86
217.60
223.66
224.97
218.54
202.52
177.13
144.79
109.44
75.40
46.07
23.19
6.87
-3.83
-10.11
-12.95
-13.09
-11.28
-8.67
-6.72
-6.78
-9.46
-14.17
-19.22
-22.41
-22.26
-18.89
-14.38
-12.27
-16.20
-28.46
-49.03
-75.49
-103.79
-129.55
-149.23
-160.76
-163.80
-159.32
-149.20
-135.74
-121.27
-107.83
-96.91
-89.29
-85.01
-83.35
-83.02
-82.36
-79.74
-73.83
-64.02
-50.52
-34.40
-17.27
-0.79
13.68
25.36
34.01
40.20
44.93
49.36
54.45
60.81
68.83
78.49
89.39
100.76
112.05
122.84
132.70
140.74
145.60
146.13
141.49
131.68
117.07
98.81
77.90
54.94
30.75
7.52
-9.73
-15.64
-7.26
12.65
38.03
61.21
76.40
81.87
80.52
79.80
85.52
98.71
113.53
124.99
130.81
132.70
134.22
138.92
151.69
173.62
201.64
226.99
245.74
258.35
268.89
281.22
297.61
322.15
354.86
391.24
419.57
434.06
434.40
425.27
412.12
372.54
296.08
186.85
89.86
15.29
-38.27
-82.59
-120.81
-154.04
-183.00
-204.50
-217.27
-222.93
-229.67
-240.47
-254.88
-269.91
-283.66
-295.12
-300.34
-296.34
-282.03
-261.76
-237.18
-209.03
-177.70
-145.27
-114.48
-85.64
-58.79
-34.25
-15.00
-1.57
6.81
11.88
14.77
16.23
17.82
20.54
24.59
28.22
30.53
31.11
30.10
27.59
23.75
19.23
14.53
9.83
4.47
-1.96
-9.68
-18.62
-28.59
-39.27
-50.27
-61.26
-72.10
-82.80
-93.49
-104.16
-114.56
-124.10
-132.08
-137.97
-141.61
-143.36
-143.95
-144.21
-144.84
-146.30
-148.84
-152.45
-156.88
-161.48
-165.19
-166.68
-164.71
-158.60
-148.48
-135.36
-120.69
-105.95
-92.19
-79.93
-69.24
-59.93
-51.79
-44.61
-38.20
-32.38
-26.89
-21.53
-16.17
-10.78
-5.36
0.05
5.45
10.87
16.31
21.77
27.20
32.44
37.23
41.27
44.29
46.17
47.05
47.28
47.29
47.33
47.35
46.91
45.40
42.22
37.16
30.41
22.53
14.21
5.99
-1.86
-9.32
-16.55
-23.61
-30.36
-36.35
-40.93
-43.36
-42.97
-39.36
-32.51
-22.78
-10.82
2.49
16.24
29.52
41.57
51.78
59.75
65.42
68.96
70.76
70.97
69.76
67.26
63.69
59.30
54.34
49.08
43.69
38.17
32.04
24.80
16.27
6.62
-3.69
-14.22
-24.62
-34.73
-44.53
-54.62
-65.27
-76.08
-86.16
-94.58
-100.74
-104.43
-105.80
-105.24
-105.07
-107.04
-111.69
-118.58
-127.16
-137.43
-149.77
-164.35
-180.71
-201.37
-226.90
-255.24
-282.54
-305.55
-323.07
-335.75
-344.95
-351.87
-362.95
-381.72
-407.08
-434.24
-458.26
-476.64
-489.34
-497.46
-501.89
-510.18
-525.69
-545.46
-561.84
-567.68
-560.29
-541.61
-516.21
-441.83
-303.86
-118.60
75.26
242.57
367.51
450.62
499.77
524.02
531.69
521.94
495.63
458.01
417.63
382.76
357.34
341.19
331.77
326.64
318.25
302.72
281.79
261.74
249.58
249.80
263.83
286.74
312.95
332.83
339.49
331.29
312.18
289.07
268.64
255.39
250.85
254.15
260.31
263.75
259.92
246.13
221.63
187.65
147.51
106.02
68.37
37.02
11.64
-9.85
-29.29
-46.37
-57.96
-59.38
-47.01
-20.42
16.53
57.12
94.38
123.43
142.22
150.64
149.11
137.64
116.27
85.89
49.09
9.80
-28.18
-62.91
-95.23
-127.91
-163.64
-202.73
-242.26
-276.78
-300.59
-310.08
-305.22
-289.58
-268.82
-248.61
-232.67
-221.77
-213.90
-205.39
-192.50
-172.84
-146.10
-113.93
-79.09
-44.24
-10.93
20.83
52.05
83.74
115.84
146.63
173.07
191.85
200.63
199.00
188.36
171.19
149.80
125.47
98.39
68.22
34.98
-0.49
-36.74
-72.26
-105.69
-135.71
-160.32
-176.59
-181.05
-170.80
-144.62
-103.61
-51.03
8.52
70.04
128.79
180.77
222.95
253.61
272.42
280.36
279.14
270.65
256.25
236.78
212.85
185.32
155.59
125.47
96.90
71.59
50.88
35.67
26.32
22.55
23.24
26.64
30.60
33.38
34.09
33.05
31.52
30.95
32.26
35.28
38.87
41.61
42.52
41.63
39.87
38.43
37.88
37.77
36.54
32.27
23.49
9.88
-7.49
-26.51
-44.53
-59.08
-68.29
-71.27
-68.15
-60.13
-49.28
-38.24
-29.82
-26.45
-29.74
-40.04
-56.48
-77.03
-99.08
-120.01
-137.75
-151.16
-160.04
-164.88
-166.57
-166.09
-164.34
-162.11
-159.96
-157.93
-155.40
-151.00
-143.04
-130.09
-111.73
-88.85
-63.46
-37.97
-14.30
6.78
25.67
43.58
61.78
80.94
100.93
120.97
140.01
157.18
171.87
183.74
192.54
198.00
199.99
198.64
194.57
188.73
182.10
175.26
168.03
159.48
148.22
132.97
113.09
88.90
61.60
32.89
4.50
-22.30
-46.89
-69.24
-89.64
-108.25
-124.84
-138.57
-148.26
-152.86
-152.08
-146.88
-139.65
-133.72
-132.53
-138.57
-152.43
-172.43
-194.84
-214.76
-227.30
-228.86
-217.92
-195.26
-163.54
-126.33
-87.05
-48.18
-10.89
24.83
59.77
94.85
130.69
167.07
202.81
235.88
263.87
284.66
296.98
300.82
297.24
288.06
275.38
261.32
247.89
236.92
229.85
227.47
229.61
235.13
242.24
248.99
253.69
255.25
253.31
248.15
240.48
231.26
221.50
211.99
203.30
195.67
189.11
183.57
178.87
174.78
170.83
166.33
160.45
152.51
142.27
130.14
117.10
104.39
92.94
82.96
73.78
64.14
52.98
40.17
26.80
14.83
6.02
0.87
-1.90
-4.92
-10.94
-21.60
-36.79
-54.94
-74.01
-92.47
-109.84
-126.34
-142.28
-157.50
-171.27
-182.60
-190.76
-195.58
-197.38
-196.72
-194.10
-189.79
-183.80
-176.04
-166.54
-155.71
-144.41
-133.87
-125.49
-120.31
-118.72
-120.28
-123.86
-128.13
-131.97
-134.77
-136.41
-137.01
-136.69
-135.32
-132.67
-128.54
-122.95
-116.20
-108.75
-101.09
-93.58
-86.41
-79.64
-73.34
-67.57
-62.45
-58.02
-54.30
-51.19
-48.54
-46.18
-43.93
-41.66
-39.27
-36.71
-34.01
-31.23
-28.50
-25.96
-23.75
-21.93
-20.49
-19.33
-18.24
-16.95
-15.30
-13.27
-11.08
-9.10
-7.76
-7.31
-7.71
-8.71
-9.90
-11.02
-12.05
-13.17
-14.57
-16.31
-18.17
-19.78
-20.79
-21.12
-20.98
-20.78
-20.97
-21.76
-23.12
-24.78
-26.45
-27.92
-29.12
-30.03
-30.63
-30.78
-30.25
-28.89
-26.68
-23.85
-20.78
-17.90
-15.53
-13.74
-12.35
-11.02
-9.45
-7.53
-5.47
-3.69
-2.70
-2.83
-4.02
-5.91
-7.92
-9.66
-11.06
-12.44
-14.35
-17.25
-21.29
-26.23
-31.54
-36.65
-41.18
-45.04
-48.42
-51.64
-55.00
-58.55
-62.07
-65.16
-67.41
-68.59
-68.75
-68.14
-67.12
-65.95
-64.77
-63.53
-62.03
-59.75
-55.87
-49.39
-39.48
-25.93
-9.52
8.09
24.81
38.75
48.88
55.12
58.21
59.19
59.00
58.24
57.13
55.71
53.93
51.83
49.49
46.93
44.17
41.01
37.32
33.05
28.45
23.98
20.12
16.93
13.90
10.02
4.14
-4.41
-15.49
-28.16
-41.08
-53.11
-63.77
-73.26
-82.22
-91.15
-100.13
-108.71
-116.26
-122.39
-127.32
-131.84
-136.98
-143.49
-151.49
-160.34
-169.11
-177.12
-184.37
-191.67
-200.26
-211.27
-225.26
-242.16
-261.42
-282.14
-303.03
-322.12
-336.73
-344.16
-342.74
-332.86
-317.03
-298.78
-280.94
-264.33
-247.58
-228.43
-205.40
-178.91
-151.09
-124.49
-100.76
-80.04
-61.56
-44.62
-29.45
-16.99
-8.06
-2.41
1.76
7.43
17.88
35.68
61.65
94.36
130.13
163.76
189.94
204.96
208.19
202.61
193.86
188.32
190.70
202.14
219.82
238.04
250.37
251.77
239.83
214.85
178.94
135.04
86.28
36.00
-12.17
-54.46
-87.71
-110.50
-123.68
-130.01
-132.95
-135.11
-137.18
-137.85
-134.58
-124.69
-106.39
-79.34
-44.91
-5.97
33.55
69.61
99.19
121.16
136.59
148.10
158.54
169.93
182.78
196.14
208.20
216.76
219.64
214.99
201.87
180.98
155.25
129.65
109.94
100.62
102.97
114.34
129.08
140.90
145.29
140.90
129.18
112.79
93.87
73.16
50.49
25.92
0.50
-23.73
-44.88
-62.31
-77.07
-91.23
-106.70
-123.95
-141.70
-157.41
-168.43
-172.98
-170.70
-162.44
-149.74
-134.05
-116.35
-96.92
-75.66
-52.59
-28.27
-4.08
18.02
36.11
49.05
57.10
61.97
66.29
72.62
82.45
95.64
110.63
125.26
137.86
147.99
156.47
164.63
173.36
182.36
190.32
195.63
197.46
196.37
194.14
192.98
194.59
199.44
206.77
214.96
222.07
226.29
226.31
221.61
212.75
201.56
190.74
183.08
180.19
181.52
183.94
182.47
172.07
149.73
116.14
76.21
37.90
9.84
-1.38
6.84
32.61
70.39
112.72
151.80
180.88
194.94
191.31
169.95
133.64
87.34
36.95
-12.29
-57.11
-96.38
-130.25
-158.83
-181.13
-195.02
-198.36
-190.33
-172.42
-148.30
-122.84
-100.84
-85.82
-79.51
-81.94
-91.49
-105.02
-117.85
-124.55
-120.33
-103.02
-74.48
-40.54
-9.14
12.63
21.28
18.01
7.62
-4.05
-12.77
-17.32
-19.05
-20.17
-21.76
-22.77
-20.51
-12.20
3.14
23.58
44.23
58.48
59.64
42.50
4.34
-54.60
-130.77
-217.31
-304.59
-381.77
-439.22
-470.99
-476.37
-459.59
-427.89
-388.79
-348.06
-308.93
-272.75
-240.05
-211.23
-186.57
-165.78
-147.72
-130.73
-113.45
-95.52
-77.85
-62.11
-49.95
-42.01
-37.55
-34.56
-30.38
-22.46
-8.91
11.13
37.25
67.66
99.33
128.40
151.11
164.86
169.05
165.31
156.86
147.35
139.74
135.65
135.38
138.42
143.99
151.25
159.33
167.25
173.93
178.48
180.43
179.92
177.51
173.97
169.90
165.60
161.04
156.04
150.49
144.41
137.96
131.34
124.75
118.31
112.07
105.98
99.90
93.59
86.81
79.44
71.59
63.67
56.25
49.79
44.40
39.73
35.03
29.50
22.71
14.82
6.59
-0.92
-6.82
-10.81
-13.34
-15.42
-18.18
-22.35
-27.98
-34.39
-40.37
-44.60
-45.95
-43.73
-37.74
-28.31
-16.23
-2.64
11.10
23.73
34.34
42.56
48.56
52.83
55.92
58.13
59.52
60.06
59.91
59.62
60.16
62.60
67.73
75.78
86.30
98.33
110.79
122.77
133.67
143.19
151.11
157.21
161.30
163.37
163.81
163.40
163.17
163.93
165.99
168.85
171.28
171.74
168.86
162.00
151.47
138.35
124.10
110.11
97.40
86.79
79.10
75.28
76.26
82.38
92.92
106.06
119.35
130.74
139.33
145.62
150.99
156.79
163.61
171.12
178.26
183.75
186.28
184.46
176.65
161.09
136.36
102.07
59.42
11.25
-38.61
-86.45
-129.65
-167.37
-200.54
-231.33
-262.34
-295.99
-334.02
-376.96
-423.42
-469.61
-509.44
-535.91
-543.61
-531.37
-503.58
-469.16
-438.26
-418.12
-410.40
-411.07
-413.05
-409.82
-398.18
-378.67
-354.06
-326.99
-298.41
-267.55
-233.10
-194.55
-152.91
-110.55
-70.04
-33.08
0.19
30.93
60.75
90.48
119.37
144.93
163.68
172.54
170.16
157.65
138.35
116.88
97.66
83.89
77.21
77.63
83.84
93.48
103.52
110.69
112.21
106.84
95.45
81.01
67.47
58.15
54.42
55.15
57.38
57.67
53.85
45.80
35.78
26.91
21.69
20.95
23.56
27.36
30.07
30.76
29.79
29.46
31.62
36.72
43.60
50.41
55.86
59.35
61.96
65.04
71.88
84.61
103.67
127.81
154.89
182.91
209.28
233.19
253.76
273.58
294.51
316.79
338.97
358.78
374.61
384.15
387.98
386.53
384.89
387.52
397.36
415.27
440.07
469.75
499.95
529.48
525.63
468.39
355.02
203.01
39.90
-111.26
-224.45
-304.98
-360.24
-396.06
-412.29
-409.78
-394.09
-371.70
-349.08
-330.14
-317.52
-308.53
-300.08
-286.77
-265.93
-238.53
-208.92
-183.65
-168.71
-168.94
-182.85
-205.22
-226.82
-239.77
-240.66
-231.60
-218.86
-209.04
-206.88
-211.42
-218.61
-222.83
-220.63
-211.86
-198.93
-185.06
-172.30
-161.60
-152.21
-143.39
-134.51
-125.19
-114.80
-102.02
-85.23
-62.96
-35.50
-4.80
25.74
52.38
72.40
85.00
91.35
94.00
96.09
99.86
106.44
115.67
126.26
135.85
141.57
140.87
132.42
117.93
101.49
88.36
82.21
83.70
90.78
100.34
109.77
116.51
121.36
124.79
126.62
125.82
121.12
111.66
97.48
79.28
57.77
36.33
16.15
-2.93
-21.95
-42.23
-64.77
-89.94
-117.42
-146.25
-174.73
-201.10
-223.06
-238.51
-246.29
-246.68
-241.45
-233.16
-224.23
-216.31
-209.84
-203.96
-197.53
-190.09
-182.19
-175.00
-169.38
-165.17
-161.51
-156.54
-148.19
-135.53
-119.64
-103.23
-89.42
-80.34
-76.43
-77.01
-79.43
-79.80
-74.35
-60.67
-38.25
-8.23
27.07
69.43
114.58
154.87
182.96
195.18
192.01
176.74
154.25
130.08
109.15
93.78
84.54
80.36
79.22
79.05
78.38
76.36
72.59
66.88
58.52
47.62
35.12
22.26
9.95
-1.50
-12.20
-22.19
-31.04
-38.47
-43.44
-44.95
-42.63
-37.10
-29.66
-21.68
-14.10
-7.29
-1.51
3.28
7.18
10.33
12.87
15.02
17.06
19.21
21.55
23.93
26.21
28.34
30.36
32.33
34.19
35.69
36.47
36.22
34.83
32.44
29.36
25.87
22.13
18.15
13.97
9.75
5.89
2.87
1.03
0.42
0.75
1.60
2.57
3.41
3.90
3.74
2.58
0.28
-2.72
-5.27
-5.81
-3.17
2.72
10.41
17.40
21.05
19.64
12.94
2.11
-10.92
-24.14
-35.98
-45.38
-51.70
-54.65
-54.26
-50.95
-45.50
-38.84
-31.71
-24.51
-17.31
-9.98
-2.51
4.89
11.79
17.78
22.57
26.23
29.03
31.37
33.53
35.57
37.32
38.42
38.47
37.18
34.46
30.42
25.34
19.61
13.63
7.83
2.59
-1.73
-4.90
-6.88
-7.82
-8.07
-8.03
-8.00
-8.15
-8.51
-9.08
-9.87
-10.88
-12.20
-13.85
-15.78
-17.75
-19.40
-20.23
-19.70
-17.32
-12.81
-6.31
1.59
10.03
18.11
25.21
31.12
36.00
40.15
43.91
47.38
50.58
53.73
57.42
62.46
69.42
78.24
87.92
97.11
104.12
107.59
107.08
103.31
97.90
92.59
88.82
87.26
88.24
91.02
94.28
96.76
97.79
97.33
95.16
91.16
85.05
77.68
69.73
62.13
55.92
52.10
51.54
54.34
61.35
74.34
96.10
126.93
163.05
196.65
218.62
222.51
206.93
177.64
134.82
84.46
34.48
-8.58
-42.59
-69.39
-87.82
-101.43
-116.00
-132.72
-150.29
-167.63
-183.82
-198.08
-209.14
-215.34
-216.28
-211.93
-202.81
-189.67
-175.19
-161.48
-151.13
-146.55
-149.04
-158.82
-173.39
-187.62
-194.70
-188.92
-167.44
-131.57
-85.94
-36.60
10.29
50.39
79.80
95.63
96.54
83.62
60.18
31.51
4.00
-16.89
-27.85
-28.45
-20.55
-7.37
7.92
22.47
34.16
42.08
46.30
47.80
48.07
48.62
50.37
53.70
57.93
59.68
56.01
45.75
30.49
13.81
0.34
-9.39
-16.80
-23.96
-32.51
-42.56
-52.65
-60.49
-63.99
-62.09
-55.35
-45.23
-33.91
-23.72
-16.29
-12.42
-12.03
-14.41
-18.52
-23.46
-28.34
-32.67
-36.33
-39.03
-40.24
-39.23
-35.47
-29.13
-21.28
-13.33
-6.61
-1.72
1.77
5.06
9.33
15.09
21.93
28.68
34.24
38.02
40.25
41.78
43.60
46.34
49.92
53.64
56.64
58.34
58.64
57.93
56.89
56.21
56.19
56.77
57.57
58.15
58.26
57.80
56.90
55.88
55.17
55.07
55.60
56.29
56.22
54.27
49.15
40.01
26.94
11.09
-5.51
-20.66
-32.79
-41.63
-47.36
-50.95
-53.91
-57.47
-61.67
-65.17
-65.96
-62.60
-55.05
-44.39
-32.58
-21.55
-12.38
-5.24
0.33
4.78
8.31
10.19
10.30
8.39
4.07
-3.19
-14.21
-29.81
-49.95
-72.77
-94.35
-109.05
-111.85
-100.67
-77.73
-49.09
-22.40
-3.94
4.94
5.45
2.01
0.29
5.00
18.38
39.38
63.80
85.02
95.36
87.74
58.53
9.37
-52.41
-115.02
-165.17
-191.51
-187.60
-153.50
-96.00
-26.79
40.35
92.84
122.28
126.15
107.79
74.52
34.90
-3.95
-37.49
-63.28
-80.38
-88.64
-88.68
-82.01
-70.99
-58.37
-46.62
-37.14
-29.22
-20.81
-9.52
6.13
26.19
49.51
74.21
98.20
116.82
125.44
121.77
107.80
88.41
68.20
49.43
32.16
16.54
1.31
-12.79
-23.74
-29.70
-30.55
-28.25
-26.03
-26.97
-32.79
-43.30
-55.91
-67.14
-74.23
-76.16
-73.71
-68.54
-62.14
-55.23
-47.82
-39.17
-28.62
-16.19
-2.70
10.57
22.55
32.86
41.77
49.76
57.18
63.67
68.07
68.94
65.28
57.23
46.10
33.89
22.55
13.53
7.48
4.35
3.54
4.19
5.24
5.68
4.76
2.28
-1.19
-4.54
-6.56
-6.37
-3.88
0.23
4.80
8.49
10.24
9.42
5.96
0.36
-6.42
-13.14
-18.65
-22.19
-23.63
-23.41
-22.37
-21.35
-20.98
-21.57
-23.10
-25.27
-27.62
-29.58
-30.54
-29.98
-27.65
-23.58
-18.18
-12.11
-6.04
-0.54
4.14
8.06
11.47
14.67
17.92
21.33
24.97
29.00
33.70
39.30
45.72
52.24
57.42
59.50
57.02
49.60
38.28
25.18
12.70
2.53
-4.96
-10.64
-16.00
-22.20
-29.53
-37.41
-44.79
-50.71
-54.60
-56.23
-55.37
-51.73
-45.01
-35.25
-23.27
-10.64
0.65
8.79
12.77
12.71
9.66
5.15
0.55
-3.27
-6.05
-7.92
-9.07
-9.57
-9.30
-8.16
-6.17
-3.57
-0.71
2.15
4.91
7.65
10.48
13.30
15.75
17.27
17.37
15.85
12.96
9.26
5.44
2.07
-0.59
-2.57
-4.11
-5.52
-7.03
-8.73
-10.53
-12.22
-13.60
-14.44
-14.64
-14.11
-12.78
-10.57
-7.35
-3.11
1.98
7.51
12.90
17.59
21.19
23.63
25.07
25.86
26.38
26.97
27.92
29.43
31.63
34.46
37.64
40.71
43.16
44.52
44.53
43.17
40.63
37.22
33.26
28.98
24.51
19.88
15.00
9.82
4.33
-1.37
-7.03
-12.41
-17.29
-21.60
-25.39
-28.80
-31.91
-34.72
-37.11
-38.85
-39.67
-39.27
-37.36
-33.75
-28.49
-21.94
-14.76
-7.80
-1.81
2.65
5.37
6.41
5.98
4.30
1.63
-1.74
-5.47
-9.25
-12.92
-16.43
-19.87
-23.23
-26.25
-28.37
-28.93
-27.41
-23.69
-18.12
-11.38
-4.19
2.84
9.35
15.13
20.07
24.11
27.29
29.78
31.81
33.59
35.16
36.40
37.09
37.03
36.17
34.60
32.49
30.05
27.49
25.04
22.89
21.16
19.84
18.75
17.67
16.44
15.02
13.55
12.19
11.04
10.06
9.16
8.19
7.04
5.65
3.97
1.99
-0.26
-2.73
-5.30
-7.90
-10.44
-12.91
-15.32
-17.61
-19.68
-21.26
-22.03
-21.61
-19.71
-16.21
-11.32
-5.51
0.59
6.36
11.36
15.41
18.48
20.65
21.95
22.40
22.03
21.03
19.71
18.49
17.66
17.35
17.38
17.48
17.36
16.86
16.00
14.92
13.74
12.50
11.17
9.67
8.00
6.29
4.73
3.49
2.62
2.02
1.45
0.65
-0.54
-2.14
-4.02
-6.00
-7.89
-9.62
-11.21
-12.76
-14.35
-16.06
-17.96
-20.10
-22.43
-24.78
-26.77
-27.86
-27.55
-25.52
-21.84
-16.95
-11.54
-6.30
-1.70
2.08
5.11
7.54
9.46
10.89
11.81
12.28
12.43
12.47
12.65
13.15
14.02
15.21
16.58
17.98
19.30
20.41
21.21
21.51
21.10
19.79
17.48
14.18
10.03
5.23
-0.01
-5.53
-11.18
-16.82
-22.28
-27.38
-31.95
-35.85
-39.02
-41.43
-43.06
-43.98
-44.28
-44.20
-43.99
-43.95
-44.23
-44.74
-45.10
-44.71
-42.96
-39.42
-34.04
-27.18
-19.49
-11.72
-4.50
1.80
7.05
11.34
14.92
18.17
21.61
25.76
31.00
37.33
44.29
50.98
56.36
59.57
60.23
58.56
55.29
51.35
47.56
44.47
42.22
40.59
39.11
37.27
34.66
31.09
26.64
21.62
16.41
11.36
6.62
2.18
-2.09
-6.39
-10.82
-15.35
-19.85
-24.08
-27.79
-30.85
-33.28
-35.32
-37.29
-39.56
-42.27
-45.19
-47.73
-49.08
-48.53
-45.85
-41.34
-35.84
-30.30
-25.45
-21.47
-18.08
-14.68
-10.68
-5.71
0.36
7.49
15.61
24.60
34.28
44.25
53.94
62.68
69.98
75.64
79.84
82.87
84.85
85.45
84.00
79.83
72.86
63.89
54.59
46.92
42.42
41.59
43.87
48.00
52.70
57.03
60.34
61.93
60.65
55.00
43.61
26.04
3.37
-21.94
-46.65
-67.83
-83.52
-93.02
-96.62
-95.09
-89.38
-80.55
-69.91
-59.09
-49.87
-43.83
-41.96
-44.48
-50.84
-59.93
-70.27
-80.14
-87.69
-91.17
-89.26
-81.43
-68.24
-51.28
-32.79
-15.04
0.20
12.01
20.25
25.34
27.86
28.36
27.39
25.51
23.40
21.78
21.22
21.95
23.78
26.25
28.81
31.02
32.58
33.30
33.07
31.79
29.46
26.21
22.29
17.93
13.32
8.54
3.65
-1.22
-5.75
-9.56
-12.36
-14.09
-14.91
-15.09
-14.80
-13.93
-12.25
-9.54
-5.78
-1.24
3.65
8.44
12.84
16.68
19.90
22.38
23.93
24.39
23.68
21.88
19.22
15.97
12.36
8.53
4.59
0.68
-3.01
-6.18
-8.49
-9.59
-9.19
-7.14
-3.52
1.38
7.01
12.71
17.89
22.11
25.27
27.55
29.32
30.94
32.55
34.03
35.12
35.62
35.60
35.57
36.38
38.95
44.01
51.71
61.59
72.65
83.49
92.61
98.70
100.95
99.33
94.59
87.90
80.56
73.49
66.92
60.37
52.98
43.95
32.83
19.79
5.38
-9.47
-23.52
-35.64
-45.08
-51.82
-56.47
-60.06
-62.57
-63.22
-60.99
-54.29
-41.90
-23.84
-1.70
21.82
43.73
61.69
74.44
82.01
85.54
86.64
86.69
86.16
84.84
82.09
77.31
70.17
60.79
49.73
37.57
24.60
10.13
-6.31
-24.49
-43.27
-61.16
-76.95
-89.98
-100.27
-108.34
-116.20
-125.06
-134.69
-143.69
-150.58
-154.61
-155.96
-155.36
-153.77
-154.11
-157.98
-165.11
-173.96
-183.33
-193.42
-205.54
-221.25
-241.46
-268.67
-302.58
-339.35
-372.42
-394.86
-401.45
-389.80
-360.59
-299.75
-207.08
-96.02
12.22
100.62
163.05
202.64
226.28
240.61
249.86
253.30
249.94
240.09
225.78
208.20
187.24
162.19
133.05
101.13
67.21
33.61
3.54
-20.12
-36.16
-44.89
-47.32
-41.85
-27.91
-7.18
17.66
43.41
67.26
87.44
103.81
117.33
129.02
138.26
142.28
137.96
123.65
100.40
71.82
42.78
17.58
-1.30
-13.90
-21.99
-27.58
-31.88
-34.94
-36.11
-34.67
-30.62
-24.83
-18.83
-13.94
-10.65
-8.56
-6.68
-4.01
0.12
5.46
10.93
15.12
17.14
17.24
16.74
17.50
21.05
28.31
38.87
51.00
62.30
70.78
75.46
76.60
75.44
73.65
73.49
76.85
84.43
95.37
107.39
117.25
121.67
118.25
103.91
79.59
50.76
25.24
9.03
3.85
7.59
16.86
28.91
41.95
55.62
69.61
82.82
92.97
98.68
99.65
96.88
92.28
87.43
83.77
81.64
79.99
76.81
70.10
58.40
40.93
20.93
0.53
-18.60
-35.85
-51.85
-68.05
-85.96
-106.68
-130.46
-156.73
-184.42
-211.32
-234.67
-252.00
-261.91
-264.37
-260.64
-252.62
-242.26
-230.78
-218.16
-204.05
-188.79
-173.79
-160.97
-151.81
-146.38
-143.94
-142.16
-137.71
-127.28
-108.24
-78.96
-38.88
10.74
66.18
119.73
162.82
188.15
191.26
171.31
130.64
73.82
6.26
-66.22
-138.77
-204.31
-254.08
-280.37
-279.77
-254.87
-213.19
-164.45
-106.28
-43.10
17.56
68.55
106.07
129.41
139.53
138.90
131.23
121.16
111.40
104.51
102.38
105.81
114.54
127.28
141.91
155.27
164.28
166.17
161.77
155.02
150.32
149.45
148.17
140.56
121.32
89.37
48.72
8.20
-22.71
-38.62
-40.46
-34.12
-26.29
-21.34
-19.90
-20.52
-21.25
-21.21
-21.16
-22.78
-27.23
-33.80
-40.48
-44.69
-44.78
-40.52
-33.05
-24.40
-16.62
-10.98
-7.55
-5.65
-4.39
-3.12
-1.80
-0.81
-0.86
-2.67
-6.52
-12.08
-18.58
-25.12
-30.96
-35.78
-39.20
-41.24
-42.13
-42.05
-40.78
-37.85
-32.95
-26.16
-18.22
-9.39
-0.39
7.83
14.57
19.82
24.22
28.35
32.17
34.76
36.04
35.56
32.89
28.60
24.89
25.40
34.00
53.72
85.88
131.31
187.27
247.00
300.92
339.39
355.74
348.01
319.74
267.52
197.24
121.48
53.99
2.71
-32.30
-55.07
-69.85
-79.07
-83.65
-82.50
-75.79
-66.12
-56.46
-49.77
-48.44
-54.43
-68.08
-87.16
-105.37
-115.52
-112.01
-92.37
-57.62
-8.44
49.86
109.74
162.84
202.10
221.91
219.07
194.10
151.61
99.45
45.68
-3.34
-44.72
-78.57
-107.32
-133.99
-161.10
-190.23
-222.33
-258.52
-299.22
-343.46
-388.10
-428.08
-457.43
-471.08
-466.54
-444.62
-409.19
-365.30
-317.49
-268.82
-221.02
-175.21
-132.77
-95.28
-63.86
-38.51
-17.50
1.91
22.18
44.14
66.48
86.20
99.99
105.66
102.94
93.50
80.26
66.40
54.49
46.12
41.74
41.04
43.34
48.05
55.02
64.49
76.67
91.14
106.46
120.25
130.06
134.39
133.44
129.04
123.80
119.95
118.55
119.28
120.95
122.19
122.00
120.02
116.40
111.56
105.89
99.62
92.74
85.15
76.79
67.79
58.36
48.68
38.72
28.12
16.36
3.13
-11.38
-26.35
-40.53
-52.87
-62.88
-70.87
-77.68
-84.04
-90.21
-95.73
-99.72
-101.30
-100.02
-95.95
-89.52
-81.29
-71.64
-60.79
-48.91
-36.23
-23.08
-9.81
3.35
16.33
29.12
41.72
54.02
65.91
77.35
88.35
98.91
108.87
117.87
125.31
130.50
132.72
131.18
125.15
113.95
97.45
76.29
52.20
27.60
4.99
-13.91
-28.60
-39.70
-48.41
-55.79
-62.39
-68.28
-73.36
-77.72
-81.60
-85.19
-88.30
-90.18
-89.73
-85.82
-77.80
-65.71
-50.28
-32.73
-14.45
3.22
19.16
32.51
42.74
49.78
54.04
56.31
57.57
58.47
59.10
58.90
56.97
52.61
45.71
36.90
27.25
17.92
9.66
2.77
-2.79
-7.21
-10.63
-13.14
-14.84
-15.96
-16.82
-17.66
-18.50
-19.14
-19.18
-18.18
-15.91
-12.44
-8.18
-3.85
-0.21
2.10
2.70
1.56
-1.09
-4.91
-9.57
-14.76
-20.21
-25.59
-30.44
-34.19
-36.29
-36.26
-33.88
-29.28
-22.91
-15.49
-7.73
-0.24
6.70
13.05
18.94
24.43
29.46
33.84
37.36
39.91
41.52
42.37
42.67
42.66
42.53
42.46
42.63
43.16
44.04
45.05
45.85
46.01
45.20
43.34
40.61
37.38
34.05
30.89
27.95
25.10
22.18
19.09
15.88
12.67
9.52
6.40
3.11
-0.54
-4.68
-9.33
-14.41
-19.72
-24.95
-29.58
-32.91
-34.12
-32.53
-27.87
-20.50
-11.33
-1.54
7.72
15.70
22.13
27.08
30.78
33.44
35.14
35.91
35.82
35.06
33.89
32.55
31.19
29.81
28.26
26.41
24.20
21.74
19.25
16.98
15.11
13.59
12.20
10.61
8.58
6.07
3.25
0.45
-2.04
-4.09
-5.77
-7.31
-8.93
-10.68
-12.46
-14.03
-15.15
-15.75
-15.92
-15.92
-16.08
-16.71
-18.00
-20.01
-22.60
-25.40
-27.85
-29.25
-28.93
-26.52
-22.00
-15.85
-8.85
-1.88
4.36
9.47
13.41
16.38
18.59
20.17
21.18
21.63
21.59
21.26
20.85
20.53
20.35
20.18
19.83
19.12
17.99
16.50
14.83
13.15
11.60
10.26
9.10
8.03
6.93
5.67
4.21
2.62
1.09
-0.21
-1.15
-1.83
-2.44
-3.23
-4.36
-5.85
-7.57
-9.34
-10.98
-12.45
-13.83
-15.26
-16.94
-19.03
-21.52
-24.18
-26.51
-27.87
-27.70
-25.67
-21.85
-16.66
-10.75
-4.75
0.85
5.80
10.01
13.51
16.34
18.53
20.12
21.10
21.53
21.46
21.00
20.24
19.25
18.11
16.87
15.58
14.33
13.22
12.35
11.73
11.30
10.91
10.39
9.57
8.36
6.75
4.84
2.77
0.73
-1.13
-2.72
-4.03
-5.14
-6.19
-7.30
-8.50
-9.83
-11.25
-12.74
-14.29
-15.90
-17.57
-19.32
-21.23
-23.34
-25.61
-27.83
-29.57
-30.25
-29.32
-26.51
-21.99
-16.35
-10.41
-4.91
-0.25
3.55
6.70
9.44
11.87
13.91
15.40
16.27
16.61
16.64
16.54
16.39
16.11
15.52
14.55
13.26
11.86
10.59
9.57
8.76
7.98
7.02
5.79
4.33
2.82
1.43
0.26
-0.72
-1.64
-2.60
-3.62
-4.58
-5.33
-5.69
-5.63
-5.25
-4.72
-4.27
-4.05
-4.17
-4.73
-5.81
-7.52
-9.88
-12.73
-15.64
-17.99
-19.07
-18.37
-15.77
-11.62
-6.61
-1.58
2.83
6.29
8.83
10.69
12.08
13.11
13.72
13.88
13.59
13.03
12.43
11.95
11.61
11.28
10.77
9.99
9.01
8.05
7.33
7.00
6.94
6.93
6.63
5.83
4.50
2.84
1.15
-0.25
-1.20
-1.74
-2.02
-2.26
-2.67
-3.34
-4.28
-5.41
-6.60
-7.75
-8.80
-9.74
-10.61
-11.48
-12.42
-13.47
-14.67
-15.98
-17.35
-18.61
-19.45
-19.47
-18.30
