1.589141032000000000e+09
-2.999999999999999889e-02
5.059999999999999609e+00
1.791000000000000014e+01
7.934000000000000341e+01
2.282500000000000000e+02
-4.865000000000000000e+02
-5.900000000000000355e+00
1.561500000000000057e+02
4.678000000000000114e+01
4.040000000000000036e+00
-3.300000000000000155e-01
-1.340000000000000080e+00
-7.730000000000000426e+00
-2.585999999999999943e+01
3.510000000000000142e+01
1.366000000000000014e+01
3.259999999999999787e+00
6.200000000000000178e+00
-8.539999999999999147e+00
-1.043999999999999950e+01
2.557999999999999829e+01
-1.679999999999999938e+00
-1.358000000000000114e+02
-4.245000000000000284e+01
7.365000000000000568e+01
3.026999999999999957e+01
-9.960000000000000853e+00
1.812999999999999901e+01
3.761999999999999744e+01
7.019999999999999574e+00
-3.978999999999999915e+01
2.051000000000000156e+01
1.103999999999999915e+01
-2.112999999999999901e+01
1.501999999999999957e+01
2.673999999999999844e+01
-1.149000000000000021e+01
-3.200999999999999801e+01
2.008999999999999986e+01
8.500000000000000000e+00
-1.696000000000000085e+01
1.447000000000000064e+01
1.056000000000000050e+01
-2.790000000000000036e+00
-9.740000000000000213e+00
3.203000000000000114e+01
2.705999999999999872e+01
2.360999999999999943e+01
8.000000000000000167e-02
-8.006999999999999318e+01
-3.654999999999999716e+01
-2.223000000000000043e+01
1.680000000000000071e+01
1.228999999999999915e+01
-9.400000000000000355e+00
-7.769999999999999574e+00
8.199999999999999289e+00
3.049999999999999822e+00
-1.223000000000000043e+01
7.000000000000000000e+00
8.419999999999999929e+00
-3.055000000000000071e+01
-4.950000000000000178e+00
9.490000000000000213e+00
-3.990000000000000213e+00
-2.171999999999999886e+01
1.524000000000000021e+01
1.343999999999999950e+01
2.296000000000000085e+01
2.939999999999999947e+00
-4.080000000000000071e+00
-1.256000000000000050e+01
-1.723999999999999844e+01
1.639999999999999858e+01
1.959999999999999964e+00
-1.033999999999999986e+01
-3.250000000000000000e+00
1.762000000000000099e+01
1.506000000000000050e+01
-6.490999999999999659e+01
-3.589999999999999858e+00
-7.009999999999999787e+00
-8.029999999999999361e+00
1.808999999999999986e+01
4.646999999999999886e+01
1.194999999999999929e+01
2.112000000000000099e+01
-5.892000000000000171e+01
-1.294999999999999929e+01
4.278999999999999915e+01
-4.520000000000000284e+01
-2.935999999999999943e+01
-5.660000000000000142e+00
1.932999999999999829e+01
4.125999999999999801e+01
3.001999999999999957e+01
-3.008999999999999986e+01
-2.503000000000000114e+01
-2.198999999999999844e+01
5.538000000000000256e+01
-4.480000000000000426e+00
2.649999999999999911e+00
5.219999999999999751e+00
-1.600000000000000000e+01
-1.416000000000000014e+01
-3.531000000000000227e+01
-2.073999999999999844e+01
-1.044999999999999929e+01
7.809999999999999609e+00
1.951999999999999957e+01
8.259999999999999787e+00
6.500000000000000222e-01
7.910000000000000142e+00
8.400000000000000355e+00
-1.899999999999999911e+00
-6.780000000000000249e+00
4.496000000000000085e+01
7.090999999999999659e+01
-2.728999999999999915e+01
-8.051000000000000512e+01
-1.625000000000000000e+01
1.335999999999999943e+01
-1.907999999999999829e+01
-1.770000000000000018e+00
-2.609999999999999876e+00
1.773000000000000043e+01
1.230000000000000071e+01
-6.769999999999999574e+00
-5.929999999999999716e+00
-7.669999999999999929e+00
1.169999999999999929e+01
-9.250000000000000000e+00
-9.009999999999999787e+00
-3.285000000000000142e+01
-3.922999999999999687e+01
8.956999999999999318e+01
1.662000000000000099e+01
-1.310000000000000053e+00
-7.000000000000000666e-02
-2.339999999999999858e+00
-1.662000000000000099e+01
8.869999999999999218e+00
6.809999999999999609e+00
7.800000000000000266e-01
-9.039999999999999147e+00
7.519999999999999574e+00
1.453999999999999915e+01
4.610000000000000320e+00
5.309999999999999609e+00
-3.720000000000000195e+00
5.209999999999999964e+00
-3.202000000000000313e+01
1.801999999999999957e+01
-3.430000000000000160e+00
-3.680000000000000160e+00
-2.126000000000000156e+01
-6.450000000000000178e+00
5.650000000000000355e+00
1.473000000000000043e+01
7.164000000000000057e+01
2.335999999999999943e+01
-9.459000000000000341e+01
-4.890999999999999659e+01
2.535999999999999943e+01
6.830000000000000071e+00
2.370000000000000107e+00
-2.680000000000000160e+00
3.489000000000000057e+01
2.757999999999999829e+01
4.863000000000000256e+01
-3.357000000000000028e+01
2.626000000000000156e+01
-8.456000000000000227e+01
2.461599999999999966e+02
-1.397899999999999920e+02
-6.827599999999999909e+02
3.088100000000000023e+02
1.211599999999999966e+02
-4.730000000000000426e+00
3.621000000000000085e+01
3.371999999999999886e+01
-6.926000000000000512e+01
-6.506999999999999318e+01
-8.218999999999999773e+01
-1.516999999999999993e+01
-4.684000000000000341e+01
6.609999999999999432e+01
4.202300000000000182e+02
-1.457899999999999920e+02
-3.635999999999999943e+01
1.530000000000000027e+00
6.839999999999999858e+00
-1.491999999999999993e+01
-3.158000000000000114e+02
9.882999999999999829e+01
2.553999999999999915e+01
1.181599999999999966e+02
7.631000000000000227e+01
1.408400000000000034e+02
1.818400000000000034e+02
-1.813400000000000034e+02
-1.521800000000000068e+02
-9.984999999999999432e+01
2.764200000000000159e+02
-1.790200000000000102e+02
-4.167999999999999972e+01
2.212599999999999909e+02
-1.399499999999999886e+02
-1.114699999999999989e+02
1.347299999999999898e+02
3.452000000000000313e+01
1.038199999999999932e+02
-1.465800000000000125e+02
-6.626999999999999602e+01
-4.536999999999999744e+01
-7.615000000000000568e+01
1.271000000000000085e+01
7.575000000000000000e+01
5.530000000000000249e+00
2.553000000000000114e+01
2.367000000000000171e+01
3.109999999999999876e+00
3.214999999999999858e+01
1.384999999999999964e+01
-4.870000000000000107e+00
6.899999999999999467e-01
1.558000000000000007e+01
-9.080000000000000071e+00
-2.723000000000000043e+01
1.474000000000000021e+01
9.900000000000000355e+00
-1.013000000000000078e+01
-8.529999999999999361e+00
1.667000000000000171e+01
8.470000000000000639e+00
-3.235000000000000142e+01
2.399999999999999911e+00
8.390000000000000568e+00
3.950000000000000178e+00
1.009999999999999964e+01
2.414000000000000057e+01
1.560000000000000053e+00
-1.400999999999999979e+01
1.685999999999999943e+01
1.165000000000000036e+01
-1.324000000000000021e+01
-2.394000000000000128e+01
6.730000000000000426e+00
1.909999999999999920e+00
-4.969999999999999751e+00
-1.250000000000000000e+00
4.160000000000000142e+00
1.097000000000000064e+01
3.062000000000000099e+01
-5.057000000000000028e+01
-7.621999999999999886e+01
-8.701000000000000512e+01
1.282299999999999898e+02
1.170000000000000000e+02
9.990000000000000213e+00
-9.750000000000000000e+00
-1.334999999999999964e+01
-2.814000000000000057e+01
1.300800000000000125e+02
-2.673299999999999841e+02
2.658999999999999986e+01
1.158000000000000007e+01
1.892100000000000080e+02
-1.479300000000000068e+02
-3.707500000000000000e+02
3.262400000000000091e+02
1.342299999999999898e+02
2.663399999999999750e+02
8.184999999999999432e+01
-2.375000000000000000e+01
-2.547899999999999920e+02
-5.717000000000000171e+01
-1.142199999999999989e+02
-1.526599999999999966e+02
1.095400000000000063e+02
1.410699999999999932e+02
-6.901000000000000512e+01
-1.349000000000000021e+01
6.490000000000000213e+00
-1.821000000000000085e+01
1.035799999999999983e+02
1.242600000000000051e+02
-1.780200000000000102e+02
2.485699999999999932e+02
2.682400000000000091e+02
7.673999999999999488e+01
-3.274800000000000182e+02
-2.338499999999999943e+02
-6.578000000000000114e+01
2.123300000000000125e+02
-3.943999999999999773e+01
-1.504000000000000057e+02
4.078000000000000114e+01
8.554999999999999716e+01
-2.327599999999999909e+02
-7.259000000000000341e+01
-2.107999999999999829e+01
1.274099999999999966e+02
6.612000000000000455e+01
-4.374000000000000199e+01
5.975000000000000000e+01
2.714999999999999858e+01
-4.800999999999999801e+01
-2.407999999999999829e+01
2.773000000000000043e+01
4.160000000000000142e+00
-2.901000000000000156e+01
3.431000000000000227e+01
1.206000000000000050e+01
2.099999999999999922e-01
3.956000000000000227e+01
5.657999999999999829e+01
-5.981000000000000227e+01
-5.135000000000000142e+01
9.590999999999999659e+01
1.653999999999999915e+01
-5.703000000000000114e+01
5.429999999999999716e+00
-5.047999999999999687e+01
-5.896999999999999886e+01
2.085999999999999943e+01
2.742000000000000171e+01
1.002999999999999936e+01
-6.019999999999999574e+00
1.066999999999999993e+01
2.162999999999999901e+01
-2.899999999999999800e-01
7.910000000000000142e+00
4.261999999999999744e+01
1.144999999999999929e+01
5.142000000000000171e+01
7.339000000000000057e+01
-7.509999999999999432e+01
-4.023299999999999841e+02
2.557000000000000028e+01
1.068100000000000023e+02
1.212999999999999972e+02
4.554999999999999716e+01
-6.164999999999999858e+01
6.046999999999999886e+01
9.028000000000000114e+01
-1.488400000000000034e+02
-6.837999999999999545e+01
1.311200000000000045e+02
6.996999999999999886e+01
1.914999999999999858e+01
3.679999999999999716e+01
-1.725500000000000114e+02
1.799999999999999933e-01
-9.814000000000000057e+01
7.437999999999999545e+01
5.540000000000000036e+00
-2.748999999999999773e+02
-1.906899999999999977e+02
9.359999999999999432e+00
-2.135000000000000142e+01
3.011200000000000045e+02
2.112500000000000000e+02
-1.862199999999999989e+02
-2.771999999999999886e+01
1.928300000000000125e+02
6.190000000000000391e+00
2.270200000000000102e+02
2.816999999999999886e+02
-5.799999999999999822e+00
-4.304900000000000091e+02
1.783400000000000034e+02
-5.456499999999999773e+02
1.519000000000000057e+02
3.638000000000000256e+01
1.662599999999999909e+02
4.652699999999999818e+02
2.769200000000000159e+02
-1.760099999999999909e+02
4.310000000000000142e+01
-3.603999999999999915e+01
-3.093399999999999750e+02
-1.431100000000000136e+02
-2.712000000000000099e+01
1.471599999999999966e+02
-2.260000000000000142e+01
-3.384000000000000341e+01
6.203999999999999915e+01
-2.189999999999999858e+01
-1.046899999999999977e+02
7.740999999999999659e+01
9.503000000000000114e+01
-6.740999999999999659e+01
4.915999999999999659e+01
-4.671000000000000085e+01
-1.058400000000000034e+02
6.987999999999999545e+01
7.929000000000000625e+01
-3.010999999999999943e+01
5.779999999999999716e+01
9.331000000000000227e+01
-5.177000000000000313e+01
-1.764999999999999858e+01
7.290000000000000036e+00
-3.628999999999999915e+01
-5.420000000000000284e+01
6.000999999999999801e+01
7.230000000000000426e+00
-8.351000000000000512e+01
4.592000000000000171e+01
-1.308999999999999986e+01
-1.017500000000000000e+02
7.446999999999999886e+01
5.611999999999999744e+01
-1.152800000000000011e+02
6.409000000000000341e+01
2.533999999999999986e+01
9.076999999999999602e+01
-1.065799999999999983e+02
-2.760000000000000142e+01
2.339999999999999858e+01
-4.953999999999999915e+01
-4.564999999999999858e+01
4.731000000000000227e+01
-9.339999999999999858e+00
-7.121999999999999886e+01
7.571999999999999886e+01
-1.209999999999999964e+00
-1.349000000000000021e+01
-2.321000000000000085e+01
1.016299999999999955e+02
-2.996999999999999886e+01
-3.202000000000000313e+01
5.324000000000000199e+01
6.080000000000000071e+00
-9.468999999999999773e+01
6.096000000000000085e+01
4.118999999999999773e+01
-2.171999999999999886e+02
2.487999999999999901e+01
1.445500000000000114e+02
4.334000000000000341e+01
1.483899999999999864e+02
1.360999999999999943e+02
1.218999999999999950e+01
-1.255900000000000034e+02
-3.001999999999999957e+01
2.859999999999999876e+00
-1.426599999999999966e+02
1.132999999999999972e+02
6.165999999999999659e+01
-1.935000000000000142e+01
-1.216899999999999977e+02
7.743000000000000682e+01
3.710000000000000142e+01
-7.812999999999999545e+01
7.660000000000000142e+00
3.952000000000000313e+01
-1.621000000000000085e+01
-6.907999999999999829e+01
9.743999999999999773e+01
1.966000000000000014e+01
-8.501999999999999602e+01
8.548000000000000398e+01
-2.779999999999999805e+00
-9.095000000000000284e+01
4.772999999999999687e+01
6.448000000000000398e+01
-1.393000000000000114e+02
-5.870000000000000284e+01
1.813100000000000023e+02
6.826000000000000512e+01
-1.421599999999999966e+02
-1.276200000000000045e+02
9.821999999999999886e+01
9.248000000000000398e+01
-5.165999999999999659e+01
4.509999999999999787e+00
-1.273900000000000006e+02
1.293999999999999950e+01
6.795999999999999375e+01
-2.582000000000000028e+01
-6.826999999999999602e+01
6.172999999999999687e+01
3.970000000000000195e+00
-8.056000000000000227e+01
7.628000000000000114e+01
-9.859999999999999432e+00
-1.088199999999999932e+02
-5.382000000000000028e+01
8.893999999999999773e+01
2.080999999999999872e+01
-3.094000000000000128e+01
8.409000000000000341e+01
3.459999999999999964e+00
-8.151000000000000512e+01
4.115999999999999659e+01
7.589999999999999858e+00
-4.704999999999999716e+01
-2.757999999999999829e+01
6.775000000000000000e+01
1.808999999999999986e+01
-8.167000000000000171e+01
5.286999999999999744e+01
-1.199999999999999956e-01
-9.053000000000000114e+01
-4.349000000000000199e+01
1.229500000000000028e+02
2.023000000000000043e+01
-7.412000000000000455e+01
5.189000000000000057e+01
4.327000000000000313e+01
-4.175999999999999801e+01
-5.388000000000000256e+01
5.971999999999999886e+01
8.089999999999999858e+00
-8.415999999999999659e+01
5.965999999999999659e+01
4.782000000000000028e+01
-4.063000000000000256e+01
-6.893000000000000682e+01
5.879999999999999716e+01
3.839999999999999858e+00
-7.620000000000000284e+01
3.957999999999999829e+01
9.114000000000000057e+01
-2.760000000000000142e+01
-7.584000000000000341e+01
8.050000000000000000e+01
1.002999999999999936e+01
-9.256999999999999318e+01
2.078999999999999915e+01
7.920999999999999375e+01
-5.552000000000000313e+01
-8.928000000000000114e+01
1.260400000000000063e+02
8.246999999999999886e+01
-1.081500000000000057e+02
-4.443999999999999773e+01
7.946999999999999886e+01
9.599999999999999645e+00
-1.100100000000000051e+02
9.568999999999999773e+01
3.840999999999999659e+01
-8.968999999999999773e+01
-9.262999999999999545e+01
1.181099999999999994e+02
5.513000000000000256e+01
-6.410999999999999943e+01
4.096999999999999886e+01
4.221000000000000085e+01
-6.157999999999999829e+01
-1.268900000000000006e+02
1.326699999999999875e+02
4.621000000000000085e+01
-7.401000000000000512e+01
-4.396999999999999886e+01
9.248000000000000398e+01
3.482000000000000028e+01
-1.277699999999999960e+02
6.219999999999999751e+00
8.682999999999999829e+01
-2.901999999999999957e+01
-1.314799999999999898e+02
2.014000000000000057e+01
1.428700000000000045e+02
2.446999999999999886e+01
4.297999999999999687e+01
4.006000000000000227e+01
-5.900999999999999801e+01
-1.643799999999999955e+02
8.131999999999999318e+01
4.609000000000000341e+01
-5.668999999999999773e+01
-8.468000000000000682e+01
1.028299999999999983e+02
1.575999999999999979e+01
-8.918999999999999773e+01
3.749000000000000199e+01
4.820000000000000284e+01
3.529999999999999805e+00
-1.282700000000000102e+02
1.284300000000000068e+02
4.103999999999999915e+01
-7.834000000000000341e+01
7.940000000000000391e+00
6.479000000000000625e+01
-1.425999999999999979e+01
-1.263799999999999955e+02
7.404999999999999716e+01
5.660999999999999943e+01
-3.967000000000000171e+01
-6.592000000000000171e+01
9.464000000000000057e+01
1.946000000000000085e+01
-8.948999999999999488e+01
2.655000000000000071e+01
5.104999999999999716e+01
-2.505000000000000071e+01
-1.461800000000000068e+02
1.181299999999999955e+02
5.518999999999999773e+01
-6.923999999999999488e+01
-1.133400000000000034e+02
8.239000000000000057e+01
3.734000000000000341e+01
-5.225000000000000000e+01
3.157999999999999829e+01
5.788000000000000256e+01
-1.353999999999999915e+01
-1.289099999999999966e+02
9.650000000000000000e+01
5.967999999999999972e+01
-4.825000000000000000e+01
-1.138499999999999943e+02
1.040300000000000011e+02
2.912999999999999901e+01
-8.798000000000000398e+01
-1.510000000000000009e+00
7.181000000000000227e+01
1.370000000000000107e+00
-9.648999999999999488e+01
8.245000000000000284e+01
5.900999999999999801e+01
-2.810999999999999943e+01
-1.303300000000000125e+02
9.485999999999999943e+01
4.372999999999999687e+01
-5.528999999999999915e+01
-3.939000000000000057e+01
8.184999999999999432e+01
1.698000000000000043e+01
-8.504999999999999716e+01
4.209999999999999964e+00
7.482999999999999829e+01
-1.051999999999999957e+01
-1.005100000000000051e+02
5.817000000000000171e+01
5.457999999999999829e+01
-2.051999999999999957e+01
-1.318700000000000045e+02
1.197999999999999972e+02
3.975000000000000000e+01
-5.402000000000000313e+01
-6.976000000000000512e+01
7.431999999999999318e+01
2.592000000000000171e+01
-7.065000000000000568e+01
-1.694000000000000128e+01
7.281000000000000227e+01
1.949999999999999956e+00
-1.002000000000000028e+02
7.748000000000000398e+01
7.848999999999999488e+01
-8.323999999999999488e+01
-8.809999999999999432e+01
1.614099999999999966e+02
-4.175999999999999801e+01
-1.507100000000000080e+02
-5.599999999999999645e+00
1.033700000000000045e+02
3.108799999999999955e+02
-1.312400000000000091e+02
2.522199999999999989e+02
-7.849999999999999645e+00
-2.948399999999999750e+02
-3.324900000000000091e+02
1.189399999999999977e+02
1.479799999999999898e+02
-1.184399999999999977e+02
2.460000000000000142e+01
2.081899999999999977e+02
-2.582999999999999829e+01
3.595000000000000284e+01
4.095000000000000284e+01
-6.793000000000000682e+01
4.815999999999999659e+01
1.184399999999999977e+02
-6.088000000000000256e+01
-3.035000000000000142e+01
3.549000000000000199e+01
2.305999999999999943e+02
-2.756100000000000136e+02
-1.350999999999999943e+02
-1.035999999999999943e+01
-1.662000000000000099e+01
6.418000000000000682e+01
9.617000000000000171e+01
-4.796999999999999886e+01
-1.066200000000000045e+02
-4.696999999999999886e+01
3.771000000000000085e+01
2.692999999999999972e+01
-2.330999999999999872e+01
-5.021000000000000085e+01
5.295000000000000284e+01
6.214000000000000057e+01
-6.259999999999999787e+00
-1.405000000000000071e+01
1.139000000000000057e+01
-5.511999999999999744e+01
-5.971999999999999886e+01
4.663000000000000256e+01
1.939999999999999858e+01
-2.400000000000000000e+01
-4.985000000000000142e+01
5.786999999999999744e+01
7.410000000000000142e+00
-5.939999999999999858e+01
-2.667999999999999972e+01
1.960000000000000142e+01
-2.023000000000000043e+01
-5.640999999999999659e+01
7.223999999999999488e+01
7.504000000000000625e+01
-1.919999999999999929e+00
-4.971000000000000085e+01
4.635000000000000142e+01
-9.900000000000000355e+00
-7.982999999999999829e+01
-8.449999999999999289e+00
1.295600000000000023e+02
6.059999999999999609e+00
-6.104999999999999716e+01
5.892000000000000171e+01
3.300000000000000155e-01
-1.455000000000000071e+01
-5.257000000000000028e+01
4.464999999999999858e+01
2.557999999999999829e+01
-4.370000000000000284e+01
-1.739999999999999991e+00
7.965999999999999659e+01
3.129999999999999893e+00
-9.635999999999999943e+01
-1.667000000000000171e+01
4.479999999999999716e+01
1.855999999999999872e+01
-7.010999999999999943e+01
5.364999999999999858e+01
2.966000000000000014e+01
-4.606000000000000227e+01
-6.717000000000000171e+01
3.176999999999999957e+01
-2.823999999999999844e+01
-5.400000000000000355e+00
6.900000000000000355e+00
3.867000000000000171e+01
-6.990000000000000213e+00
-5.342999999999999972e+01
7.278000000000000114e+01
1.871000000000000085e+01
-3.738000000000000256e+01
-6.579000000000000625e+01
8.453000000000000114e+01
3.546999999999999886e+01
-6.770999999999999375e+01
-2.842000000000000171e+01
4.285999999999999943e+01
2.485000000000000142e+01
-6.881999999999999318e+01
2.796000000000000085e+01
2.791000000000000014e+01
-7.390999999999999659e+01
-4.428999999999999915e+01
1.004200000000000017e+02
6.343999999999999773e+01
-3.514000000000000057e+01
-5.571999999999999886e+01
4.871000000000000085e+01
2.328999999999999915e+01
-4.002000000000000313e+01
-1.092999999999999972e+01
-3.470000000000000195e+00
-5.320000000000000284e+00
-5.722999999999999687e+01
4.778000000000000114e+01
4.761999999999999744e+01
-1.551999999999999957e+01
-6.612000000000000455e+01
4.729999999999999716e+01
7.629999999999999893e+00
-5.315999999999999659e+01
2.325000000000000000e+01
3.321999999999999886e+01
-1.015000000000000036e+01
-7.215999999999999659e+01
3.388000000000000256e+01
3.067000000000000171e+01
-1.519999999999999929e+01
-6.932999999999999829e+01
5.503999999999999915e+01
4.411999999999999744e+01
-2.878000000000000114e+01
-4.177000000000000313e+01
5.746999999999999886e+01
1.710999999999999943e+01
-7.839000000000000057e+01
-7.580000000000000071e+00
5.293999999999999773e+01
5.830000000000000071e+00
-8.068999999999999773e+01
4.507999999999999829e+01
5.732999999999999829e+01
-2.691000000000000014e+01
-1.094800000000000040e+02
6.481000000000000227e+01
3.028000000000000114e+01
-1.049300000000000068e+02
-1.128299999999999983e+02
1.308100000000000023e+02
2.578999999999999915e+01
-1.229699999999999989e+02
-7.412999999999999545e+01
4.284399999999999977e+02
7.443999999999999773e+02
-5.279299999999999500e+02
-1.392100000000000080e+02
9.900000000000000355e+00
9.756000000000000227e+01
-3.609999999999999876e+00
2.757000000000000028e+01
-7.401000000000000512e+01
-2.139000000000000057e+01
7.301999999999999602e+01
3.917999999999999972e+01
5.602000000000000313e+01
-1.255600000000000023e+02
1.129999999999999893e+00
-9.339000000000000057e+01
3.797999999999999687e+01
1.331200000000000045e+02
-5.625999999999999801e+01
-1.033000000000000007e+01
-1.753000000000000114e+01
9.615000000000000568e+01
4.457999999999999829e+01
-9.898000000000000398e+01
-9.070000000000000284e+00
4.354999999999999716e+01
-5.128000000000000114e+01
-1.202300000000000040e+02
-1.332000000000000028e+01
-6.639000000000000057e+01
-2.253799999999999955e+02
-5.121599999999999682e+02
4.968600000000000136e+02
2.650299999999999727e+02
1.081000000000000050e+01
3.790000000000000036e+00
-2.867999999999999972e+01
2.601999999999999957e+01
9.862999999999999545e+01
-9.201999999999999602e+01
2.317000000000000171e+01
5.885000000000000142e+01
-5.240000000000000213e+00
-5.018999999999999773e+02
8.325000000000000000e+01
2.939999999999999858e+01
-2.885999999999999943e+01
-1.308999999999999986e+01
-1.278700000000000045e+02
-1.793899999999999864e+02
1.650000000000000000e+01
8.679999999999999716e+00
4.221999999999999886e+01
1.792800000000000011e+02
4.125000000000000000e+02
7.668999999999999773e+01
-1.685999999999999943e+01
-7.340999999999999659e+01
-6.374000000000000199e+01
3.100000000000000089e+00
1.409999999999999920e+00
-5.239000000000000057e+01
-1.717000000000000171e+01
-5.480000000000000426e+00
-1.075999999999999979e+01
-2.007000000000000028e+01
-9.810000000000000497e+00
-6.825000000000000000e+01
-5.863000000000000256e+01
-5.628000000000000114e+01
9.426000000000000512e+01
2.591000000000000014e+01
1.151999999999999957e+01
1.978000000000000114e+01
-9.099999999999999645e+00
1.081000000000000050e+01
1.375099999999999909e+02
2.523000000000000043e+01
-5.335000000000000142e+01
-7.634000000000000341e+01
-2.946000000000000085e+01
3.229999999999999982e+00
-3.234000000000000341e+01
-3.771999999999999886e+01
1.717999999999999972e+01
1.047000000000000064e+01
-1.889999999999999858e+01
-4.532000000000000028e+01
-1.730800000000000125e+02
-3.029599999999999795e+02
6.753000000000000114e+01
9.478000000000000114e+01
2.043100000000000023e+02
-1.415600000000000023e+02
2.171100000000000136e+02
7.718300000000000409e+02
1.223599999999999909e+03
-9.992899999999999636e+02
-1.618199999999999932e+02
1.164300000000000068e+02
1.588899999999999864e+02
9.868000000000000682e+01
-2.163700000000000045e+02
1.008199999999999932e+02
-7.993000000000000682e+01
-4.593999999999999773e+01
2.985000000000000142e+01
-1.717999999999999972e+01
-2.080999999999999943e+02
8.773999999999999488e+01
1.538700000000000045e+02
1.255400000000000063e+02
-1.526299999999999955e+02
-1.794999999999999929e+01
7.807999999999999829e+01
-3.321999999999999886e+01
9.606000000000000227e+01
6.830000000000000071e+00
-4.039000000000000057e+01
9.468000000000000682e+01
-1.139599999999999937e+02
-4.878000000000000114e+01
-8.479999999999999716e+01
2.236599999999999966e+02
-8.669999999999999929e+00
-1.295500000000000114e+02
-7.382999999999999829e+01
8.939000000000000057e+01
-9.730000000000000426e+00
1.342199999999999989e+02
4.343999999999999773e+02
-2.296699999999999875e+02
-5.878999999999999915e+01
2.375000000000000000e+01
-1.145600000000000023e+02
-1.647100000000000080e+02
-1.617000000000000171e+01
4.728999999999999915e+01
-3.635000000000000142e+01
7.076000000000000512e+01
-2.462000000000000099e+01
-1.271599999999999966e+02
-4.070799999999999841e+02
-3.038600000000000136e+02
3.317699999999999818e+02
2.686399999999999864e+02
-2.928999999999999915e+01
4.909000000000000341e+01
-2.326699999999999875e+02
1.730699999999999932e+02
-1.603199999999999932e+02
2.706499999999999773e+02
3.338000000000000256e+01
3.227000000000000313e+01
-4.003999999999999915e+01
-1.510000000000000000e+02
1.571800000000000068e+02
8.890000000000000568e+01
-1.337199999999999989e+02
2.482999999999999829e+01
2.369199999999999875e+02
1.956699999999999875e+02
6.414000000000000057e+01
-1.263400000000000034e+02
-1.338700000000000045e+02
-1.162000000000000028e+02
-3.927000000000000313e+01
-7.759999999999999787e+00
-2.096999999999999886e+01
-1.552999999999999936e+01
-1.434999999999999964e+01
-6.875000000000000000e+01
4.888000000000000256e+01
2.844999999999999929e+01
-1.001299999999999955e+02
-2.252599999999999909e+02
-2.054000000000000057e+02
6.164999999999999858e+01
2.398300000000000125e+02
-1.345800000000000125e+02
2.081999999999999886e+02
1.291800000000000068e+02
-1.684300000000000068e+02
6.196999999999999886e+01
1.963700000000000045e+02
1.815200000000000102e+02
1.949399999999999977e+02
-1.483000000000000114e+02
2.128000000000000114e+01
5.964000000000000057e+01
-2.727500000000000000e+02
-2.246000000000000085e+01
1.384199999999999875e+02
1.444099999999999966e+02
3.972999999999999687e+01
-4.460000000000000142e+01
6.006000000000000227e+01
1.633700000000000045e+02
8.679000000000000625e+01
1.837500000000000000e+02
-2.959900000000000091e+02
-4.098199999999999932e+02
9.048000000000000398e+01
1.106899999999999977e+02
2.094999999999999929e+01
8.460999999999999943e+01
3.865299999999999727e+02
-3.049800000000000182e+02
-1.836500000000000057e+02
-2.118600000000000136e+02
5.238000000000000256e+01
8.835999999999999943e+01
3.632999999999999829e+01
-2.331599999999999966e+02
-1.032300000000000040e+02
1.951800000000000068e+02
4.761999999999999744e+01
-7.290000000000000036e+00
3.568999999999999773e+01
1.600000000000000089e+00
1.293999999999999950e+01
-2.509999999999999787e+00
2.533999999999999986e+01
-1.088000000000000078e+01
3.600000000000000000e+01
9.790000000000000568e+01
5.592000000000000171e+01
3.447999999999999687e+01
-2.028100000000000023e+02
1.028999999999999915e+01
3.415999999999999659e+01
-1.680000000000000071e+01
-1.851999999999999957e+01
9.330000000000000071e+00
5.689000000000000057e+01
4.914999999999999858e+01
-5.504999999999999716e+01
-4.995000000000000284e+01
3.938000000000000256e+01
9.284000000000000341e+01
-3.714000000000000057e+01
3.215999999999999659e+01
-7.370999999999999375e+01
6.806999999999999318e+01
-1.189999999999999947e+00
-2.362999999999999901e+01
-6.040000000000000036e+00
5.702000000000000313e+01
-5.536999999999999744e+01
-9.070000000000000284e+00
1.296000000000000085e+01
-1.277999999999999936e+01
3.162999999999999901e+01
4.330000000000000071e+00
-2.848999999999999844e+01
-1.987000000000000099e+01
2.978000000000000114e+01
1.875000000000000000e+01
-5.299999999999999822e+00
1.135999999999999943e+01
1.600000000000000000e+01
-4.019999999999999574e+00
-2.183999999999999986e+01
1.401999999999999957e+01
-1.117999999999999972e+01
-4.510000000000000142e+01
3.100000000000000000e+01
3.465999999999999659e+01
-3.328000000000000114e+01
-1.467999999999999972e+01
8.545000000000000284e+01
5.500000000000000000e+01
-4.382999999999999829e+01
1.200999999999999979e+01
3.329999999999999716e+01
-1.508999999999999986e+01
2.187999999999999901e+01
1.271000000000000085e+01
5.171000000000000085e+01
3.282999999999999829e+01
-1.699999999999999956e+00
3.757000000000000028e+01
-1.546100000000000136e+02
-3.724200000000000159e+02
2.499399999999999977e+02
-2.791000000000000014e+01
1.757999999999999829e+01
-4.009999999999999787e+00
7.659999999999999432e+01
3.850000000000000089e+00
7.998999999999999488e+01
-2.113199999999999932e+02
-1.439399999999999977e+02
6.259999999999999787e+00
1.395300000000000011e+02
1.503199999999999932e+02
-2.125000000000000000e+01
-4.389999999999999680e+00
-4.078000000000000114e+01
3.289000000000000057e+01
1.972400000000000091e+02
-6.807999999999999829e+01
9.945000000000000284e+01
-4.710799999999999841e+02
4.414000000000000057e+01
6.448999999999999488e+01
1.200199999999999960e+02
-2.635000000000000142e+01
-6.078999999999999915e+01
1.253100000000000023e+02
-6.239000000000000057e+01
1.916000000000000014e+01
9.660000000000000142e+00
-8.179999999999999716e+00
-3.388000000000000256e+01
4.267000000000000171e+01
2.794999999999999929e+01
-3.290999999999999659e+01
3.506000000000000227e+01
6.070000000000000284e+00
-1.671000000000000085e+01
1.637999999999999901e+01
1.315000000000000036e+01
-5.849999999999999645e+00
-1.666000000000000014e+01
1.810999999999999943e+01
-1.129999999999999893e+00
-2.560999999999999943e+01
1.540000000000000036e+01
5.790000000000000036e+00
-4.049999999999999822e+00
6.290000000000000036e+00
8.050000000000000711e+00
-3.339999999999999858e+00
-1.946999999999999886e+01
1.471000000000000085e+01
1.499999999999999944e-01
-1.225000000000000000e+01
8.560000000000000497e+00
3.669999999999999929e+00
-1.249000000000000021e+01
-4.764000000000000057e+01
1.319999999999999929e+01
4.435999999999999943e+01
8.998000000000000398e+01
7.353000000000000114e+01
1.578700000000000045e+02
-1.196500000000000057e+02
-8.559000000000000341e+01
-2.845099999999999909e+02
-4.804999999999999716e+01
1.805200000000000102e+02
6.706000000000000227e+01
2.680999999999999872e+01
3.169999999999999929e+00
-1.142999999999999972e+01
1.475200000000000102e+02
9.756999999999999318e+01
2.332199999999999989e+02
-8.956999999999999318e+01
-7.274800000000000182e+02
2.498499999999999943e+02
-2.006299999999999955e+02
-3.360000000000000142e+01
-4.459000000000000341e+01
1.274099999999999966e+02
4.920000000000000000e+02
2.725000000000000000e+01
-2.384499999999999886e+02
-6.182000000000000028e+01
3.605699999999999932e+02
-1.134000000000000057e+02
1.420399999999999920e+02
1.174800000000000040e+02
-7.206999999999999318e+01
-8.573500000000000227e+02
3.445199999999999818e+02
1.729499999999999886e+02
-4.624000000000000199e+01
-1.288899999999999864e+02
-4.592999999999999972e+01
9.487000000000000455e+01
2.399999999999999911e-01
-1.166500000000000057e+02
-1.785900000000000034e+02
2.189199999999999875e+02
2.012800000000000011e+02
2.639499999999999886e+02
-4.931000000000000227e+01
1.304199999999999875e+02
8.818000000000000682e+01
-5.635900000000000318e+02
2.258100000000000023e+02
1.726000000000000156e+01
-1.232000000000000028e+01
-3.340500000000000114e+02
-7.437999999999999545e+01
1.930699999999999932e+02
6.634299999999999500e+02
-2.828399999999999750e+02
-1.145900000000000034e+02
-1.189399999999999977e+02
-8.715999999999999659e+01
1.983999999999999986e+01
1.605500000000000114e+02
-2.598000000000000043e+01
-3.934000000000000341e+01
-1.675000000000000000e+02
-3.180999999999999872e+01
9.195999999999999375e+01
1.516899999999999977e+02
8.289999999999999147e+00
4.024000000000000199e+01
2.848000000000000043e+01
-4.015999999999999659e+01
-9.369999999999999218e+00
2.730999999999999872e+01
-3.268999999999999773e+01
9.706000000000000227e+01
1.145100000000000051e+02
-1.469799999999999898e+02
7.548999999999999488e+01
1.510099999999999909e+02
1.472000000000000064e+01
-3.979999999999999716e+01
-1.650099999999999909e+02
1.508999999999999986e+01
-6.285000000000000142e+01
3.645000000000000284e+01
6.259999999999999787e+00
-2.046999999999999886e+01
3.279999999999999716e+01
2.046999999999999886e+01
-1.380000000000000071e+01
-2.321999999999999886e+01
1.748199999999999932e+02
3.331000000000000227e+01
-1.452999999999999936e+01
8.260999999999999943e+01
-7.634999999999999432e+01
-4.417000000000000171e+01
3.428000000000000114e+01
-8.710000000000000853e+00
8.887999999999999545e+01
-9.842000000000000171e+01
-1.367999999999999972e+01
6.215999999999999659e+01
1.526200000000000045e+02
-3.168600000000000136e+02
-1.716299999999999955e+02
2.350900000000000034e+02
-7.065999999999999659e+01
-2.069000000000000057e+02
2.007700000000000102e+02
-1.814600000000000080e+02
2.184499999999999886e+02
1.938300000000000125e+02
-1.474300000000000068e+02
-1.299099999999999966e+02
8.429000000000000625e+01
8.903000000000000114e+01
2.742999999999999972e+01
4.507000000000000028e+01
3.254999999999999716e+01
-4.071999999999999886e+01
-3.126999999999999957e+01
2.914000000000000057e+01
2.526999999999999957e+01
-3.282999999999999829e+01
-2.257000000000000028e+01
-1.146000000000000085e+01
-8.399999999999999689e-01
2.244000000000000128e+01
9.300000000000000488e-01
-2.262000000000000099e+01
-5.700000000000000178e+00
-4.929999999999999716e+00
4.659000000000000341e+01
1.028900000000000006e+02
-6.889999999999999680e+00
8.121999999999999886e+01
-1.186899999999999977e+02
-1.322000000000000064e+01
1.382100000000000080e+02
-1.949799999999999898e+02
-6.409999999999999432e+01
-1.518600000000000136e+02
6.590000000000000568e+01
1.484099999999999966e+02
-3.992000000000000171e+01
2.190999999999999943e+02
-2.608500000000000227e+02
-8.950000000000000000e+01
7.803000000000000114e+01
5.252000000000000313e+01
2.407000000000000028e+01
8.130000000000000782e+00
8.970000000000000284e+01
3.635999999999999943e+01
5.490000000000000213e+00
-3.459999999999999964e+00
-3.239999999999999858e+01
-2.139000000000000057e+01
3.753999999999999915e+01
7.059999999999999609e+00
-4.592000000000000171e+01
-1.521000000000000085e+01
-5.578999999999999915e+01
-3.625000000000000000e+01
-9.830000000000000071e+00
8.425000000000000000e+01
1.136099999999999994e+02
4.485999999999999943e+01
-2.858999999999999986e+01
-5.625000000000000000e+01
-4.050000000000000000e+01
1.637999999999999901e+01
1.070000000000000062e+00
-2.901999999999999957e+01
-8.990000000000000213e+00
1.188000000000000078e+01
-2.144999999999999929e+01
-3.878000000000000114e+01
3.414000000000000057e+01
-8.240000000000000213e+00
-6.626000000000000512e+01
3.051000000000000156e+01
3.779999999999999805e+00
-8.031999999999999318e+01
-5.068999999999999773e+01
8.100000000000000000e+01
-1.340000000000000036e+01
-5.607000000000000028e+01
8.423000000000000398e+01
1.190000000000000036e+01
-7.401000000000000512e+01
4.871000000000000085e+01
4.875999999999999801e+01
3.236999999999999744e+01
1.139999999999999902e+00
1.398400000000000034e+02
-1.458000000000000007e+01
-6.473000000000000398e+01
-1.444799999999999898e+02
2.469999999999999929e+01
2.817000000000000171e+01
-9.899999999999999911e-01
-1.147000000000000064e+01
5.481000000000000227e+01
3.581000000000000227e+01
-3.517000000000000171e+01
9.050000000000000711e+00
1.803999999999999915e+01
-9.599999999999999645e+00
-4.764000000000000057e+01
2.700000000000000178e+00
-2.091000000000000014e+01
2.300699999999999932e+02
2.705199999999999818e+02
-2.339000000000000057e+01
-3.397200000000000273e+02
-5.232500000000000000e+02
4.539700000000000273e+02
4.921999999999999886e+01
-4.071999999999999886e+01
-1.203499999999999943e+02
-1.226400000000000006e+02
2.059099999999999966e+02
2.047700000000000102e+02
-9.109999999999999432e+01
-1.009300000000000068e+02
-1.254800000000000040e+02
-4.711999999999999744e+01
1.231400000000000006e+02
1.145799999999999983e+02
-4.515999999999999659e+01
6.778000000000000114e+01
2.275999999999999943e+02
-1.973100000000000023e+02
1.374900000000000091e+02
4.356000000000000227e+01
-4.026299999999999955e+02
-4.808899999999999864e+02
1.096099999999999994e+02
2.122100000000000080e+02
-1.942000000000000171e+01
9.501000000000000512e+01
2.212000000000000099e+01
3.019000000000000128e+01
-1.994000000000000128e+01
-1.501999999999999957e+01
-1.406000000000000050e+01
6.831000000000000227e+01
1.040699999999999932e+02
-6.165999999999999659e+01
-4.281000000000000227e+01
4.713000000000000256e+01
-3.885000000000000142e+01
-6.642000000000000171e+01
5.906000000000000227e+01
-3.069999999999999840e+00
9.898999999999999488e+01
2.159199999999999875e+02
2.185300000000000011e+02
1.685999999999999943e+01
-3.467000000000000171e+01
-2.148899999999999864e+02
6.021999999999999886e+01
-1.849399999999999977e+02
-5.315199999999999818e+02
9.926000000000000512e+01
2.833199999999999932e+02
8.878000000000000114e+01
-1.278100000000000023e+02
1.758400000000000034e+02
1.041899999999999977e+02
-9.279999999999999716e+01
-5.701399999999999864e+02
-6.558300000000000409e+02
-7.301900000000000546e+02
8.857000000000000455e+02
4.755400000000000205e+02
-5.450000000000000178e+00
-5.745000000000000284e+01
6.340999999999999659e+01
-1.536899999999999977e+02
-1.452199999999999989e+02
2.831100000000000136e+02
-3.688299999999999841e+02
-1.211299999999999955e+02
8.381999999999999318e+01
2.118100000000000023e+02
1.963100000000000023e+02
2.869000000000000128e+01
-6.898999999999999488e+01
-8.937000000000000455e+01
-2.028999999999999915e+01
1.020999999999999943e+02
-1.269999999999999929e+01
3.802900000000000205e+02
5.383799999999999955e+02
-5.282999999999999545e+02
-2.104399999999999977e+02
2.978999999999999915e+01
2.891000000000000227e+02
-3.512599999999999909e+02
-1.712000000000000099e+01
-2.676000000000000227e+02
-1.881399999999999864e+02
1.494600000000000080e+02
1.773899999999999864e+02
3.789000000000000057e+01
2.172199999999999989e+02
8.950000000000000000e+01
-1.337199999999999989e+02
-4.736999999999999744e+01
5.724000000000000199e+01
-1.838100000000000023e+02
-1.308100000000000023e+02
-1.782000000000000028e+01
3.163000000000000114e+02
-3.018999999999999773e+02
1.801999999999999957e+01
1.079300000000000068e+02
3.296499999999999773e+02
8.521999999999999886e+01
-1.829000000000000057e+02
-1.472700000000000102e+02
-8.570999999999999375e+01
-2.689999999999999858e+01
7.070000000000000284e+00
-5.429999999999999716e+00
-2.350000000000000000e+01
-2.242999999999999972e+01
-2.753999999999999915e+01
4.799999999999999822e-01
-3.868999999999999773e+01
-2.347299999999999898e+02
-2.242599999999999909e+02
-1.442999999999999972e+01
-2.203999999999999915e+01
1.847800000000000011e+02
-2.357000000000000028e+01
3.335000000000000000e+02
1.346599999999999966e+02
-5.759999999999999787e+00
1.560300000000000011e+02
-1.426800000000000068e+02
1.541699999999999875e+02
4.810999999999999943e+01
2.653700000000000045e+02
-4.015099999999999909e+02
2.123999999999999844e+01
-1.792999999999999972e+01
5.907999999999999829e+01
2.041000000000000014e+01
9.153000000000000114e+01
6.753000000000000114e+01
2.169999999999999929e+00
3.637099999999999795e+02
1.287210000000000036e+03
-1.033309999999999945e+03
-3.915099999999999909e+02
-5.138000000000000256e+01
-7.390000000000000568e+01
4.897999999999999687e+01
-1.100900000000000034e+02
3.007000000000000028e+01
1.152699999999999960e+02
1.756899999999999977e+02
1.290000000000000036e+01
-4.530000000000000249e+00
3.349000000000000199e+01
-2.878000000000000114e+01
-1.386500000000000057e+02
-4.553600000000000136e+02
-6.424800000000000182e+02
8.249500000000000455e+02
5.692599999999999909e+02
-3.391999999999999886e+02
2.072299999999999898e+02
9.656999999999999318e+01
-2.184099999999999966e+02
2.280600000000000023e+02
1.287700000000000102e+02
-9.330000000000000071e+00
1.382000000000000028e+01
-2.580299999999999727e+02
-3.209000000000000341e+01
3.187699999999999818e+02
-3.282799999999999727e+02
4.560299999999999727e+02
1.987800000000000011e+02
-3.408700000000000045e+02
1.129300000000000068e+02
-2.309399999999999977e+02
1.285200000000000102e+02
1.632599999999999909e+02
-2.158999999999999986e+01
-5.071000000000000085e+01
2.294300000000000068e+02
-2.186699999999999875e+02
3.335799999999999841e+02
-2.231599999999999966e+02
-1.861800000000000068e+02
1.751100000000000136e+02
-1.493499999999999943e+02
-2.952500000000000000e+02
1.060999999999999943e+02
-2.732999999999999829e+01
2.651000000000000156e+01
8.296999999999999886e+01
9.951000000000000512e+01
-8.859000000000000341e+01
-2.210000000000000142e+01
-2.173999999999999844e+01
-5.029999999999999716e+01
2.412999999999999901e+01
2.510000000000000142e+01
-1.061999999999999922e+01
3.285999999999999943e+01
-2.549999999999999822e+00
2.126000000000000156e+01
-4.039000000000000057e+01
-3.107999999999999829e+01
2.919000000000000128e+01
3.269200000000000159e+02
-9.448999999999999488e+01
4.092999999999999972e+01
9.509999999999999432e+01
3.151000000000000156e+01
1.699999999999999956e+00
-6.215999999999999659e+01
-2.635400000000000205e+02
-4.162599999999999909e+02
2.976600000000000250e+02
1.901999999999999957e+01
9.117000000000000171e+01
4.830000000000000071e+00
1.096899999999999977e+02
2.561399999999999864e+02
-7.571999999999999886e+01
-1.640399999999999920e+02
-1.814099999999999966e+02
-4.702000000000000313e+01
-9.903000000000000114e+01
-2.748100000000000023e+02
-1.995300000000000011e+02
-3.509999999999999787e+00
1.112000000000000028e+02
2.706399999999999864e+02
3.661200000000000045e+02
8.223000000000000398e+01
-2.085000000000000142e+01
-1.158000000000000007e+01
-2.255999999999999872e+01
-1.317999999999999972e+01
-5.769999999999999574e+00
-9.060000000000000497e+00
-1.601000000000000156e+01
-1.842999999999999972e+01
8.289999999999999147e+00
1.310000000000000053e+00
-7.690000000000000391e+00
-4.482999999999999829e+01
2.089999999999999858e+01
7.580000000000000071e+00
5.707000000000000028e+01
-5.809999999999999609e+00
-1.214699999999999989e+02
3.965999999999999659e+01
-1.583400000000000034e+02
-2.925299999999999727e+02
7.718000000000000682e+01
3.651399999999999864e+02
-1.844399999999999977e+02
-2.987699999999999818e+02
-7.128000000000000114e+01
1.930800000000000125e+02
1.579399999999999977e+02
-5.307999999999999829e+01
-1.150999999999999943e+02
5.253000000000000114e+01
8.254999999999999716e+01
-3.518999999999999773e+01
4.542999999999999972e+01
-6.801999999999999602e+01
-2.232000000000000028e+01
3.510000000000000142e+01
1.024500000000000028e+02
-6.506999999999999318e+01
9.960000000000000853e+00
8.179000000000000625e+01
-2.853000000000000114e+01
-2.687000000000000099e+01
7.793999999999999773e+01
-7.084000000000000341e+01
-1.153999999999999915e+01
5.969999999999999751e+00
-5.530000000000000249e+00
1.506000000000000050e+01
-8.259000000000000341e+01
-1.967000000000000171e+01
-3.123999999999999844e+01
4.611999999999999744e+01
3.035000000000000142e+01
7.595999999999999375e+01
-9.956000000000000227e+01
-3.879999999999999716e+01
-2.523000000000000043e+01
-3.021999999999999886e+01
-5.286999999999999744e+01
-9.842000000000000171e+01
6.350999999999999801e+01
-8.915000000000000568e+01
1.108999999999999986e+01
6.462999999999999545e+01
5.269999999999999574e+00
2.794100000000000250e+02
-2.014900000000000091e+02
-5.400000000000000355e-01
-2.362999999999999901e+01
-2.699499999999999886e+02
1.273499999999999943e+02
-2.901999999999999957e+01
6.759999999999999432e+01
3.264999999999999858e+01
9.519999999999999574e+00
2.782999999999999829e+01
-8.773999999999999488e+01
-8.330000000000000071e+00
-8.289999999999999147e+00
-5.100000000000000000e+01
3.103999999999999915e+01
-7.870000000000000107e+00
2.709300000000000068e+02
2.724399999999999977e+02
-9.765999999999999659e+01
-2.258799999999999955e+02
-1.149099999999999966e+02
3.609999999999999876e+00
7.676000000000000512e+01
2.174900000000000091e+02
1.053599999999999994e+02
-3.743199999999999932e+02
-2.056500000000000057e+02
9.792000000000000171e+01
3.861000000000000227e+02
-1.584499999999999886e+02
-2.181500000000000057e+02
-1.011700000000000017e+02
1.129399999999999977e+02
-8.696999999999999886e+01
-5.009999999999999787e+00
7.529000000000000625e+01
9.585999999999999943e+01
4.077799999999999727e+02
-7.262999999999999545e+01
-3.460400000000000205e+02
-2.082500000000000000e+02
7.221999999999999886e+01
3.266299999999999955e+02
-3.518899999999999864e+02
-6.482999999999999829e+01
1.233000000000000007e+01
1.863700000000000045e+02
1.391000000000000014e+01
-5.839000000000000057e+01
3.893299999999999841e+02
1.807999999999999829e+01
-1.930200000000000102e+02
3.869399999999999977e+02
-2.516800000000000068e+02
-1.497199999999999989e+02
-1.357899999999999920e+02
2.482199999999999989e+02
6.620000000000000107e+00
-1.968300000000000125e+02
6.140999999999999659e+01
2.207500000000000000e+02
-2.228000000000000114e+01
-2.181100000000000136e+02
1.421999999999999886e+02
1.459699999999999989e+02
-2.441000000000000014e+01
8.806000000000000227e+01
2.080500000000000114e+02
2.586499999999999773e+02
3.931000000000000227e+01
7.587999999999999545e+01
-2.883399999999999750e+02
-6.952200000000000273e+02
-8.003000000000000114e+01
1.084899999999999949e+02
1.504099999999999966e+02
1.536599999999999966e+02
5.792000000000000455e+02
-2.315399999999999920e+02
-3.280699999999999932e+02
2.027400000000000091e+02
-1.781399999999999864e+02
-4.861700000000000159e+02
7.748000000000000398e+01
-1.057900000000000063e+02
1.100999999999999979e+01
1.030600000000000023e+02
-9.720000000000000639e+00
-1.167999999999999972e+01
2.623000000000000043e+01
3.763000000000000256e+01
8.520000000000000284e+01
9.859999999999999432e+00
-8.881000000000000227e+01
1.540000000000000036e+01
1.219999999999999973e+00
-1.292999999999999972e+01
-4.695000000000000284e+01
1.499000000000000057e+02
1.382400000000000091e+02
-1.900699999999999932e+02
7.112999999999999545e+01
-1.413400000000000034e+02
1.506899999999999977e+02
1.641200000000000045e+02
-2.594000000000000128e+01
-2.837900000000000205e+02
-1.989999999999999858e+01
4.990000000000000213e+00
-1.844099999999999966e+02
6.956000000000000227e+01
3.335699999999999932e+02
7.779000000000000625e+01
-7.515000000000000568e+01
-1.302299999999999898e+02
-6.809900000000000091e+02
-6.275900000000000318e+02
5.485499999999999545e+02
-9.750000000000000000e+00
-2.560000000000000053e+00
3.453999999999999915e+01
3.998500000000000227e+02
4.106700000000000159e+02
3.411999999999999744e+01
-3.885999999999999943e+01
-9.295000000000000284e+01
-1.164099999999999966e+02
-3.677000000000000313e+01
-2.637999999999999901e+01
-7.631000000000000227e+01
9.359999999999999432e+00
5.311999999999999744e+01
3.978000000000000114e+01
-1.853000000000000114e+01
-6.271999999999999886e+01
1.898000000000000043e+01
1.538700000000000045e+02
-9.056999999999999318e+01
-1.829499999999999886e+02
1.172199999999999989e+02
9.271999999999999886e+01
8.126000000000000512e+01
-5.790000000000000036e+00
3.638000000000000256e+01
6.102000000000000313e+01
-1.767999999999999972e+01
1.388000000000000114e+02
6.017000000000000171e+01
7.760999999999999943e+01
-1.874399999999999977e+02
-5.475999999999999801e+01
-5.339999999999999858e+01
1.353300000000000125e+02
2.848500000000000227e+02
-2.357700000000000102e+02
8.960000000000000853e+00
-4.899999999999999911e-01
-4.058600000000000136e+02
4.899999999999999911e-01
4.961399999999999864e+02
7.160000000000000142e+00
5.154999999999999716e+01
4.720000000000000284e+01
1.050900000000000034e+02
2.790500000000000114e+02
-1.385600000000000023e+02
1.517999999999999972e+01
6.525000000000000000e+01
-1.407500000000000000e+02
-5.673700000000000045e+02
-7.670900000000000318e+02
8.651900000000000546e+02
4.046999999999999886e+02
2.490999999999999943e+02
8.869999999999999218e+00
-4.792000000000000171e+01
-3.043600000000000136e+02
3.214499999999999886e+02
-2.853100000000000023e+02
-6.780000000000000249e+00
-1.535999999999999943e+01
7.981999999999999318e+01
1.360000000000000000e+02
-6.814000000000000057e+01
9.512999999999999545e+01
3.599000000000000199e+01
-3.811999999999999744e+01
4.213000000000000256e+01
-6.334000000000000341e+01
-8.831000000000000227e+01
9.904000000000000625e+01
2.239999999999999858e+01
-1.264800000000000040e+02
1.006200000000000045e+02
-1.331299999999999955e+02
7.929999999999999716e+01
8.695999999999999375e+01
-1.457199999999999989e+02
-8.764000000000000057e+01
-1.207300000000000040e+02
2.195999999999999943e+02
1.981100000000000136e+02
-1.250999999999999943e+02
2.028999999999999915e+01
1.484999999999999964e+01
-5.407999999999999829e+01
-9.387000000000000455e+01
-1.229999999999999982e+00
-2.339999999999999858e+01
4.349999999999999645e+00
-1.649999999999999911e+00
-6.531000000000000227e+01
5.442000000000000171e+01
-7.349999999999999645e+00
3.035999999999999943e+01
1.635999999999999943e+01
-1.516000000000000014e+01
1.047000000000000064e+01
-2.957999999999999829e+01
-3.879999999999999893e+00
1.585699999999999932e+02
-7.237000000000000455e+01
3.511999999999999744e+01
-8.051000000000000512e+01
-4.217999999999999972e+01
1.979799999999999898e+02
1.679799999999999898e+02
1.334999999999999964e+01
2.514099999999999966e+02
7.179999999999999716e+00
8.750000000000000000e+00
3.771000000000000085e+01
-1.030699999999999932e+02
4.739000000000000057e+01
-1.394000000000000057e+02
-3.663399999999999750e+02
-6.579500000000000455e+02
-6.587300000000000182e+02
7.742799999999999727e+02
3.908799999999999955e+02
-2.331999999999999886e+02
-2.168300000000000125e+02
-2.230000000000000071e+01
6.623999999999999488e+01
8.032999999999999829e+01
6.322999999999999687e+01
1.074300000000000068e+02
-5.179999999999999716e+00
1.018789999999999964e+03
1.673789999999999964e+03
-1.538150000000000091e+03
6.581000000000000227e+01
-2.393300000000000125e+02
-2.486899999999999977e+02
8.515999999999999659e+01
-6.909999999999999432e+01
5.815999999999999659e+01
1.050999999999999979e+01
-9.626000000000000512e+01
-9.509999999999999787e+00
9.829999999999999716e+01
-1.455600000000000023e+02
2.594000000000000128e+01
-5.571000000000000085e+01
-3.130000000000000071e+01
2.019000000000000128e+01
3.155999999999999872e+01
-3.890000000000000124e+00
-1.261999999999999922e+01
5.174000000000000199e+01
-7.160000000000000142e+00
3.736999999999999744e+01
-1.134999999999999964e+01
-5.110000000000000320e+00
-3.810000000000000053e+00
2.369999999999999929e+01
2.210999999999999943e+01
1.052900000000000063e+02
-5.702000000000000313e+01
-4.467000000000000171e+01
7.792000000000000171e+01
1.583899999999999864e+02
-3.374800000000000182e+02
-6.327000000000000313e+01
3.496200000000000045e+02
1.570000000000000000e+02
-4.210999999999999943e+01
-3.802000000000000313e+01
-2.910999999999999943e+01
4.211999999999999744e+01
6.310000000000000142e+01
2.163799999999999955e+02
9.803000000000000114e+01
-1.633400000000000034e+02
-6.099600000000000364e+02
2.386399999999999864e+02
3.075000000000000000e+01
-1.114599999999999937e+02
-5.660000000000000142e+01
-6.069800000000000182e+02
1.378199999999999932e+02
5.936999999999999744e+01
1.195900000000000034e+02
8.537000000000000455e+01
1.401999999999999886e+02
-1.075100000000000051e+02
-3.666399999999999864e+02
-5.304999999999999716e+01
4.937599999999999909e+02
-1.181899999999999977e+02
7.734000000000000341e+01
-1.192999999999999972e+01
9.351000000000000512e+01
7.357300000000000182e+02
3.533299999999999841e+02
1.903230000000000018e+03
-2.644840000000000146e+03
-9.140099999999999909e+02
-3.904499999999999886e+02
-1.031299999999999955e+02
-4.338000000000000256e+01
-3.078999999999999915e+01
-1.927899999999999920e+02
2.581100000000000136e+02
-8.859000000000000341e+01
-3.490999999999999659e+01
9.367000000000000171e+01
1.150000000000000000e+02
-3.731600000000000250e+02
1.982000000000000028e+01
-3.722699999999999818e+02
1.896200000000000045e+02
-1.998999999999999844e+01
1.432199999999999989e+02
5.030000000000000249e+00
-4.082000000000000028e+01
5.000000000000000000e+00
-4.252200000000000273e+02
3.270099999999999909e+02
-1.376999999999999886e+02
1.071000000000000085e+01
6.565999999999999659e+01
5.585999999999999943e+01
-1.066999999999999993e+01
2.169999999999999929e+00
-1.093299999999999983e+02
1.547400000000000091e+02
7.131999999999999318e+01
-1.293999999999999950e+01
5.990000000000000213e+00
-1.272000000000000064e+01
-3.750000000000000000e+00
5.392000000000000171e+01
1.862000000000000099e+01
-8.900000000000000355e+00
-2.300000000000000100e-01
-2.278000000000000114e+01
-3.182999999999999829e+01
1.196000000000000085e+01
9.070000000000000284e+00
-6.009999999999999787e+00
1.416999999999999993e+01
1.837000000000000099e+01
-1.011999999999999922e+01
-1.330000000000000071e+01
1.355000000000000071e+01
1.199999999999999956e+00
-3.935999999999999943e+01
1.116000000000000014e+01
1.889999999999999902e+00
-1.000000000000000056e-01
2.448000000000000043e+01
3.669999999999999929e+00
-1.773000000000000043e+01
-2.859999999999999876e+00
2.767000000000000171e+01
8.060000000000000497e+00
-1.355000000000000071e+01
-4.360000000000000320e+00
6.730000000000000426e+00
5.589999999999999858e+00
7.580000000000000071e+00
-9.399999999999999467e-01
-1.105000000000000071e+01
-2.378999999999999915e+01
3.196000000000000085e+01
-3.009999999999999787e+00
-1.669000000000000128e+01
1.832999999999999829e+01
1.276999999999999957e+01
-3.484000000000000341e+01
1.227999999999999936e+01
1.107000000000000028e+01
9.662999999999999545e+01
-1.047199999999999989e+02
-3.192000000000000171e+01
1.205600000000000023e+02
-4.300999999999999801e+01
1.205000000000000071e+01
1.791000000000000014e+01
-3.696000000000000085e+01
-5.528000000000000114e+01
1.900000000000000000e+01
3.029999999999999805e+00
-3.270000000000000018e+00
1.434999999999999964e+01
-1.166000000000000014e+01
-1.712999999999999901e+01
1.543999999999999950e+01
9.419999999999999929e+00
-1.409999999999999920e+00
2.128000000000000114e+01
-4.021000000000000085e+01
-1.707999999999999829e+01
4.849999999999999645e+00
2.555999999999999872e+01
-3.814000000000000057e+01
-2.946000000000000085e+01
-2.871000000000000085e+01
2.905799999999999841e+02
-2.569000000000000128e+01
-1.265499999999999972e+02
-1.195000000000000000e+02
2.187000000000000099e+01
8.756000000000000227e+01
-7.545000000000000284e+01
1.300800000000000125e+02
2.052700000000000102e+02
3.023000000000000043e+01
-5.421000000000000085e+01
-3.396999999999999886e+02
-1.951999999999999886e+02
-1.835099999999999909e+02
4.417699999999999818e+02
2.018700000000000045e+02
5.503000000000000114e+01
2.819999999999999840e+00
1.758199999999999932e+02
-2.963700000000000045e+02
-2.370800000000000125e+02
2.840299999999999727e+02
8.251999999999999602e+01
-4.299000000000000199e+01
2.403999999999999915e+01
5.925999999999999801e+01
-1.436500000000000057e+02
1.304099999999999966e+02
-1.279300000000000068e+02
-4.247999999999999687e+01
6.768999999999999773e+01
2.465300000000000011e+02
1.072099999999999937e+02
-4.292000000000000171e+01
1.542999999999999972e+01
-4.400000000000000355e+00
-2.180000000000000160e+00
-7.231999999999999318e+01
-5.549999999999999822e+00
-2.391000000000000014e+01
-9.119999999999999218e+00
2.978999999999999915e+01
1.411999999999999922e+01
-1.610000000000000142e+01
2.591000000000000014e+01
1.423000000000000043e+01
-1.156000000000000050e+01
-4.860000000000000320e+00
1.905000000000000071e+01
-1.027999999999999936e+01
-9.619999999999999218e+00
1.301999999999999957e+01
-3.439999999999999947e+00
-1.844999999999999929e+01
1.089000000000000057e+01
1.175999999999999979e+01
-4.296000000000000085e+01
1.293999999999999950e+01
1.789000000000000057e+01
1.540000000000000036e+00
-1.383999999999999986e+01
1.855000000000000071e+01
2.839999999999999858e+00
-1.198000000000000043e+01
-6.530000000000000249e+00
5.650000000000000355e+00
-6.600000000000000311e-01
-1.041000000000000014e+01
1.830999999999999872e+01
1.317999999999999972e+01
-7.669999999999999929e+00
-4.650000000000000355e+00
3.680000000000000160e+00
-2.629999999999999893e+00
-2.192000000000000171e+01
-2.023999999999999844e+01
2.220000000000000195e+00
3.200000000000000000e+01
9.529999999999999361e+00
1.600000000000000089e+00
-1.666000000000000014e+01
-1.569999999999999929e+01
1.185999999999999943e+01
8.529999999999999361e+00
-1.630000000000000071e+01
-9.179999999999999716e+00
8.080000000000000071e+00
4.099999999999999756e-01
-6.269999999999999574e+00
1.133999999999999986e+01
6.870000000000000107e+00
-6.570000000000000284e+00
-1.912000000000000099e+01
9.609999999999999432e+00
3.000000000000000000e+00
-8.869999999999999218e+00
5.099999999999999645e+00
7.299999999999999822e+00
1.179999999999999938e+00
-2.246000000000000085e+01
-3.270000000000000018e+00
1.371000000000000085e+01
2.464000000000000057e+01
-1.689000000000000057e+01
-2.976999999999999957e+01
4.129999999999999893e+00
4.400000000000000022e-01
2.649999999999999911e+00
9.990000000000000213e+00
-6.160000000000000142e+00
-6.519999999999999574e+00
1.347000000000000064e+01
2.000000000000000000e+00
-1.071000000000000085e+01
4.900000000000000355e+00
1.281000000000000050e+01
1.282000000000000028e+01
-1.857999999999999829e+01
4.120000000000000107e+00
5.950000000000000178e+00
-3.770000000000000018e+00
7.250000000000000000e+00
7.429999999999999716e+00
-7.190000000000000391e+00
-1.614999999999999858e+01
8.330000000000000071e+00
-5.100000000000000089e-01
-1.226999999999999957e+01
8.509999999999999787e+00
4.650000000000000355e+00
-3.029999999999999805e+00
-1.578999999999999915e+01
1.320000000000000062e+00
-9.800000000000000711e+00
1.540000000000000036e+00
2.419999999999999929e+01
1.199000000000000021e+01
-1.000000000000000000e+00
-1.433999999999999986e+01
4.169999999999999929e+00
-5.699999999999999512e-01
-2.814999999999999858e+01
1.013000000000000078e+01
7.320000000000000284e+00
-2.120000000000000107e+00
-1.937999999999999901e+01
9.730000000000000426e+00
3.080000000000000071e+00
-5.440000000000000391e+00
-2.049999999999999822e+00
1.753000000000000114e+01
5.200000000000000178e+00
-1.375999999999999979e+01
5.750000000000000000e+00
5.830000000000000071e+00
-1.397000000000000064e+01
-4.885999999999999943e+01
3.761999999999999744e+01
3.670000000000000284e+01
4.700000000000000178e+00
-3.829999999999999716e+01
4.139999999999999680e+00
2.192000000000000171e+01
-2.260999999999999943e+01
1.741000000000000014e+01
4.610000000000000320e+00
-1.459999999999999964e+01
-1.364000000000000057e+01
2.121000000000000085e+01
8.849999999999999645e+00
-2.980000000000000071e+01
2.532000000000000028e+01
-5.969999999999999751e+00
-6.099999999999999867e-01
-6.700000000000000178e+00
-6.400000000000000355e+00
1.152999999999999936e+01
2.187000000000000099e+01
2.587999999999999901e+01
-2.803000000000000114e+01
-2.221999999999999886e+01
-2.350000000000000089e+00
3.459999999999999964e+00
-7.469999999999999751e+00
-9.230000000000000426e+00
3.117999999999999972e+01
-1.451999999999999957e+01
-7.730000000000000426e+00
-4.209999999999999964e+00
-1.919999999999999929e+00
4.940000000000000391e+00
-2.970000000000000195e+00
1.368999999999999950e+01
-4.860000000000000320e+00
-2.435999999999999943e+01
3.360000000000000142e+01
-7.049999999999999822e+00
-2.142999999999999972e+01
-1.396000000000000085e+01
1.994000000000000128e+01
1.535999999999999943e+01
-1.692999999999999972e+01
2.410000000000000142e+00
-1.596000000000000085e+01
-6.459999999999999964e+00
1.110999999999999943e+01
2.270000000000000018e+00
5.379999999999999893e+00
-6.000000000000000000e+00
9.839999999999999858e+00
5.360000000000000320e+00
3.419999999999999929e+00
-1.423000000000000043e+01
7.780000000000000249e+00
-2.100000000000000089e+00
-1.135999999999999943e+01
-2.580000000000000071e+00
3.060000000000000053e+00
2.080999999999999872e+01
-1.572000000000000064e+01
8.490000000000000213e+00
2.850000000000000089e+00
-2.096999999999999886e+01
-2.259999999999999787e+00
6.600000000000000311e-01
-1.335999999999999943e+01
8.330000000000000071e+00
1.499000000000000021e+01
3.549999999999999822e+00
-4.129999999999999893e+00
2.430000000000000160e+00
2.080999999999999872e+01
-2.850000000000000089e+00
-1.753999999999999915e+01
1.600000000000000089e+00
-5.610000000000000320e+00
3.499999999999999778e-01
-1.088000000000000078e+01
3.979999999999999982e+00
1.424000000000000021e+01
-1.278999999999999915e+01
-1.035999999999999943e+01
-3.657000000000000028e+01
8.137999999999999545e+01
-9.910000000000000142e+00
1.106000000000000050e+01
4.959999999999999964e+00
-2.458999999999999986e+01
-3.485999999999999943e+01
5.739999999999999858e+01
6.790000000000000036e+00
1.714999999999999858e+01
-3.410000000000000142e+01
-1.397000000000000064e+01
-1.676999999999999957e+01
-3.919999999999999929e+00
-2.019000000000000128e+01
-6.660999999999999943e+01
8.345999999999999375e+01
2.828999999999999915e+01
1.334999999999999964e+01
-1.356699999999999875e+02
1.372199999999999989e+02
2.096599999999999966e+02
-4.253399999999999750e+02
2.110500000000000114e+02
5.599999999999999645e+00
-4.123100000000000023e+02
2.050000000000000000e+01
-4.934000000000000341e+01
-1.509600000000000080e+02
1.793400000000000034e+02
1.146599999999999966e+02
7.620000000000000284e+01
-7.389999999999999680e+00
4.422999999999999687e+01
-7.432999999999999829e+01
-7.029000000000000625e+01
-1.085999999999999943e+01
-9.126999999999999602e+01
1.080000000000000071e+01
-1.455099999999999909e+02
-3.510000000000000000e+02
1.594499999999999886e+02
2.907699999999999818e+02
3.166700000000000159e+02
-6.507999999999999829e+01
7.268999999999999773e+01
-1.710000000000000142e+01
9.880000000000000782e+00
4.379999999999999893e+00
-1.394999999999999929e+01
-1.020000000000000018e+00
-1.491999999999999993e+01
-2.164000000000000057e+01
1.771999999999999886e+01
1.409999999999999920e+00
-2.021999999999999886e+01
3.506000000000000227e+01
-3.560000000000000053e+00
-3.489000000000000057e+01
-1.518999999999999950e+01
2.023000000000000043e+01
-9.480000000000000426e+00
-3.342000000000000171e+01
1.744000000000000128e+01
1.798999999999999844e+01
-4.919999999999999929e+00
4.480000000000000426e+00
1.488000000000000078e+01
3.270000000000000018e+00
-1.591999999999999993e+01
1.451999999999999957e+01
4.429999999999999716e+00
-1.448000000000000043e+01
-1.471000000000000085e+01
1.778999999999999915e+01
3.830000000000000071e+00
-1.814999999999999858e+01
1.376999999999999957e+01
9.619999999999999218e+00
-1.150999999999999979e+01
-1.425000000000000000e+01
1.051999999999999957e+01
-7.070000000000000284e+00
-1.290000000000000036e+01
4.690000000000000391e+00
6.799999999999999822e+00
-2.999999999999999889e-01
-6.679999999999999716e+00
5.769999999999999574e+00
4.699999999999999734e-01
-1.200999999999999979e+01
-7.419999999999999929e+00
1.466999999999999993e+01
-9.830000000000000071e+00
-9.820000000000000284e+00
1.177999999999999936e+01
8.710000000000000853e+00
-3.919999999999999929e+00
6.899999999999999467e-01
4.820000000000000284e+00
2.089999999999999858e+00
-4.299999999999999822e+00
9.000000000000000222e-01
-2.560000000000000053e+00
8.669999999999999929e+00
8.000000000000000444e-01
-9.130000000000000782e+00
-6.559999999999999609e+00
-8.100000000000000533e-01
1.150999999999999979e+01
7.179999999999999716e+00
-8.000000000000000000e+00
-1.403999999999999915e+01
9.320000000000000284e+00
1.000000000000000021e-02
-5.769999999999999574e+00
9.399999999999999467e-01
4.950000000000000178e+00
-1.969999999999999973e+00
-1.402999999999999936e+01
-2.379999999999999893e+00
1.447000000000000064e+01
6.330000000000000071e+00
4.419999999999999929e+00
-1.879999999999999893e+00
-8.439999999999999503e+00
-6.049999999999999822e+00
9.160000000000000142e+00
4.780000000000000249e+00
-7.019999999999999574e+00
-9.500000000000000000e+00
6.620000000000000107e+00
-9.200000000000000400e-01
-1.051999999999999957e+01
-3.209999999999999964e+00
-3.540000000000000036e+00
1.221000000000000085e+01
3.000000000000000000e+00
4.950000000000000178e+00
6.429999999999999716e+00
-1.101999999999999957e+01
-3.700000000000000178e+00
1.193999999999999950e+01
-3.569999999999999840e+00
-1.794999999999999929e+01
4.040000000000000036e+00
1.679999999999999938e+00
-1.040000000000000036e+00
-1.574000000000000021e+01
-8.269999999999999574e+00
-4.689999999999999858e+01
2.773999999999999844e+01
3.650999999999999801e+01
6.551999999999999602e+01
-4.000000000000000083e-02
-1.436999999999999922e+01
1.639999999999999858e+01
1.675000000000000000e+01
1.949999999999999956e+00
5.600000000000000533e-01
-1.540000000000000036e+00
-3.126000000000000156e+01
-2.569999999999999840e+00
2.867999999999999972e+01
7.399999999999999911e-01
-9.830000000000000071e+00
-1.233999999999999986e+01
-5.820000000000000284e+00
-4.540000000000000036e+00
-2.744000000000000128e+01
-2.180000000000000160e+00
3.885999999999999943e+01
-1.426999999999999957e+01
4.209999999999999964e+00
8.080000000000000071e+00
-1.299000000000000021e+01
-6.049000000000000199e+01
2.819999999999999840e+00
5.438000000000000256e+01
2.530999999999999872e+01
-1.000000000000000000e+01
-2.020000000000000018e+00
-7.299999999999999822e-01
-2.369000000000000128e+01
1.762000000000000099e+01
1.967999999999999972e+01
-4.540000000000000036e+00
1.520000000000000018e+00
1.459999999999999964e+01
-3.631000000000000227e+01
1.669999999999999929e+01
-1.669999999999999929e+00
1.692999999999999972e+01
3.839999999999999858e+00
-3.672999999999999687e+01
6.820000000000000284e+00
-1.235999999999999943e+01
6.049999999999999822e+00
-2.192999999999999972e+01
3.634000000000000341e+01
-3.489000000000000057e+01
-3.321999999999999886e+01
2.476999999999999957e+01
2.069999999999999929e+01
4.153000000000000114e+01
-3.046000000000000085e+01
-1.290000000000000036e+00
-5.530000000000000249e+00
1.063000000000000078e+01
9.119999999999999218e+00
-1.003999999999999915e+01
-8.740000000000000213e+00
2.357999999999999829e+01
-5.000000000000000000e-01
-8.460000000000000853e+00
-6.650000000000000355e+00
-3.430000000000000160e+00
9.509999999999999787e+00
-5.750000000000000000e+00
3.561999999999999744e+01
1.302999999999999936e+01
-5.950000000000000000e+01
5.230000000000000426e+00
1.600000000000000000e+01
-4.490000000000000213e+00
-7.080000000000000071e+00
1.905999999999999872e+01
1.933999999999999986e+01
-2.009999999999999787e+00
-4.121000000000000085e+01
-4.771000000000000085e+01
1.485999999999999943e+01
4.639999999999999680e+00
1.989999999999999858e+01
1.135999999999999943e+01
2.450000000000000178e+00
8.499999999999999778e-01
1.350000000000000000e+01
-4.519999999999999574e+00
-1.517999999999999972e+01
1.860999999999999943e+01
1.058000000000000007e+01
-1.015799999999999983e+02
2.229999999999999982e+00
1.396599999999999966e+02
-8.129000000000000625e+01
2.180999999999999872e+01
-1.669999999999999929e+00
1.073000000000000043e+01
-4.017000000000000171e+01
3.774000000000000199e+01
5.175999999999999801e+01
-1.483899999999999864e+02
9.457999999999999829e+01
-1.209999999999999964e+01
-5.070000000000000284e+00
1.004599999999999937e+02
-1.311100000000000136e+02
2.364000000000000057e+01
-9.000000000000000222e-01
1.391999999999999993e+01
5.053999999999999915e+01
-3.289000000000000057e+01
1.010000000000000009e+00
3.581000000000000227e+01
2.235000000000000142e+01
-1.352999999999999936e+01
-3.307999999999999829e+01
-8.449999999999999289e+00
-2.130000000000000071e+01
-4.928000000000000114e+01
2.296000000000000085e+01
8.026000000000000512e+01
-1.388499999999999943e+02
-1.573000000000000043e+01
9.650000000000000355e+00
-6.049999999999999822e+00
-6.320000000000000284e+00
1.821999999999999886e+01
8.869999999999999218e+00
-4.515999999999999659e+01
-2.273999999999999844e+01
4.239000000000000057e+01
3.164999999999999858e+01
-1.264000000000000057e+01
-3.009999999999999787e+00
-1.508000000000000007e+01
-1.092999999999999972e+01
-4.753999999999999915e+01
1.519999999999999929e+01
1.370000000000000107e+00
-4.599999999999999645e+00
-2.250000000000000000e+00
1.750000000000000000e+00
-1.919999999999999929e+00
-1.293999999999999950e+01
7.000000000000000000e+00
6.293999999999999773e+01
1.610000000000000142e+01
-1.758999999999999986e+01
2.620000000000000107e+00
-2.071999999999999886e+01
-2.539999999999999858e+01
7.009999999999999787e+00
9.300000000000000711e+00
-1.139000000000000057e+01
-1.502999999999999936e+01
7.129999999999999893e+00
1.273000000000000043e+01
-1.907000000000000028e+01
-6.330000000000000071e+00
1.133999999999999986e+01
-8.960000000000000853e+00
-1.932999999999999829e+01
1.646999999999999886e+01
3.149999999999999911e+00
-2.812000000000000099e+01
-2.457999999999999829e+01
7.796999999999999886e+01
4.370000000000000284e+01
-2.005000000000000071e+01
-5.014000000000000057e+01
6.496999999999999886e+01
1.381000000000000050e+01
-4.935000000000000142e+01
2.403999999999999915e+01
-4.719999999999999751e+00
-8.929999999999999716e+00
8.669999999999999929e+00
7.759999999999999787e+00
-1.533999999999999986e+01
-2.353999999999999915e+01
4.292000000000000171e+01
2.860000000000000142e+01
-3.250999999999999801e+01
-3.949000000000000199e+01
5.790000000000000036e+00
-4.990000000000000213e+00
-8.929999999999999716e+00
-8.710000000000000853e+00
2.730000000000000071e+01
6.979999999999999716e+01
1.040900000000000034e+02
-7.687999999999999545e+01
-2.703000000000000114e+01
-6.550000000000000000e+01
-1.582899999999999920e+02
4.482000000000000028e+01
1.223000000000000043e+01
8.223000000000000398e+01
9.465999999999999659e+01
-4.059000000000000341e+01
-9.231000000000000227e+01
5.975000000000000000e+01
7.018000000000000682e+01
-3.005000000000000071e+01
-2.798999999999999844e+01
-1.193999999999999950e+01
-5.059999999999999609e+00
-3.192999999999999972e+01
4.628000000000000114e+01
1.090000000000000080e+00
-1.964999999999999858e+01
-1.678000000000000114e+01
-2.242999999999999972e+01
3.800000000000000000e+01
9.301999999999999602e+01
-6.450000000000000000e+01
-3.132000000000000028e+01
7.750000000000000000e+00
6.879999999999999893e+00
-6.080000000000000071e+00
-5.709999999999999964e+00
-4.299999999999999933e-01
6.780000000000000249e+00
-3.720000000000000195e+00
-8.710000000000000853e+00
9.570000000000000284e+00
-1.019999999999999929e+01
-1.223000000000000043e+01
1.320000000000000062e+00
-2.221999999999999886e+01
-6.787000000000000455e+01
6.360999999999999943e+01
3.282000000000000028e+01
7.199999999999999734e-01
-6.620000000000000107e+00
2.387000000000000099e+01
3.040000000000000036e+00
-3.144000000000000128e+01
3.697999999999999687e+01
1.580000000000000071e+00
-1.830000000000000071e+01
-1.964999999999999858e+01
-9.609999999999999432e+00
2.598000000000000043e+01
7.437999999999999545e+01
-2.253999999999999915e+01
-3.864000000000000057e+01
-4.315999999999999659e+01
8.279999999999999361e+00
-9.269999999999999574e+00
1.600000000000000000e+01
3.990000000000000213e+00
-7.019999999999999574e+00
-4.145000000000000284e+01
-3.520000000000000284e+01
4.663000000000000256e+01
5.239999999999999858e+01
-1.808999999999999986e+01
-6.709999999999999964e+00
6.509999999999999787e+00
-1.846999999999999886e+01
1.719999999999999929e+01
1.051999999999999957e+01
-4.599999999999999645e+00
-2.716000000000000014e+01
1.617999999999999972e+01
5.209999999999999964e+00
-7.980000000000000426e+00
1.770000000000000018e+00
9.769999999999999574e+00
-2.629999999999999893e+00
-2.137999999999999901e+01
1.041000000000000014e+01
8.949999999999999289e+00
-2.629999999999999893e+00
-9.750000000000000000e+00
2.471999999999999886e+01
6.929999999999999716e+00
-1.796999999999999886e+01
-4.260999999999999943e+01
3.875000000000000000e+01
-7.599999999999999645e+00
-3.635999999999999943e+01
3.928999999999999915e+01
5.756000000000000227e+01
-2.380999999999999872e+01
-4.061999999999999744e+01
-3.450000000000000178e+00
-6.019999999999999574e+00
-4.872999999999999687e+01
2.608999999999999986e+01
9.728000000000000114e+01
-6.157000000000000028e+01
-9.060000000000000497e+00
3.982000000000000028e+01
6.429999999999999716e+00
-7.019999999999999574e+00
-1.209999999999999964e+01
1.959999999999999964e+00
-2.649999999999999911e+00
-4.400000000000000000e+01
6.481999999999999318e+01
-3.761999999999999744e+01
-3.822999999999999687e+01
3.453999999999999915e+01
6.953000000000000114e+01
5.209999999999999964e+00
-6.420999999999999375e+01
-1.043100000000000023e+02
1.019200000000000017e+02
4.632000000000000028e+01
-5.832999999999999829e+01
2.907000000000000028e+01
5.435000000000000142e+01
7.543999999999999773e+01
-1.239000000000000057e+01
-1.400600000000000023e+02
1.516000000000000014e+01
7.787000000000000455e+01
-6.637000000000000455e+01
7.059999999999999432e+01
-9.520000000000000284e+01
-3.963000000000000256e+01
7.435999999999999943e+01
-2.882999999999999829e+01
-3.046999999999999886e+01
6.817000000000000171e+01
-2.049999999999999822e+00
-1.344799999999999898e+02
1.839000000000000057e+01
1.395200000000000102e+02
1.117900000000000063e+02
-1.482500000000000000e+02
-6.388000000000000256e+01
8.359000000000000341e+01
-2.605000000000000071e+01
1.832999999999999829e+01
4.442999999999999972e+01
-8.380000000000000782e+00
-8.419999999999999929e+00
-1.964999999999999858e+01
-1.165000000000000036e+01
-5.536999999999999744e+01
-6.128000000000000114e+01
5.378999999999999915e+01
2.296999999999999886e+01
7.581999999999999318e+01
-6.542000000000000171e+01
1.827700000000000102e+02
-7.926999999999999602e+01
-5.192000000000000171e+01
-4.317999999999999972e+01
-1.158700000000000045e+02
1.641399999999999864e+02
3.306600000000000250e+02
4.807000000000000028e+01
-3.014399999999999977e+02
-8.004999999999999716e+01
-3.175199999999999818e+02
2.040800000000000125e+02
6.956999999999999318e+01
7.506999999999999318e+01
-1.510099999999999909e+02
-6.534000000000000341e+01
5.410999999999999943e+01
-2.337999999999999901e+01
1.434600000000000080e+02
-9.273999999999999488e+01
-2.028999999999999915e+01
-1.465000000000000036e+01
1.660999999999999943e+02
-6.809000000000000341e+01
4.603000000000000114e+01
1.303999999999999915e+01
-5.139999999999999680e+00
-6.818000000000000682e+01
-3.087999999999999901e+01
-3.881000000000000227e+01
-2.033999999999999986e+01
1.133599999999999994e+02
-8.775000000000000000e+01
1.063700000000000045e+02
-1.942299999999999898e+02
1.150000000000000000e+02
-3.603999999999999915e+01
-4.220000000000000284e+01
5.775000000000000000e+01
1.735099999999999909e+02
-5.374000000000000199e+01
-7.137000000000000455e+01
-5.788000000000000256e+01
7.219999999999999751e+00
1.064800000000000040e+02
-1.158999999999999986e+01
3.879999999999999716e+01
6.328999999999999915e+01
-1.726000000000000156e+01
8.531999999999999318e+01
-2.216000000000000014e+01
-2.841000000000000014e+01
-2.837000000000000099e+01
2.328000000000000114e+01
1.067600000000000051e+02
1.630699999999999932e+02
-7.843000000000000682e+01
-1.607000000000000028e+01
-3.359300000000000068e+02
4.552799999999999727e+02
-2.053499999999999943e+02
-2.872200000000000273e+02
2.251299999999999955e+02
-2.014999999999999858e+01
-2.214999999999999858e+01
-2.061999999999999886e+02
2.630600000000000023e+02
-9.440000000000000568e+01
-9.650000000000000355e+00
1.850000000000000089e+00
-2.203000000000000114e+01
2.775000000000000000e+01
-2.235000000000000142e+01
-1.967000000000000171e+01
3.321000000000000085e+01
3.039000000000000057e+01
-2.710000000000000142e+01
5.200000000000000178e+00
1.000999999999999979e+01
-8.250000000000000000e+00
7.429999999999999716e+00
1.383000000000000007e+01
-2.500000000000000000e+00
-3.861999999999999744e+01
-3.460999999999999943e+01
-5.228000000000000114e+01
3.731600000000000250e+02
-3.103299999999999841e+02
-7.323999999999999488e+01
-3.564999999999999858e+01
-2.039999999999999858e+01
4.457000000000000028e+01
-5.132999999999999829e+01
-3.920000000000000284e+01
1.857000000000000028e+01
-4.099999999999999756e-01
-2.926000000000000156e+01
2.258999999999999986e+01
-8.729999999999999716e+01
6.804000000000000625e+01
5.036999999999999744e+01
3.959999999999999964e+00
-1.732000000000000028e+01
2.026000000000000156e+01
1.780999999999999872e+01
6.780000000000000249e+00
-1.807999999999999829e+01
-2.751999999999999957e+01
-2.226999999999999957e+01
-1.100000000000000006e-01
1.982000000000000028e+01
5.639999999999999680e+00
-9.269999999999999574e+00
-1.371000000000000085e+01
3.478999999999999915e+01
2.537000000000000099e+01
-4.517999999999999972e+01
7.519999999999999574e+00
-5.349999999999999645e+00
-1.159999999999999964e+01
1.132000000000000028e+01
6.790000000000000036e+00
-1.292999999999999972e+01
-1.941000000000000014e+01
-3.640000000000000124e+00
6.309999999999999609e+00
-3.546000000000000085e+01
3.553999999999999915e+01
1.505000000000000071e+01
-1.023000000000000043e+01
4.290000000000000036e+00
7.399999999999999911e-01
-2.937000000000000099e+01
1.297000000000000064e+01
7.849999999999999645e+00
5.539999999999999858e+01
-2.514000000000000057e+01
-6.339999999999999858e+00
3.649999999999999911e+00
-7.290000000000000036e+00
1.879999999999999893e+00
1.064000000000000057e+01
-1.889999999999999902e+00
-1.864999999999999858e+01
8.250000000000000000e+00
3.450000000000000178e+00
-1.375000000000000000e+01
-4.620000000000000107e+00
-7.151999999999999602e+01
5.678000000000000114e+01
1.246000000000000085e+01
8.859999999999999432e+00
-8.160000000000000142e+00
-2.798000000000000043e+01
-4.279999999999999716e+01
3.171000000000000085e+01
1.146000000000000085e+01
2.071999999999999886e+01
3.040000000000000036e+00
-3.900000000000000133e-01
-1.385999999999999943e+01
5.280000000000000249e+00
-9.189999999999999503e+00
1.896000000000000085e+01
-3.985000000000000142e+01
1.511999999999999922e+01
1.402999999999999936e+01
8.300000000000000711e+00
-2.364999999999999858e+01
-2.564000000000000057e+01
-2.421999999999999886e+01
4.492999999999999972e+01
-7.589999999999999858e+00
-7.800000000000000266e-01
-4.059999999999999609e+00
7.309999999999999609e+00
-2.862999999999999901e+01
1.584999999999999964e+01
3.580000000000000071e+00
2.799999999999999822e+00
6.759999999999999787e+00
8.130000000000000782e+00
4.650000000000000355e+00
1.518999999999999950e+01
1.022000000000000064e+01
-1.826999999999999957e+01
1.710999999999999943e+01
-2.951000000000000156e+01
-1.368999999999999950e+01
-1.511999999999999922e+01
9.279999999999999361e+00
8.599999999999999867e-01
-4.809999999999999609e+00
1.907000000000000028e+01
-2.080000000000000071e+00
-1.671999999999999886e+01
-1.198000000000000043e+01
7.099999999999999645e-01
-2.259999999999999787e+00
-3.503000000000000114e+01
1.648999999999999844e+01
4.660000000000000142e+00
-6.950000000000000178e+00
1.828999999999999915e+01
1.050999999999999979e+01
3.850000000000000089e+00
2.726000000000000156e+01
1.571000000000000085e+01
-1.533999999999999986e+01
-1.814999999999999858e+01
-4.940000000000000391e+00
-3.979999999999999982e+00
-2.628999999999999915e+01
1.948000000000000043e+01
4.929999999999999716e+00
-1.388000000000000078e+01
-5.049999999999999822e+00
-1.013000000000000078e+01
2.000000000000000042e-02
-3.399999999999999911e+00
1.210999999999999943e+01
3.800000000000000044e-01
-1.316000000000000014e+01
1.916000000000000014e+01
1.136999999999999922e+01
-2.358999999999999986e+01
-3.507000000000000028e+01
3.704999999999999716e+01
4.024000000000000199e+01
-2.273999999999999844e+01
-1.457000000000000028e+01
-1.969999999999999973e+00
-8.679999999999999716e+00
6.429999999999999716e+00
-1.175999999999999979e+01
-2.817000000000000171e+01
1.266999999999999993e+01
1.474000000000000021e+01
-9.009999999999999787e+00
6.064000000000000057e+01
4.669999999999999929e+00
-1.794000000000000128e+01
-1.050000000000000000e+01
2.064999999999999858e+01
-5.259999999999999787e+00
-7.676000000000000512e+01
6.565999999999999659e+01
1.500999999999999979e+01
-4.931000000000000227e+01
5.335000000000000142e+01
-2.953999999999999915e+01
-3.064999999999999858e+01
1.112099999999999937e+02
-2.580000000000000071e+00
-7.439000000000000057e+01
-6.534999999999999432e+01
1.719999999999999929e+01
1.619999999999999929e+01
-3.091000000000000014e+01
5.240000000000000213e+00
1.735999999999999943e+01
-6.709999999999999964e+00
-2.959999999999999964e+00
-8.499999999999999778e-01
-4.328999999999999915e+01
1.063000000000000078e+01
1.653000000000000114e+01
1.475000000000000000e+01
-4.989000000000000057e+01
6.228000000000000114e+01
-4.486999999999999744e+01
3.232999999999999829e+01
-5.146999999999999886e+01
4.050000000000000000e+01
-1.066000000000000014e+01
-2.450000000000000000e+01
9.710000000000000853e+00
-3.647999999999999687e+01
4.854999999999999716e+01
-1.333000000000000007e+01
1.364000000000000057e+01
3.392000000000000171e+01
-6.868999999999999773e+01
6.967000000000000171e+01
2.164000000000000057e+01
-4.889999999999999858e+01
-2.096000000000000085e+01
1.475999999999999979e+01
-8.800000000000000044e-01
-2.760000000000000142e+01
-2.435000000000000142e+01
5.986999999999999744e+01
-1.244999999999999929e+01
3.460000000000000142e+01
-3.742000000000000171e+01
5.913000000000000256e+01
-8.390000000000000568e+00
-2.323000000000000043e+01
-6.860000000000000320e+00
-1.396000000000000085e+01
1.225000000000000000e+01
2.759999999999999787e+00
-5.332999999999999829e+01
7.304000000000000625e+01
-3.668999999999999773e+01
7.110999999999999943e+01
-6.260999999999999943e+01
2.858999999999999986e+01
2.991000000000000014e+01
-3.432000000000000028e+01
-3.674000000000000199e+01
2.064000000000000057e+01
1.328999999999999915e+01
-8.570000000000000284e+00
-1.800000000000000000e+01
-4.209999999999999964e+00
3.604999999999999716e+01
-3.896000000000000085e+01
5.157999999999999829e+01
-2.508999999999999986e+01
-5.959999999999999964e+00
1.115000000000000036e+01
-2.314000000000000057e+01
2.689999999999999947e+00
-2.353999999999999915e+01
7.980000000000000426e+00
-2.214000000000000057e+01
4.035999999999999943e+01
-5.467000000000000171e+01
3.360000000000000142e+01
3.203999999999999915e+01
-1.633999999999999986e+01
7.814000000000000057e+01
-2.978000000000000114e+01
-7.900000000000000355e-01
2.001999999999999957e+01
-4.717999999999999972e+01
4.709000000000000341e+01
-8.900000000000000133e-01
1.455000000000000071e+01
-1.050999999999999979e+01
-6.596999999999999886e+01
2.644000000000000128e+01
2.367000000000000171e+01
2.919000000000000128e+01
-1.837000000000000099e+01
-5.440000000000000391e+00
2.342999999999999972e+01
-1.540000000000000036e+01
-2.416000000000000014e+01
6.219999999999999751e+00
-3.071999999999999886e+01
-1.962999999999999901e+01
2.451999999999999957e+01
-1.516000000000000014e+01
-1.483000000000000007e+01
7.070000000000000284e+00
9.269999999999999574e+00
-6.200000000000000178e+00
-5.500000000000000000e+00
1.514000000000000057e+01
1.939999999999999947e+00
-4.150000000000000355e+00
1.378999999999999915e+01
1.118999999999999950e+01
-9.980000000000000426e+00
-5.500000000000000000e+00
4.690000000000000391e+00
-8.939999999999999503e+00
-1.461999999999999922e+01
1.128999999999999915e+01
1.014000000000000057e+01
-8.400000000000000355e+00
2.490000000000000213e+00
9.699999999999999289e+00
-1.176999999999999957e+01
-1.937000000000000099e+01
1.623000000000000043e+01
2.996000000000000085e+01
-1.967000000000000171e+01
-2.992999999999999972e+01
3.109999999999999876e+00
-4.629999999999999893e+00
-1.193999999999999950e+01
2.517999999999999972e+01
1.025999999999999979e+01
-7.419999999999999929e+00
-4.900000000000000355e+00
7.290000000000000036e+00
-4.169999999999999929e+00
-8.730000000000000426e+00
4.346000000000000085e+01
1.216400000000000006e+02
4.700000000000000178e+00
-7.887999999999999545e+01
-8.084000000000000341e+01
-1.322500000000000000e+02
-3.317999999999999972e+01
1.608999999999999986e+01
-1.662000000000000099e+01
-1.800000000000000044e+00
9.362000000000000455e+01
5.021999999999999886e+01
-6.610000000000000320e+00
-2.523000000000000043e+01
-5.500000000000000000e+00
-1.033999999999999986e+01
-5.379999999999999893e+00
4.328999999999999915e+01
-1.375000000000000000e+01
-2.532000000000000028e+01
5.911999999999999744e+01
-3.950999999999999801e+01
4.478999999999999915e+01
-1.589000000000000057e+01
-8.209000000000000341e+01
7.549999999999999822e+00
-5.782000000000000028e+01
6.493999999999999773e+01
2.212000000000000099e+01
-1.316000000000000014e+01
1.862000000000000099e+01
7.009999999999999787e+00
-2.716000000000000014e+01
1.607000000000000028e+01
-1.370000000000000107e+00
-1.466999999999999993e+01
4.639999999999999680e+00
1.394999999999999929e+01
-9.289999999999999147e+00
-2.975000000000000000e+01
2.355000000000000071e+01
8.679999999999999716e+00
-1.790000000000000036e+00
-4.799999999999999822e+00
7.459999999999999964e+00
-4.120000000000000107e+00
-1.558999999999999986e+01
2.089999999999999858e+00
2.399999999999999911e+00
3.270000000000000018e+00
8.830000000000000071e+00
1.090000000000000080e+00
-1.667000000000000171e+01
-2.216000000000000014e+01
3.008999999999999986e+01
-1.383999999999999986e+01
-1.380000000000000071e+01
-8.399999999999999689e-01
1.130000000000000071e+01
5.879999999999999893e+00
-1.218999999999999950e+01
-6.280000000000000249e+00
7.750000000000000000e+00
2.660000000000000142e+00
8.240000000000000213e+00
6.759999999999999787e+00
-6.830000000000000071e+00
-6.980000000000000426e+00
-1.703000000000000114e+01
6.209999999999999964e+00
-3.040000000000000036e+00
7.790000000000000036e+00
-2.540000000000000036e+00
9.619999999999999218e+00
-1.264000000000000057e+01
-1.351999999999999957e+01
2.007000000000000028e+01
6.690000000000000391e+00
-5.480000000000000426e+00
-2.067000000000000171e+01
9.980000000000000426e+00
4.679999999999999716e+00
-7.129999999999999893e+00
5.699999999999999512e-01
5.000000000000000000e-01
4.309999999999999609e+00
-1.167999999999999972e+01
1.161999999999999922e+01
1.673999999999999844e+01
-1.024000000000000021e+01
-1.983999999999999986e+01
6.309999999999999609e+00
-4.000000000000000083e-02
-3.430000000000000160e+00
-1.729999999999999982e+00
1.080000000000000071e+01
8.289999999999999147e+00
-1.234999999999999964e+01
-7.549999999999999822e+00
-2.207000000000000028e+01
4.231000000000000227e+01
-2.155000000000000071e+01
1.119999999999999929e+01
2.720000000000000195e+00
-5.300000000000000266e-01
9.830000000000000071e+00
1.083000000000000007e+01
5.600000000000000533e-01
-2.887999999999999901e+01
3.959999999999999964e+00
1.243999999999999950e+01
-1.109999999999999964e+01
-8.900000000000000355e+00
9.609999999999999432e+00
3.410000000000000142e+00
-1.837000000000000099e+01
1.260000000000000009e+00
1.353999999999999915e+01
2.240000000000000213e+00
-1.088000000000000078e+01
-1.800000000000000044e+00
1.353999999999999915e+01
5.290000000000000036e+00
1.409999999999999920e+00
2.000000000000000000e+00
1.039000000000000057e+01
1.853000000000000114e+01
-4.997999999999999687e+01
-1.770000000000000018e+00
-2.837999999999999901e+01
1.976999999999999957e+01
2.142000000000000171e+01
1.409999999999999920e+00
7.610000000000000320e+00
-7.969999999999999751e+00
2.371000000000000085e+01
-9.310000000000000497e+00
-5.459000000000000341e+01
-3.532000000000000028e+01
1.141800000000000068e+02
-1.328999999999999915e+01
-7.537000000000000455e+01
-1.723999999999999844e+01
1.340000000000000080e+00
1.257000000000000028e+01
-1.039000000000000057e+01
-1.025000000000000000e+01
8.119999999999999218e+00
-6.626000000000000512e+01
5.395000000000000284e+01
2.655999999999999872e+01
-3.627000000000000313e+01
-4.238000000000000256e+01
2.146000000000000085e+01
5.968999999999999773e+01
-5.761999999999999744e+01
5.190999999999999659e+01
3.671999999999999886e+01
-2.617999999999999972e+01
-8.576000000000000512e+01
9.573999999999999488e+01
-3.414000000000000057e+01
6.332999999999999829e+01
1.278999999999999915e+01
-4.230000000000000426e+00
1.830000000000000071e+01
1.384999999999999964e+01
6.850000000000000000e+01
-5.065999999999999659e+01
-1.841000000000000014e+01
-6.799999999999999822e+00
-4.089999999999999858e+00
1.400000000000000133e-01
-2.660000000000000142e+01
4.847999999999999687e+01
-2.423000000000000043e+01
-1.250000000000000000e+00
4.110999999999999943e+01
-2.230000000000000071e+01
1.136999999999999922e+01
-3.996000000000000085e+01
5.928999999999999915e+01
4.009999999999999787e+00
1.957000000000000028e+01
-6.585999999999999943e+01
1.093999999999999950e+01
-1.130000000000000071e+01
-1.100000000000000006e-01
-1.409999999999999964e+01
9.980000000000000426e+00
5.100000000000000089e-01
-6.300000000000000044e-01
-1.233999999999999986e+01
8.339999999999999858e+00
-3.529999999999999805e+00
-2.469999999999999929e+01
9.369999999999999218e+00
1.607999999999999829e+01
-3.020000000000000018e+00
-1.496000000000000085e+01
2.194999999999999929e+01
5.660000000000000142e+00
-9.330000000000000071e+00
-2.510999999999999943e+01
1.376999999999999957e+01
9.109999999999999432e+00
-5.450000000000000178e+00
7.490000000000000213e+00
8.519999999999999574e+00
5.600000000000000533e-01
-1.603000000000000114e+01
1.125000000000000000e+01
3.100000000000000089e+00
-1.550000000000000044e+00
-7.030000000000000249e+00
1.422000000000000064e+01
-2.339999999999999858e+00
-9.429999999999999716e+00
-5.799999999999999822e+00
1.002999999999999936e+01
-1.635999999999999943e+01
-6.059999999999999609e+00
1.190000000000000036e+01
5.309999999999999609e+00
1.900000000000000022e-01
-1.497000000000000064e+01
6.580000000000000071e+00
-1.081000000000000050e+01
4.269999999999999574e+00
3.256000000000000227e+01
-5.440000000000000391e+00
-2.167999999999999972e+01
-1.241000000000000014e+01
-8.669999999999999929e+00
1.167999999999999972e+01
9.699999999999999289e+00
-2.762999999999999901e+01
1.211999999999999922e+01
2.029999999999999805e+00
-1.426999999999999957e+01
2.689999999999999947e+00
2.764999999999999858e+01
1.372000000000000064e+01
-1.141000000000000014e+01
7.679999999999999716e+00
1.297000000000000064e+01
-9.730000000000000426e+00
-1.817000000000000171e+01
1.101999999999999957e+01
-0.000000000000000000e+00
-1.739000000000000057e+01
5.830000000000000071e+00
1.280000000000000071e+01
1.380000000000000071e+01
-3.035000000000000142e+01
4.900000000000000355e+00
1.550000000000000044e+00
-2.899999999999999911e+00
1.735999999999999943e+01
9.060000000000000497e+00
-1.235999999999999943e+01
-3.042000000000000171e+01
1.735999999999999943e+01
1.399999999999999911e+00
-9.859999999999999432e+00
-1.560000000000000053e+00
2.103000000000000114e+01
5.379999999999999893e+00
-1.948999999999999844e+01
6.440000000000000391e+00
-1.719999999999999973e+00
-1.892000000000000171e+01
1.266999999999999993e+01
1.764999999999999858e+01
-5.230000000000000426e+00
-1.198000000000000043e+01
1.969999999999999929e+01
-5.490000000000000213e+00
-2.030000000000000071e+01
1.583999999999999986e+01
1.114000000000000057e+01
-6.549999999999999822e+00
-1.748000000000000043e+01
6.900000000000000355e+00
-4.030000000000000249e+00
-1.723000000000000043e+01
1.088000000000000078e+01
1.717000000000000171e+01
-3.850000000000000089e+00
-1.889999999999999858e+01
1.350999999999999979e+01
6.709999999999999964e+00
-1.193999999999999950e+01
2.085999999999999943e+01
-4.849999999999999645e+00
-1.457000000000000028e+01
-1.905000000000000071e+01
1.000000000000000000e+01
9.679999999999999716e+00
-1.203999999999999915e+01
4.650000000000000355e+00
3.149999999999999911e+00
8.869999999999999218e+00
-1.651000000000000156e+01
1.172000000000000064e+01
2.580000000000000071e+00
-2.144999999999999929e+01
1.097000000000000064e+01
1.433000000000000007e+01
-1.409999999999999920e+00
-1.969000000000000128e+01
1.288000000000000078e+01
1.179999999999999938e+00
-9.300000000000000711e+00
8.480000000000000426e+00
4.400000000000000355e+00
-3.040000000000000036e+00
-1.447000000000000064e+01
1.280000000000000071e+01
1.409999999999999920e+00
-1.332000000000000028e+01
1.603999999999999915e+01
7.750000000000000000e+00
-6.650000000000000355e+00
-1.034999999999999964e+01
1.019999999999999929e+01
7.769999999999999574e+00
-2.316000000000000014e+01
1.408999999999999986e+01
6.469999999999999751e+00
-6.190000000000000391e+00
-7.540000000000000036e+00
1.543999999999999950e+01
2.879999999999999893e+00
-3.767000000000000171e+01
-1.757999999999999829e+01
1.571000000000000085e+01
2.789000000000000057e+01
1.705000000000000071e+01
7.870000000000000107e+00
2.319999999999999840e+00
-1.457000000000000028e+01
2.487999999999999901e+01
3.569999999999999840e+00
2.237000000000000099e+01
-2.414999999999999858e+01
-3.814999999999999858e+01
-1.384999999999999964e+01
-1.306000000000000050e+01
1.443999999999999950e+01
3.319999999999999840e+00
7.639999999999999680e+00
7.589999999999999858e+00
-1.692999999999999972e+01
-2.714999999999999858e+01
1.844999999999999929e+01
1.058000000000000007e+01
-7.360000000000000320e+00
1.046000000000000085e+01
5.360000000000000320e+00
-1.680999999999999872e+01
1.131000000000000050e+01
-3.490000000000000213e+00
-8.160000000000000142e+00
3.709999999999999964e+00
-1.844000000000000128e+01
1.396000000000000085e+01
-1.028999999999999915e+01
-3.470000000000000195e+00
4.007999999999999829e+01
-5.300000000000000266e-01
-6.580000000000000071e+00
8.220000000000000639e+00
-2.950000000000000178e+00
1.570000000000000062e+00
3.875999999999999801e+01
-2.821999999999999886e+01
-4.235999999999999943e+01
2.805999999999999872e+01
-3.970000000000000195e+00
-1.605000000000000071e+01
-5.519999999999999574e+00
3.890000000000000124e+00
-8.500000000000000000e+00
-2.064999999999999858e+01
7.329000000000000625e+01
-4.707999999999999829e+01
4.969999999999999751e+00
-4.185000000000000142e+01
1.044500000000000028e+02
-5.000999999999999801e+01
4.242000000000000171e+01
1.941000000000000014e+01
-3.155000000000000071e+01
-3.285000000000000142e+01
-1.242999999999999972e+01
-8.740000000000000213e+00
-2.667999999999999972e+01
4.054999999999999716e+01
2.341000000000000014e+01
1.127999999999999936e+01
-1.719999999999999929e+01
1.511999999999999922e+01
-1.469999999999999929e+01
-4.019999999999999574e+00
-2.294000000000000128e+01
2.976000000000000156e+01
-2.229999999999999982e+00
-2.700000000000000178e-01
-4.280000000000000249e+00
-4.230000000000000426e+00
-5.580000000000000071e+00
-4.660999999999999943e+01
3.400999999999999801e+01
1.929999999999999938e+00
7.000000000000000666e-02
5.999999999999999778e-01
-8.199999999999999512e-01
-1.789000000000000057e+01
-4.000000000000000222e-01
2.826999999999999957e+01
-3.592999999999999972e+01
4.925000000000000000e+01
-9.560000000000000497e+00
-2.873000000000000043e+01
-2.209999999999999964e+00
2.510999999999999943e+01
-1.148000000000000043e+01
-9.237999999999999545e+01
1.721299999999999955e+02
-3.400999999999999801e+01
1.393999999999999950e+01
-1.393999999999999950e+01
7.334999999999999432e+01
-7.026000000000000512e+01
1.011999999999999922e+01
3.830000000000000071e+00
-9.060000000000000497e+00
-3.563000000000000256e+01
4.245000000000000284e+01
1.488000000000000078e+01
-9.060000000000000497e+00
-5.589999999999999858e+00
-2.759999999999999787e+00
-2.371999999999999886e+01
-1.867999999999999972e+01
2.135000000000000142e+01
8.359999999999999432e+00
-2.003000000000000114e+01
-5.580000000000000071e+00
1.959999999999999964e+00
2.891000000000000014e+01
-1.675000000000000000e+01
-1.426999999999999957e+01
-4.070000000000000284e+00
1.300000000000000044e-01
2.935000000000000142e+01
1.391999999999999993e+01
-1.814000000000000057e+01
-1.371000000000000085e+01
1.199000000000000021e+01
7.650000000000000355e+00
-3.064999999999999858e+01
-6.968999999999999773e+01
8.037999999999999545e+01
1.425999999999999979e+01
2.921000000000000085e+01
-7.650000000000000355e+00
-1.787999999999999901e+01
-1.059999999999999964e+01
7.523999999999999488e+01
-6.781999999999999318e+01
-4.468999999999999773e+01
1.328999999999999915e+01
8.869999999999999218e+00
-5.935999999999999943e+01
1.960000000000000142e+01
3.119999999999999929e+01
1.183999999999999986e+01
-4.019999999999999574e+00
1.351999999999999957e+01
-1.739999999999999991e+00
-1.431000000000000050e+01
1.683999999999999986e+01
6.000000000000000000e+00
-1.365000000000000036e+01
1.397000000000000064e+01
3.430000000000000160e+00
-1.434999999999999964e+01
3.200000000000000178e+00
5.107999999999999829e+01
1.230000000000000071e+01
-4.182000000000000028e+01
-6.320000000000000284e+00
-1.350999999999999979e+01
9.529999999999999361e+00
5.267000000000000171e+01
-9.039999999999999147e+00
-2.462000000000000099e+01
-1.953000000000000114e+01
1.685000000000000142e+01
-6.806999999999999318e+01
4.188000000000000256e+01
3.809000000000000341e+01
-1.501999999999999957e+01
-2.426000000000000156e+01
-1.179999999999999938e+00
2.092000000000000171e+01
1.113000000000000078e+01
-1.870000000000000107e+00
1.065000000000000036e+01
-1.023000000000000043e+01
-5.317000000000000171e+01
-2.176999999999999957e+01
6.631000000000000227e+01
1.646000000000000085e+01
7.900000000000000355e+00
-8.109999999999999432e+00
-7.519999999999999574e+00
-2.387000000000000099e+01
1.929999999999999938e+00
-9.699999999999999734e-01
-2.298999999999999844e+01
-1.479999999999999982e+00
5.328000000000000114e+01
-3.035999999999999943e+01
5.059999999999999609e+00
2.869999999999999929e+01
-1.646000000000000085e+01
-2.617999999999999972e+01
9.830000000000000071e+00
4.719999999999999751e+00
-1.610000000000000142e+01
-4.809999999999999609e+00
2.330000000000000071e+01
-1.414000000000000057e+01
2.000000000000000042e-02
1.698999999999999844e+01
-2.478999999999999915e+01
6.385999999999999943e+01
1.848999999999999844e+01
-2.201000000000000156e+01
-7.150000000000000355e+00
-3.620000000000000284e+01
1.830000000000000071e+01
-8.029999999999999361e+00
-1.921000000000000085e+01
2.555999999999999872e+01
1.209999999999999964e+01
-5.440000000000000391e+00
2.182000000000000028e+01
-5.750000000000000000e+00
-1.260999999999999943e+01
-3.793999999999999773e+01
3.571999999999999886e+01
-8.310000000000000497e+00
-1.151999999999999957e+01
5.480000000000000426e+00
7.299999999999999822e+00
2.740000000000000213e+00
-2.144000000000000128e+01
8.050000000000000711e+00
1.750000000000000000e+00
8.100000000000000533e-01
1.317999999999999972e+01
9.320000000000000284e+00
5.200000000000000178e-01
-2.203999999999999915e+01
4.900000000000000355e+00
-1.450999999999999979e+01
-1.284999999999999964e+01
1.559999999999999964e+01
1.210999999999999943e+01
-1.100000000000000000e+01
-1.773999999999999844e+01
8.869999999999999218e+00
1.673000000000000043e+01
7.299999999999999822e-01
-1.053999999999999915e+01
-5.959999999999999964e+00
5.238000000000000256e+01
-1.887000000000000099e+01
2.029999999999999805e+00
-2.103000000000000114e+01
-5.099999999999999645e+00
2.810999999999999943e+01
1.689999999999999947e+00
-1.889999999999999858e+01
-1.941000000000000014e+01
1.550999999999999979e+01
7.030000000000000249e+00
-1.135999999999999943e+01
2.770000000000000018e+00
3.620000000000000107e+00
2.430999999999999872e+01
-2.810999999999999943e+01
-6.179999999999999716e+00
1.440000000000000036e+01
-5.549999999999999822e+00
1.053999999999999915e+01
9.099999999999999645e+00
-2.769999999999999929e+01
4.639999999999999680e+00
1.216000000000000014e+01
-6.120000000000000107e+00
-6.990000000000000213e+00
2.248999999999999844e+01
7.809999999999999609e+00
-2.666000000000000014e+01
7.459999999999999964e+00
9.710000000000000853e+00
-2.900000000000000000e+01
-1.281000000000000050e+01
8.284999999999999432e+01
-3.935000000000000142e+01
2.149999999999999911e+00
1.423000000000000043e+01
-1.946000000000000085e+01
1.292999999999999972e+01
6.887999999999999545e+01
-8.443999999999999773e+01
2.085000000000000142e+01
2.600000000000000089e+00
2.219999999999999929e+01
-2.244000000000000128e+01
-9.210000000000000853e+00
1.767999999999999972e+01
-1.484999999999999964e+01
-7.700000000000000178e+00
2.671999999999999886e+01
-3.640000000000000124e+00
-4.849000000000000199e+01
1.222000000000000064e+01
-3.835000000000000142e+01
-1.982000000000000028e+01
4.749000000000000199e+01
6.910000000000000142e+00
-2.287999999999999901e+01
6.500000000000000222e-01
3.582000000000000028e+01
1.291999999999999993e+01
-3.343999999999999773e+01
1.009999999999999964e+01
-4.925000000000000000e+01
1.339099999999999966e+02
-6.876000000000000512e+01
-4.240000000000000213e+00
8.298000000000000398e+01
-3.779999999999999716e+01
-3.021000000000000085e+01
3.707999999999999829e+01
-7.854000000000000625e+01
4.832000000000000028e+01
-4.549000000000000199e+01
-1.044999999999999929e+01
3.799999999999999822e+00
2.139999999999999858e+01
-9.279999999999999361e+00
-2.180000000000000071e+01
-1.074000000000000021e+01
2.503999999999999915e+01
-5.030000000000000249e+00
-1.949999999999999956e+00
1.929999999999999938e+00
-1.860999999999999943e+01
1.131000000000000050e+01
-4.400000000000000022e-01
-2.403000000000000114e+01
1.584999999999999964e+01
1.230000000000000071e+01
5.200000000000000178e-01
-9.339999999999999858e+00
1.350000000000000000e+01
-6.629999999999999893e+00
-2.257999999999999829e+01
9.060000000000000497e+00
-7.030000000000000249e+00
-6.178999999999999915e+01
8.210999999999999943e+01
6.921999999999999886e+01
-2.435000000000000142e+01
-5.870000000000000107e+00
1.889000000000000057e+01
-6.768999999999999773e+01
3.318999999999999773e+01
3.771999999999999886e+01
-1.277999999999999936e+01
-5.659000000000000341e+01
-9.060000000000000497e+00
-1.830000000000000071e+00
3.110999999999999943e+01
4.585999999999999943e+01
-4.370000000000000284e+01
-3.240000000000000213e+00
-3.979999999999999982e+00
2.891000000000000014e+01
-1.821999999999999886e+01
-2.791000000000000014e+01
-3.189999999999999947e+00
1.867999999999999972e+01
-4.830000000000000071e+00
-8.109999999999999432e+01
5.027000000000000313e+01
5.113000000000000256e+01
-5.124000000000000199e+01
4.080000000000000071e+00
2.158999999999999986e+01
7.419999999999999929e+00
6.459999999999999964e+00
1.117999999999999972e+01
1.202999999999999936e+01
-1.048000000000000043e+01
-5.400000000000000355e+00
4.410000000000000142e+00
-1.116000000000000014e+01
-3.685999999999999943e+01
3.232000000000000028e+01
3.382999999999999829e+01
-3.802000000000000313e+01
4.809999999999999609e+00
-1.421000000000000085e+01
-4.874000000000000199e+01
2.714000000000000057e+01
9.490000000000000213e+00
4.352000000000000313e+01
-1.610000000000000098e+00
-7.399999999999999911e-01
-2.775000000000000000e+01
3.560999999999999943e+01
3.403000000000000114e+01
-4.259999999999999787e+00
-1.433000000000000007e+01
-6.993000000000000682e+01
5.353999999999999915e+01
-3.625000000000000000e+01
4.325999999999999801e+01
9.740000000000000213e+00
-4.921999999999999886e+01
4.309999999999999609e+00
-5.070000000000000284e+00
3.825999999999999801e+01
1.753999999999999915e+01
-3.714000000000000057e+01
-2.169999999999999929e+00
1.157000000000000028e+01
-1.648999999999999844e+01
-4.157000000000000028e+01
-7.790000000000000036e+00
3.890000000000000124e+00
7.600000000000000089e-01
3.162000000000000099e+01
3.149999999999999911e+00
-1.349000000000000021e+01
-3.959999999999999964e+00
1.499999999999999944e-01
-3.839999999999999858e+00
-1.644999999999999929e+01
2.912999999999999901e+01
1.318999999999999950e+01
-1.151999999999999957e+01
-9.269999999999999574e+00
3.629999999999999716e+01
-3.559000000000000341e+01
-1.873000000000000043e+01
-7.740000000000000213e+00
-1.328999999999999915e+01
-8.420999999999999375e+01
1.321200000000000045e+02
8.550000000000000711e+00
4.914999999999999858e+01
5.056000000000000227e+01
-4.753999999999999915e+01
-4.967999999999999972e+01
-8.565000000000000568e+01
1.502100000000000080e+02
-9.830000000000000071e+00
-3.814999999999999858e+01
1.174000000000000021e+01
-1.282000000000000028e+01
-1.880000000000000071e+01
-1.051999999999999957e+01
2.169999999999999929e+01
7.490000000000000213e+00
-1.453999999999999915e+01
-5.860000000000000320e+00
1.840000000000000080e+00
2.519999999999999929e+01
2.144999999999999929e+01
-1.252999999999999936e+01
-2.607999999999999829e+01
6.400000000000000133e-01
7.009999999999999787e+00
-1.528999999999999915e+01
-9.279999999999999361e+00
1.860999999999999943e+01
-1.502999999999999936e+01
-3.008999999999999986e+01
1.819999999999999929e+01
1.199000000000000021e+01
-3.680000000000000160e+00
-1.533999999999999986e+01
1.603999999999999915e+01
8.153000000000000114e+01
-9.053000000000000114e+01
1.960000000000000142e+01
-4.196999999999999886e+01
2.601999999999999957e+01
4.585000000000000142e+01
-3.148000000000000043e+01
7.120000000000000107e+00
2.733999999999999986e+01
3.400000000000000000e+01
-4.734000000000000341e+01
-1.385000000000000000e+02
2.298300000000000125e+02
-2.728100000000000023e+02
1.124500000000000028e+02
9.484000000000000341e+01
-9.837999999999999545e+01
1.812999999999999901e+01
-2.351899999999999977e+02
5.182999999999999829e+01
1.015400000000000063e+02
6.735999999999999943e+01
-2.363400000000000034e+02
-1.632700000000000102e+02
1.256000000000000050e+01
1.976800000000000068e+02
1.900399999999999920e+02
-1.094599999999999937e+02
-8.943999999999999773e+01
1.727700000000000102e+02
-1.668000000000000114e+02
8.514000000000000057e+01
9.520000000000000284e+01
1.330000000000000071e+01
3.645000000000000000e+02
-3.676800000000000068e+02
-4.428000000000000114e+01
4.752000000000000313e+01
3.107999999999999829e+01
-1.107800000000000011e+02
-9.009999999999999432e+01
1.107600000000000051e+02
1.705099999999999909e+02
-4.646000000000000085e+01
1.072099999999999937e+02
-2.201999999999999957e+01
-8.340000000000000568e+01
6.578000000000000114e+01
4.964000000000000057e+01
7.800000000000000266e-01
-4.665999999999999659e+01
3.228999999999999915e+01
-2.151999999999999957e+01
3.199900000000000091e+02
-1.006299999999999955e+02
-4.896999999999999886e+01
-9.200000000000000400e-01
-2.601000000000000156e+01
1.127399999999999949e+02
6.222999999999999687e+01
-1.616999999999999886e+02
-1.917999999999999972e+01
-1.481000000000000050e+01
3.954499999999999886e+02
-2.415600000000000023e+02
7.751999999999999602e+01
-3.151000000000000156e+01
7.067000000000000171e+01
-1.883999999999999986e+01
-9.981999999999999318e+01
9.612999999999999545e+01
-8.118999999999999773e+01
2.258999999999999986e+01
1.043400000000000034e+02
1.842999999999999972e+01
-1.484999999999999964e+01
-6.706999999999999318e+01
-3.752000000000000313e+01
-1.033400000000000034e+02
9.751000000000000512e+01
1.658799999999999955e+02
-2.980500000000000114e+02
1.138400000000000034e+02
1.892000000000000171e+01
8.004999999999999716e+01
-5.960000000000000142e+01
1.290000000000000036e+00
-3.942900000000000205e+02
5.015899999999999750e+02
2.985400000000000205e+02
5.099000000000000199e+01
2.569999999999999840e+00
7.190999999999999659e+01
4.199999999999999845e-01
2.937000000000000099e+01
8.540000000000000568e+01
-1.910999999999999943e+01
-7.529999999999999716e+01
-9.226999999999999602e+01
2.068499999999999943e+02
3.482999999999999829e+01
-9.492000000000000171e+01
2.096399999999999864e+02
-3.078500000000000227e+02
2.544999999999999929e+01
-1.053999999999999915e+01
3.579300000000000068e+02
5.009000000000000341e+01
3.961999999999999744e+01
-6.603000000000000114e+01
-1.980999999999999872e+01
1.067099999999999937e+02
1.934900000000000091e+02
-3.245000000000000000e+02
-7.929999999999999716e+00
-5.197999999999999687e+01
-1.550000000000000000e+01
-1.765000000000000000e+02
1.062900000000000063e+02
1.105900000000000034e+02
1.205999999999999943e+02
-5.392000000000000171e+01
-3.342999999999999972e+01
1.113900000000000006e+02
4.945000000000000284e+01
3.014000000000000057e+01
-2.851000000000000156e+01
3.264000000000000057e+01
-1.633300000000000125e+02
-1.588600000000000136e+02
1.258799999999999955e+02
6.493999999999999773e+01
1.915600000000000023e+02
-1.238599999999999994e+02
-7.120000000000000107e+00
-1.409999999999999920e+00
1.279099999999999966e+02
-5.999999999999999778e-01
1.847899999999999920e+02
1.201800000000000068e+02
2.260800000000000125e+02
-2.560600000000000023e+02
-3.561999999999999886e+02
-3.814999999999999858e+01
2.494000000000000128e+01
-1.068900000000000006e+02
7.639999999999999680e+00
-1.339000000000000057e+01
1.256400000000000006e+02
9.910000000000000142e+00
1.711699999999999875e+02
-5.991000000000000227e+02
6.882999999999999829e+01
2.445900000000000034e+02
1.821899999999999977e+02
-3.557000000000000028e+01
-1.152500000000000000e+02
1.444300000000000068e+02
1.819000000000000128e+01
-1.252900000000000063e+02
-5.262799999999999727e+02
1.930300000000000011e+02
6.448000000000000398e+01
-8.110999999999999943e+01
1.194399999999999977e+02
1.315999999999999943e+02
-5.877000000000000313e+01
-3.132000000000000028e+01
-2.360999999999999943e+01
-8.051999999999999602e+01
-1.344699999999999989e+02
1.655200000000000102e+02
-3.973500000000000227e+02
7.868000000000000682e+01
3.782000000000000028e+01
1.564900000000000091e+02
2.410200000000000102e+02
-7.528000000000000114e+01
1.698000000000000114e+02
7.246999999999999886e+01
-3.385199999999999818e+02
1.824000000000000057e+02
3.762900000000000205e+02
5.318700000000000045e+02
-7.057899999999999636e+02
-1.874499999999999886e+02
-1.827400000000000091e+02
1.105000000000000071e+01
7.421999999999999886e+01
2.117000000000000171e+01
-6.601999999999999602e+01
-5.415999999999999659e+01
1.127800000000000011e+02
8.968999999999999773e+01
-2.821000000000000085e+01
-6.829000000000000625e+01
2.423300000000000125e+02
-3.970899999999999750e+02
-1.134399999999999977e+02
5.193600000000000136e+02
2.628500000000000227e+02
-1.229899999999999949e+02
-7.567000000000000171e+01
9.500000000000000000e+01
-1.935399999999999920e+02
-1.002600000000000051e+02
-6.562999999999999545e+01
-3.367999999999999972e+01
-6.976000000000000512e+01
5.370000000000000107e+00
8.515000000000000568e+01
2.640500000000000114e+02
-1.127600000000000051e+02
-4.521999999999999886e+01
-4.182999999999999829e+01
-2.421000000000000085e+01
9.721999999999999886e+01
1.616699999999999875e+02
-5.177000000000000313e+01
-2.655099999999999909e+02
-2.235999999999999943e+01
7.392000000000000171e+01
3.073999999999999844e+01
-2.442000000000000171e+01
-1.419999999999999929e+00
8.500000000000000000e+00
-3.828000000000000114e+01
4.621000000000000085e+01
6.590000000000000568e+01
9.259999999999999787e+00
2.498000000000000043e+01
-5.834000000000000341e+01
-5.868999999999999773e+01
9.242000000000000171e+01
-1.510000000000000009e+00
-6.470000000000000284e+01
-2.023000000000000043e+01
5.599999999999999645e+00
9.910000000000000142e+00
-3.715999999999999659e+01
-2.709999999999999964e+00
-1.989999999999999858e+01
-1.448000000000000043e+01
1.671000000000000085e+01
2.033999999999999986e+01
-2.399999999999999911e-01
-5.070000000000000284e+00
1.083000000000000007e+01
-4.269999999999999574e+00
-2.151999999999999957e+01
1.091999999999999993e+01
5.320000000000000284e+00
-1.416999999999999993e+01
1.171000000000000085e+01
9.730000000000000426e+00
-1.041999999999999993e+01
6.199999999999999956e-01
1.343999999999999950e+01
-1.229999999999999982e+00
-2.132000000000000028e+01
1.525999999999999979e+01
7.030000000000000249e+00
-1.292999999999999972e+01
9.380000000000000782e+00
6.419999999999999929e+00
3.060999999999999943e+01
2.428000000000000114e+01
-4.349000000000000199e+01
-1.707000000000000028e+01
-5.620000000000000107e+00
-3.884000000000000341e+01
5.884000000000000341e+01
6.189000000000000057e+01
-2.846000000000000085e+01
-7.582999999999999829e+01
-2.676999999999999957e+01
-2.712000000000000099e+01
9.596999999999999886e+01
3.464000000000000057e+01
-1.739699999999999989e+02
9.773000000000000398e+01
6.781999999999999318e+01
-2.530999999999999872e+01
-6.480000000000000426e+00
-1.179999999999999938e+00
-1.790000000000000036e+00
-4.919999999999999929e+00
1.161999999999999922e+01
5.780000000000000249e+00
-1.065000000000000036e+01
-7.919999999999999929e+00
-1.067999999999999972e+01
8.298999999999999488e+01
-1.162999999999999972e+02
-3.669999999999999929e+00
6.790000000000000036e+00
-2.173999999999999844e+01
1.758999999999999986e+01
5.830000000000000071e+00
2.629999999999999893e+00
-6.940000000000000391e+00
5.342000000000000171e+01
-9.419999999999999929e+00
-2.503000000000000114e+01
-3.885999999999999943e+01
-5.982999999999999829e+01
-1.846999999999999886e+01
6.417000000000000171e+01
5.489999999999999858e+01
9.539999999999999147e+00
1.257500000000000000e+02
-7.684999999999999432e+01
1.823000000000000043e+01
7.400000000000000000e+01
-1.299000000000000021e+01
-1.295600000000000023e+02
1.214000000000000057e+01
1.444999999999999929e+01
-1.278999999999999915e+01
2.530000000000000071e+01
-3.435000000000000142e+01
-1.383000000000000007e+01
-8.320000000000000284e+00
-2.459999999999999964e+00
-1.320000000000000062e+00
9.009999999999999787e+00
1.978999999999999915e+01
-2.948000000000000043e+01
4.700000000000000178e+00
1.114000000000000057e+01
-1.394999999999999929e+01
-1.136999999999999922e+01
9.449999999999999289e+00
-3.330000000000000071e+00
-4.669999999999999929e+00
-2.229999999999999982e+00
-1.739999999999999991e+00
5.839999999999999858e+00
-3.310000000000000053e+00
6.400000000000000133e-01
4.690000000000000391e+00
1.909999999999999920e+00
-2.500000000000000000e+00
1.183999999999999986e+01
-3.200000000000000178e+00
-1.150999999999999979e+01
1.363000000000000078e+01
1.810000000000000053e+00
-9.230000000000000426e+00
-5.700000000000000178e+00
7.690000000000000391e+00
-8.900000000000000133e-01
-1.286999999999999922e+01
8.250000000000000000e+00
1.383000000000000007e+01
5.000000000000000278e-02
-1.700000000000000000e+01
6.929999999999999716e+00
4.190000000000000391e+00
-4.440000000000000391e+00
1.014000000000000057e+01
4.990000000000000213e+00
-2.430000000000000160e+00
-8.310000000000000497e+00
3.459999999999999964e+00
-1.000000000000000021e-02
-1.531000000000000050e+01
1.093999999999999950e+01
6.750000000000000000e+00
-1.709999999999999964e+00
-1.583999999999999986e+01
1.153999999999999915e+01
3.229999999999999982e+00
-4.179999999999999716e+00
-7.980000000000000426e+00
5.230000000000000426e+00
4.419999999999999929e+00
-1.025999999999999979e+01
1.325999999999999979e+01
6.830000000000000071e+00
-4.259999999999999787e+00
-1.402999999999999936e+01
7.740000000000000213e+00
3.499999999999999778e-01
-1.116999999999999993e+01
5.009999999999999787e+00
7.650000000000000355e+00
2.000000000000000042e-02
-1.456000000000000050e+01
9.820000000000000284e+00
7.299999999999999822e+00
6.719999999999999751e+00
3.202000000000000313e+01
4.197999999999999687e+01
-2.901999999999999957e+01
-1.250600000000000023e+02
-4.681000000000000227e+01
1.538899999999999864e+02
9.598999999999999488e+01
8.931000000000000227e+01
-1.466899999999999977e+02
-6.484000000000000341e+01
2.164300000000000068e+02
-2.284300000000000068e+02
1.591100000000000136e+02
8.446999999999999886e+01
5.327500000000000000e+02
-4.307000000000000028e+01
-1.463899999999999864e+02
-1.179200000000000017e+02
-1.274800000000000040e+02
-2.662799999999999727e+02
-1.110799999999999983e+02
3.704999999999999716e+01
9.245000000000000284e+01
1.750000000000000000e+01
-6.952000000000000455e+02
1.995099999999999909e+02
5.818099999999999454e+02
1.266599999999999966e+02
-1.041000000000000014e+01
3.617000000000000171e+01
-4.632000000000000028e+01
-1.169899999999999949e+02
1.863799999999999955e+02
1.106500000000000057e+02
-8.623999999999999488e+01
1.839999999999999858e+01
3.126000000000000156e+01
-2.366000000000000014e+01
-1.230600000000000023e+02
8.176999999999999602e+01
2.737999999999999901e+01
-6.095000000000000284e+01
1.989999999999999991e+00
7.531000000000000227e+01
6.370000000000000107e+00
-9.396999999999999886e+01
7.864000000000000057e+01
4.379999999999999716e+01
-4.604999999999999716e+01
-7.637000000000000455e+01
6.942000000000000171e+01
1.100000000000000006e-01
-8.720000000000000284e+01
4.750999999999999801e+01
6.754000000000000625e+01
-2.471999999999999886e+01
-1.497800000000000011e+02
1.124300000000000068e+02
5.463000000000000256e+01
-6.231000000000000227e+01
-7.679999999999999716e+01
1.099099999999999966e+02
3.080000000000000071e+01
-8.209999999999999432e+01
2.957999999999999829e+01
9.176999999999999602e+01
5.280000000000000249e+00
-1.079500000000000028e+02
7.339000000000000057e+01
5.057000000000000028e+01
-4.217999999999999972e+01
-1.164899999999999949e+02
8.212000000000000455e+01
1.016000000000000014e+01
-7.943000000000000682e+01
5.719999999999999751e+00
7.506000000000000227e+01
-1.131000000000000050e+01
-1.066299999999999955e+02
9.365000000000000568e+01
7.037000000000000455e+01
-1.973999999999999844e+01
-1.353300000000000125e+02
9.503000000000000114e+01
9.260999999999999943e+01
-6.479999999999999716e+01
-6.328000000000000114e+01
-9.965000000000000568e+01
-1.711599999999999966e+02
-1.238400000000000034e+02
2.201000000000000156e+01
2.120399999999999920e+02
9.870999999999999375e+01
-7.995999999999999375e+01
8.039000000000000057e+01
3.148000000000000043e+01
7.700000000000000178e-01
3.499000000000000199e+01
6.967000000000000171e+01
-4.377000000000000313e+01
-6.840000000000000568e+01
1.254300000000000068e+02
1.173299999999999983e+02
-3.057099999999999795e+02
-9.565999999999999659e+01
2.556800000000000068e+02
-2.405000000000000071e+01
-6.804000000000000625e+01
-2.751000000000000156e+01
9.173000000000000398e+01
-4.650000000000000355e+00
-2.673000000000000043e+01
5.810000000000000142e+01
5.535000000000000142e+01
1.886500000000000057e+02
3.497799999999999727e+02
-3.548399999999999750e+02
-1.312100000000000080e+02
-1.789000000000000057e+01
1.757999999999999829e+01
-2.339000000000000057e+01
-4.747999999999999687e+01
-6.309999999999999609e+00
2.998000000000000043e+01
2.033999999999999986e+01
-1.273000000000000043e+01
-2.464999999999999858e+01
1.173000000000000043e+01
-1.610000000000000098e+00
1.689999999999999947e+00
4.809999999999999609e+00
2.644000000000000128e+01
-1.580000000000000071e+01
-1.076599999999999966e+02
-3.379999999999999893e+00
-1.498899999999999864e+02
1.431999999999999886e+02
-1.022699999999999960e+02
2.409199999999999875e+02
-1.510500000000000114e+02
-2.567000000000000171e+01
4.660000000000000142e+01
2.230999999999999872e+01
-2.330999999999999872e+01
-7.767000000000000171e+01
1.947800000000000011e+02
-6.439000000000000057e+01
-2.491000000000000014e+01
-4.000000000000000000e+00
-1.255600000000000023e+02
2.197599999999999909e+02
-1.025799999999999983e+02
-1.233999999999999986e+01
6.870000000000000284e+01
-3.442999999999999972e+01
-1.435999999999999943e+01
3.285000000000000142e+01
-1.133999999999999986e+01
-7.637000000000000455e+01
5.990000000000000213e+00
-2.130999999999999872e+01
