1593701029.00
64.000000
-0.00
-0.00
-0.00
-0.00
-0.00
-0.00
-0.00
-0.00
-0.00
-0.00
0.00
0.01
0.01
-0.00
-0.03
-0.05
-0.05
0.00
0.13
0.36
0.66
1.01
1.37
1.72
2.06
2.40
2.79
3.24
3.80
4.42
5.06
5.66
6.20
6.68
7.15
7.68
8.31
9.14
10.09
11.04
11.88
12.56
13.14
13.76
14.65
15.96
17.91
20.32
22.90
25.38
27.58
29.57
31.68
34.32
37.81
42.54
48.15
54.10
59.83
64.97
69.58
74.14
79.34
85.71
93.76
103.00
112.62
121.73
129.77
136.75
143.30
150.75
157.77
166.64
177.95
191.79
206.97
220.57
228.25
225.36
208.53
176.87
132.76
80.05
23.07
-34.94
-92.44
-149.16
-205.23
-260.37
-313.74
-363.87
-409.83
-450.91
-486.50
-515.74
-537.23
-549.22
-549.96
-538.37
-514.21
-478.67
-433.88
-382.45
-327.02
-269.84
-212.63
-156.66
-102.95
-52.37
-5.90
35.58
71.43
101.35
125.50
144.38
158.69
169.15
176.37
180.75
182.57
182.07
179.51
175.23
169.65
163.18
156.15
148.81
141.30
133.69
126.01
118.32
110.67
103.16
95.84
88.76
81.92
75.29
68.87
62.66
56.70
51.07
45.84
41.04
36.66
32.67
28.96
25.47
22.16
19.06
16.22
13.72
11.59
9.82
8.29
6.88
5.43
3.92
2.40
1.04
0.04
-0.48
-0.60
-0.57
-0.74
-1.43
-2.72
-4.39
-5.97
-6.94
-6.98
-6.19
-5.10
-4.46
-4.96
-6.78
-9.53
-12.29
-14.04
-14.14
-12.70
-10.62
-9.22
-9.65
-12.30
-16.55
-20.98
-24.07
-24.76
-22.99
-19.71
-16.46
-14.89
-16.33
-21.60
-30.37
-40.55
-48.13
-48.00
-35.63
-9.38
28.09
70.02
107.63
133.28
142.99
137.08
119.09
93.63
64.62
34.80
6.12
-19.41
-39.82
-53.49
-59.83
-59.49
-53.91
-44.70
-33.15
-19.97
-5.69
9.05
23.30
36.08
46.85
55.59
62.57
68.05
71.87
73.47
71.96
66.59
56.91
43.07
25.75
6.04
-14.82
-35.74
-55.39
-71.73
-81.73
-82.11
-71.18
-50.38
-25.12
-3.07
8.75
7.16
-5.57
-23.33
-39.15
-48.61
-51.48
-50.79
-49.98
-51.22
-53.45
-53.15
-46.59
-31.81
-9.54
17.15
44.00
66.74
82.05
88.33
85.47
74.49
57.31
36.63
14.71
-5.87
-22.90
-34.94
-41.40
-42.48
-39.10
-32.61
-24.84
-17.82
-12.80
-9.89
-8.08
-5.76
-1.90
2.81
6.42
6.52
1.36
-9.15
-23.45
-38.69
-51.24
-57.42
-54.74
-42.16
-21.36
3.43
26.61
43.06
50.08
48.00
40.33
31.26
23.95
19.49
17.33
16.34
15.79
15.71
16.72
19.48
24.20
30.89
39.16
49.05
60.86
74.34
87.75
97.48
99.01
88.72
66.09
34.53
0.49
-29.07
-49.40
-59.40
-61.33
-58.95
-55.71
-53.57
-53.19
-54.47
-57.09
-60.53
-63.76
-65.26
-63.51
-57.70
-48.15
-36.35
-24.47
-14.55
-7.79
-4.00
-1.81
0.94
6.32
15.33
27.46
40.52
51.33
56.99
56.34
50.29
41.38
32.38
24.78
18.43
12.04
4.16
-5.18
-14.05
-19.74
-20.45
-16.46
-10.17
-4.71
-2.39
-4.19
-8.53
-11.72
-9.99
-1.56
13.55
31.86
47.93
55.89
50.60
31.10
1.81
-29.18
-53.47
-65.72
-65.42
-56.48
-45.74
-41.57
-49.16
-68.35
-94.33
-120.01
-138.90
-146.90
-142.76
-120.37
-82.55
-40.24
-4.43
21.15
39.16
52.61
61.95
65.94
63.59
54.80
42.67
32.75
30.37
38.57
57.03
81.92
108.09
129.86
140.93
137.25
118.68
86.09
47.93
13.67
-10.11
-21.57
-23.43
-21.21
-19.38
-19.24
-19.49
-17.82
-13.83
-9.00
-5.60
-5.21
-8.27
-13.77
-19.78
-24.68
-27.91
-31.08
-36.01
-43.47
-51.98
-58.32
-58.85
-51.61
-37.72
-20.97
-6.62
1.21
1.54
-3.22
-8.91
-12.07
-11.52
-8.45
-5.04
-3.22
-3.83
-6.61
-10.72
-15.50
-20.82
-26.56
-32.19
-36.50
-36.40
-30.17
-18.76
-5.26
6.85
15.24
19.43
20.14
18.45
15.38
11.81
8.85
8.53
14.07
27.28
47.89
72.84
97.17
115.64
124.57
123.05
113.52
101.05
91.71
91.19
102.97
128.09
162.40
199.52
230.93
248.64
248.41
231.68
205.17
177.03
154.39
140.31
133.12
127.73
119.01
104.47
84.87
62.91
39.05
13.23
-14.91
-45.60
-78.82
-113.55
-147.26
-176.58
-198.70
-215.55
-229.30
-241.58
-253.57
-267.01
-283.72
-305.08
-331.64
-362.87
-400.32
-440.61
-475.37
-494.59
-491.55
-465.17
-419.90
-363.51
-280.34
-174.40
-64.38
28.52
93.17
129.55
143.90
144.27
138.31
131.57
123.28
113.08
102.47
94.08
89.43
88.90
90.73
92.00
88.99
76.04
51.65
19.11
-15.41
-45.85
-65.72
-70.27
-58.13
-32.73
-3.29
20.96
34.49
38.23
36.17
37.77
52.27
83.35
126.21
169.54
202.49
219.22
221.00
212.77
202.52
196.04
195.48
200.30
209.89
225.24
246.47
271.37
278.83
251.72
186.41
96.15
0.85
-83.15
-144.92
-186.36
-209.43
-216.59
-208.89
-189.05
-160.44
-129.88
-103.32
-82.74
-65.86
-47.16
-22.67
9.35
45.80
79.71
103.04
111.38
106.23
93.60
81.66
75.98
78.37
85.83
91.68
87.86
68.80
33.91
-12.24
-60.89
-102.68
-130.24
-140.79
-136.67
-123.97
-109.25
-96.89
-88.18
-81.38
-73.84
-63.68
-51.00
-37.39
-24.74
-13.72
-3.05
9.78
27.71
52.23
81.69
111.24
134.61
146.57
144.83
130.47
106.56
77.06
45.31
13.32
-17.20
-43.90
-63.61
-73.28
-71.73
-64.03
-59.27
-64.50
-80.45
-102.59
-124.92
-142.69
-154.42
-159.35
-159.45
-156.75
-151.68
-143.04
-127.70
-103.69
-71.29
-33.09
7.55
47.53
85.55
121.79
156.56
191.00
224.55
254.95
279.13
294.98
301.77
300.56
293.30
270.20
227.57
169.67
107.42
51.81
9.16
-19.64
-36.58
-44.74
-47.56
-46.13
-41.57
-35.02
-27.95
-21.58
-17.28
-16.23
-18.05
-22.13
-26.39
-29.66
-31.19
-30.88
-29.13
-27.51
-27.44
-29.88
-35.66
-44.31
-56.17
-71.32
-90.63
-111.41
-133.47
-156.58
-179.63
-201.38
-220.14
-235.25
-244.62
-244.84
-232.28
-205.62
-165.69
-115.64
-61.41
-2.20
54.24
98.62
127.19
143.88
155.13
166.71
181.98
201.24
221.12
235.70
240.17
232.39
213.30
185.48
151.60
120.98
102.26
98.29
104.85
115.37
122.85
126.31
125.76
121.33
113.22
100.33
80.63
55.26
25.78
-5.70
-37.08
-67.59
-96.83
-123.94
-148.37
-169.80
-188.21
-203.92
-217.87
-232.01
-249.84
-274.56
-306.78
-343.62
-378.31
-401.62
-404.85
-383.80
-340.89
-284.88
-227.05
-176.83
-139.42
-115.27
-101.29
-92.33
-84.01
-74.12
-62.91
-52.19
-44.51
-42.54
-47.59
-58.09
-67.56
-68.34
-54.74
-25.59
15.74
63.25
110.67
153.78
191.29
225.79
258.95
289.18
312.42
325.16
327.23
321.95
314.70
296.19
262.22
215.94
165.28
116.19
70.67
29.34
-6.74
-36.22
-57.76
-69.17
-70.54
-64.91
-56.35
-48.92
-44.59
-43.35
-44.01
-44.29
-40.51
-30.14
-12.74
10.20
36.02
61.73
84.65
97.99
98.31
86.53
66.71
44.34
24.36
9.65
0.49
-5.05
-9.75
-14.70
-18.51
-18.11
-9.98
8.45
37.97
77.22
122.63
168.84
210.38
242.46
261.86
267.36
260.09
243.35
221.84
200.40
182.66
170.62
164.04
160.83
157.88
151.98
140.49
121.80
95.32
61.53
21.99
-21.12
-65.64
-110.37
-155.27
-200.92
-247.40
-293.40
-335.83
-370.38
-392.79
-400.09
-391.80
-369.03
-333.45
-286.57
-230.28
-167.72
-103.72
-44.26
4.86
38.65
55.31
57.37
50.53
40.85
32.04
24.53
16.19
4.08
-15.21
-42.12
-72.53
-98.66
-112.63
-109.98
-91.12
-60.84
-26.77
0.42
11.71
3.25
-23.05
-61.81
-107.36
-155.15
-201.77
-229.36
-224.47
-187.61
-133.42
-77.46
-25.99
23.35
75.38
131.77
188.22
233.10
254.30
246.51
214.82
171.73
131.11
102.16
86.73
80.45
74.92
63.70
46.98
29.87
17.69
12.65
12.84
14.25
13.17
7.40
-2.18
-11.91
-17.65
-18.15
-15.62
-14.77
-20.03
-33.31
-53.62
-77.64
-101.37
-118.59
-126.47
-125.48
-118.58
-109.55
-101.18
-94.33
-87.72
-78.78
-65.37
-47.86
-28.64
-11.25
1.24
7.77
9.65
9.14
7.48
3.55
-6.06
-23.51
-47.96
-74.70
-96.24
-105.11
-97.29
-74.18
-41.78
-7.61
24.72
55.08
84.85
114.19
140.78
160.10
167.28
159.99
140.43
117.91
102.97
102.38
116.82
142.23
172.21
200.29
221.49
233.21
238.92
243.22
249.08
257.36
268.60
283.81
303.62
327.51
331.64
302.48
244.65
176.67
115.32
68.16
36.23
18.23
12.69
19.64
38.86
67.67
98.90
122.75
131.75
124.05
103.18
75.33
46.32
24.36
13.95
13.88
19.06
24.34
26.81
25.72
21.38
14.31
6.48
-0.61
-6.73
-12.64
-18.92
-25.76
-33.28
-41.82
-51.82
-62.80
-74.22
-86.00
-98.58
-112.60
-128.57
-146.71
-166.67
-187.32
-206.47
-221.61
-230.66
-232.24
-225.95
-212.65
-194.71
-175.88
-160.52
-152.34
-153.05
-161.66
-174.72
-187.68
-196.60
-199.36
-195.99
-188.02
-177.47
-166.01
-154.67
-143.72
-132.79
-121.13
-107.71
-91.67
-72.56
-50.58
-26.62
-2.07
21.41
42.02
57.99
67.86
70.73
66.49
55.79
39.81
19.77
-3.26
-28.10
-52.95
-74.83
-89.88
-94.40
-86.28
-66.22
-37.68
-5.75
24.65
50.17
69.54
82.87
90.55
92.41
87.85
76.60
59.63
39.48
19.61
3.36
-7.23
-11.76
-11.27
-7.57
-2.58
2.11
5.40
6.70
5.84
3.12
-0.82
-5.17
-9.16
-12.28
-14.32
-15.31
-15.40
-14.74
-13.42
-11.45
-8.82
-5.64
-2.15
1.24
4.10
6.19
7.60
8.76
10.13
11.90
13.77
14.96
14.72
12.67
9.15
5.03
1.24
-1.41
-2.44
-1.77
0.31
3.29
6.54
9.52
11.82
13.03
12.84
10.95
7.06
0.78
-7.99
-18.77
-30.38
-41.20
-50.16
-56.66
-60.69
-62.61
-63.08
-62.64
-61.70
-60.44
-59.08
-59.04
-61.26
-65.51
-70.72
-75.87
-80.41
-84.63
-88.81
-92.85
-98.02
-103.71
-107.10
-104.78
-95.42
-80.21
-62.97
-47.55
-36.62
-34.59
-42.47
-57.25
-74.17
-90.03
-103.70
-116.71
-130.35
-145.24
-165.95
-194.33
-227.89
-261.43
-290.55
-312.07
-325.51
-330.51
-299.56
-226.16
-129.14
-38.13
28.75
65.37
84.63
95.84
105.15
116.91
127.96
136.28
143.28
152.51
166.31
185.35
207.53
231.48
257.18
281.79
304.31
326.20
349.20
372.37
391.91
401.41
396.09
375.14
338.68
290.14
235.86
182.67
135.70
97.15
66.30
41.93
24.85
14.30
8.96
7.50
8.48
11.23
15.01
19.14
24.02
33.24
48.43
69.06
93.84
121.93
155.11
195.02
241.50
291.60
342.59
387.87
418.83
429.04
416.89
388.08
350.76
312.37
257.93
187.54
113.85
52.39
15.53
-4.57
-14.75
-20.28
-24.60
-29.91
-34.43
-37.60
-40.48
-44.55
-50.93
-58.03
-64.75
-71.05
-77.72
-83.28
-87.58
-91.85
-97.54
-105.68
-114.97
-124.43
-133.83
-143.66
-153.12
-162.50
-173.15
-186.71
-204.25
-224.54
-245.16
-262.88
-274.37
-276.35
-267.79
-250.28
-227.25
-202.60
-178.93
-157.54
-138.62
-121.80
-106.45
-92.37
-79.82
-69.16
-60.57
-53.70
-48.05
-43.10
-38.48
-34.02
-29.75
-25.85
-22.53
-19.96
-18.16
-17.06
-16.57
-16.71
-17.59
-19.35
-21.99
-25.28
-28.72
-31.64
-33.44
-33.75
-32.60
-30.34
-27.55
-24.70
-22.02
-19.37
-16.41
-12.84
-8.63
-4.10
0.21
3.82
6.46
8.20
9.15
9.51
9.45
9.08
8.42
7.39
5.97
4.32
2.77
1.53
0.82
0.77
1.39
2.47
3.65
4.57
5.02
5.07
4.54
3.49
2.29
1.51
1.55
2.51
4.12
5.99
7.82
8.48
7.59
5.89
4.94
5.96
9.17
13.81
18.63
22.51
22.70
17.91
9.20
-0.40
-8.05
-12.67
-15.29
-18.78
-27.25
-48.41
-87.41
-143.46
-209.13
-273.52
-325.82
-357.92
-365.84
-349.83
-317.85
-278.53
-237.66
-198.57
-165.25
-143.53
-138.84
-153.17
-155.76
-125.34
-61.24
18.37
94.40
156.67
202.21
232.16
249.51
257.35
253.11
234.19
202.42
164.04
127.43
100.01
86.99
89.97
106.52
128.73
144.12
145.11
132.15
111.48
90.19
73.37
62.82
58.04
54.85
50.60
46.28
44.73
48.07
55.21
62.76
66.88
65.13
56.44
42.41
27.74
14.91
7.13
5.39
8.38
13.50
17.75
18.26
13.75
6.19
-0.21
-0.54
7.30
21.16
35.14
42.55
39.32
26.45
10.75
0.65
2.26
16.20
38.87
65.66
93.15
119.03
140.39
153.92
155.61
143.34
119.03
89.85
66.14
56.58
63.98
76.23
79.53
65.80
38.51
7.32
-19.41
-38.03
-49.29
-56.15
-61.25
-64.49
-64.53
-60.32
-52.83
-44.52
-38.07
-35.31
-36.72
-41.47
-47.14
-51.37
-52.91
-52.24
-50.80
-49.78
-49.61
-49.95
-50.01
-48.85
-46.22
-42.70
-39.30
-36.79
-34.87
-32.25
-27.37
-19.02
-6.75
8.97
26.96
45.16
60.87
71.20
73.80
66.49
51.45
32.65
14.16
-1.28
-13.31
-23.52
-33.94
-45.09
-55.06
-59.81
-55.55
-40.92
-17.95
8.55
32.70
49.72
57.47
56.77
49.88
41.57
35.43
32.55
31.09
27.34
16.72
-2.83
-28.91
-54.22
-69.74
-69.04
-51.96
-24.94
2.44
22.35
32.15
34.31
33.54
31.31
26.54
15.95
-1.72
-22.60
-38.45
-41.35
-28.62
-3.11
27.57
55.26
74.60
84.77
88.58
90.59
93.97
97.31
98.26
92.01
74.24
44.54
4.90
-39.01
-79.16
-108.66
-124.10
-125.92
-117.94
-104.68
-89.58
-71.56
-52.86
-34.89
-19.23
-7.57
-0.71
1.56
0.73
-1.70
-3.58
-4.47
-4.88
-6.56
-11.32
-19.76
-31.15
-43.21
-52.59
-55.97
-51.81
-40.53
-25.16
-9.98
0.95
4.18
-2.63
-19.65
-45.27
-76.13
-107.20
-133.12
-148.55
-149.23
-133.57
-103.27
-62.75
-17.48
27.06
66.33
93.46
101.72
90.80
67.26
39.26
12.10
-11.88
-32.15
-48.83
-62.30
-72.47
-79.06
-82.44
-83.81
-85.40
-88.27
-92.57
-97.72
-102.89
-106.99
-109.15
-108.83
-106.38
-104.60
-105.07
-107.20
-109.36
-109.27
-104.30
-91.83
-72.04
-45.55
-17.32
9.23
34.02
58.24
84.20
114.77
152.20
199.71
257.01
314.40
362.06
394.00
406.44
398.82
373.84
336.52
297.46
267.02
246.80
238.31
244.49
264.63
295.12
331.08
342.81
314.62
286.78
273.15
257.69
230.71
186.14
123.72
49.53
-26.82
-91.55
-140.30
-173.38
-192.02
-198.47
-197.81
-193.66
-186.60
-176.44
-160.32
-137.64
-114.80
-97.38
-87.63
-84.75
-86.43
-89.73
-93.04
-93.63
-90.63
-87.74
-88.83
-95.87
-110.68
-135.81
-169.46
-211.24
-258.06
-304.09
-342.31
-364.78
-365.02
-341.33
-297.97
-243.44
-188.03
-139.30
-100.85
-73.15
-54.61
-42.78
-35.01
-28.53
-20.40
-8.71
7.20
26.05
44.91
60.39
69.96
73.65
73.65
73.12
74.27
77.98
83.78
90.46
96.59
100.77
102.39
101.34
97.80
91.81
83.62
73.86
63.39
53.32
44.91
40.36
41.89
50.41
64.18
79.03
89.71
91.72
82.86
63.74
38.37
12.64
-7.96
-19.82
-21.30
-12.11
6.95
34.26
60.52
74.77
70.87
51.37
23.73
-5.06
-30.73
-51.25
-65.39
-73.67
-77.12
-76.82
-74.18
-70.85
-67.30
-64.15
-61.13
-56.35
-49.11
-39.88
-29.52
-19.08
-9.22
0.20
10.29
23.34
44.28
77.21
120.05
168.92
217.33
257.34
281.59
285.82
258.56
201.93
130.51
63.31
12.93
-19.34
-39.39
-54.17
-67.85
-81.28
-91.57
-96.82
-98.26
-97.68
-96.27
-93.75
-89.34
-82.67
-74.60
-65.57
-57.18
-51.92
-51.58
-56.62
-64.50
-71.61
-74.50
-70.87
-58.81
-37.86
-9.04
25.85
64.21
102.70
137.04
162.72
176.24
176.70
165.41
145.00
118.56
88.78
57.95
27.98
0.92
-21.18
-36.57
-44.67
-46.44
-43.98
-39.58
-34.94
-30.83
-27.28
-24.03
-21.00
-18.47
-16.94
-16.92
-18.54
-21.51
-25.07
-28.28
-30.31
-30.78
-29.86
-28.12
-26.32
-24.94
-24.02
-23.21
-21.92
-19.68
-16.32
-11.99
-7.05
-1.92
3.11
7.90
12.42
16.75
20.96
25.08
29.08
32.76
35.81
37.87
38.68
38.09
36.14
33.02
28.92
24.02
18.41
12.25
5.77
-0.63
-6.47
-11.26
-14.72
-16.79
-17.69
-17.81
-17.59
-17.40
-17.42
-17.70
-18.09
-18.39
-18.43
-18.14
-17.64
-17.21
-17.20
-17.86
-19.23
-21.07
-22.98
-24.59
-25.74
-26.63
-27.67
-29.32
-31.71
-34.62
-37.54
-39.95
-41.63
-42.79
-43.95
-45.75
-48.60
-52.45
-56.80
-60.94
-64.19
-66.18
-66.93
-66.71
-65.90
-64.77
-63.50
-62.36
-61.79
-62.57
-65.61
-71.59
-80.61
-91.97
-104.34
-116.04
-125.65
-132.28
-135.78
-136.64
-135.85
-134.78
-134.90
-137.47
-142.74
-149.64
-155.64
-157.39
-151.86
-137.41
-114.54
-85.68
-54.30
-23.37
5.41
32.12
58.13
85.09
113.89
143.82
172.36
195.73
210.50
214.45
207.79
193.03
174.34
156.52
143.88
139.26
140.71
144.70
146.35
142.42
132.77
119.33
104.43
89.75
75.88
62.49
49.48
37.15
26.52
18.69
14.10
12.40
12.78
14.49
16.97
20.52
24.67
28.28
29.59
26.79
19.00
6.90
-7.50
-21.80
-33.89
-42.61
-47.83
-50.18
-50.82
-50.99
-51.68
-53.55
-56.75
-60.88
-64.81
-67.39
-67.74
-65.53
-60.76
-53.64
-44.73
-35.14
-26.59
-21.09
-20.12
-23.86
-31.21
-40.43
-49.88
-58.64
-66.30
-72.32
-75.73
-75.29
-69.96
-59.65
-45.25
-28.10
-9.12
11.60
34.62
60.42
88.55
117.12
143.09
163.18
175.11
178.38
174.55
166.49
156.94
147.41
137.73
126.72
113.52
98.86
85.18
75.37
70.98
70.85
71.37
68.16
58.36
42.28
23.15
5.43
-7.17
-13.04
-12.74
-7.99
-0.45
8.83
19.49
31.44
44.37
57.70
70.94
83.96
97.01
110.36
123.67
135.60
143.50
143.89
133.42
110.03
73.95
28.16
-22.09
-70.61
-111.98
-142.92
-162.75
-173.02
-176.46
-175.86
-173.30
-170.00
-166.46
-162.89
-159.46
-156.16
-152.67
-148.36
-142.48
-134.45
-124.19
-112.17
-99.29
-86.62
-75.10
-65.33
-57.44
-51.04
-45.39
-39.62
-33.07
-25.60
-17.68
-10.12
-3.80
0.69
3.17
3.82
2.91
0.68
-2.68
-6.89
-11.29
-14.83
-16.20
-14.25
-8.45
0.85
12.46
24.97
37.33
49.32
61.39
74.18
87.82
101.58
114.03
123.60
129.29
130.90
128.88
123.73
115.38
102.99
85.29
61.21
30.59
-5.50
-44.91
-84.94
-123.07
-157.35
-186.43
-209.32
-224.87
-231.65
-228.25
-213.81
-188.63
-154.47
-114.37
-72.00
-30.94
6.02
37.13
61.54
79.05
89.80
94.26
93.21
88.04
80.57
72.77
66.24
61.92
59.98
60.21
62.33
66.05
70.99
76.32
80.80
83.10
82.41
78.91
73.77
68.51
64.24
61.01
57.90
53.55
47.07
38.62
29.54
21.77
17.22
17.08
21.53
29.96
41.13
53.32
64.23
71.07
71.29
63.64
49.26
31.66
15.65
5.43
2.97
7.57
16.77
27.94
39.51
50.97
62.02
71.54
77.28
76.59
67.52
49.69
24.31
-6.65
-41.26
-78.10
-116.14
-154.61
-192.64
-229.34
-264.06
-296.40
-326.08
-352.49
-374.15
-388.69
-393.38
-386.12
-366.48
-336.29
-299.22
-259.70
-221.50
-186.76
-155.77
-127.48
-100.21
-72.25
-41.90
-7.55
31.85
76.06
122.71
167.45
205.05
231.35
244.86
247.25
242.43
234.68
227.02
220.52
214.78
209.04
202.97
196.76
190.50
183.65
174.84
162.49
145.59
124.23
99.56
73.19
46.36
19.59
-7.15
-33.67
-58.93
-80.88
-97.13
-106.03
-107.40
-102.68
-94.09
-83.68
-72.58
-61.06
-49.11
-37.04
-25.72
-16.14
-8.88
-3.64
0.65
5.31
11.32
19.01
28.03
37.65
47.06
55.53
62.47
67.42
70.16
70.70
69.30
66.31
62.07
56.87
51.02
44.94
39.24
34.54
31.30
29.59
29.05
29.02
28.90
28.36
27.37
26.07
24.57
22.89
21.06
19.22
17.68
16.80
16.77
17.43
18.25
18.55
17.77
15.70
12.57
8.90
5.29
2.20
-0.13
-1.61
-2.22
-1.95
-0.83
1.02
3.30
5.57
7.36
8.29
8.21
7.24
5.65
3.81
2.06
0.58
-0.59
-1.57
-2.55
-3.74
-5.25
-7.11
-9.16
-11.16
-12.82
-13.90
-14.33
-14.12
-13.41
-12.37
-11.10
-9.66
-8.06
-6.32
-4.48
-2.64
-0.89
0.66
1.96
2.93
3.51
3.63
3.26
2.50
1.52
0.54
-0.26
-0.82
-1.17
-1.41
-1.66
-1.94
-2.24
-2.54
-2.79
-3.00
-3.20
-3.46
-3.82
-4.34
-4.98
-5.67
-6.28
-6.74
-7.03
-7.22
-7.41
-7.69
-8.05
-8.44
-8.77
-9.02
-9.25
-9.58
-10.07
-10.76
-11.59
-12.48
-13.38
-14.21
-14.88
-15.26
-15.14
-14.38
-12.93
-10.90
-8.48
-5.88
-3.30
-0.82
1.53
3.77
5.90
7.89
9.69
11.21
12.36
13.07
13.37
13.31
13.03
12.66
12.27
11.92
11.63
11.38
11.09
10.66
10.00
9.09
8.08
7.23
6.78
6.79
7.06
7.21
6.85
5.81
4.22
2.39
0.67
-0.75
-1.90
-2.93
-3.96
-5.03
-6.06
-6.93
-7.67
-8.40
-9.32
-10.60
-12.23
-14.00
-15.55
-16.50
-16.59
-15.80
-14.33
-12.46
-10.43
-8.40
-6.42
-4.51
-2.69
-0.97
0.72
2.48
4.42
6.49
8.45
9.85
10.30
9.60
7.91
5.70
3.59
2.13
1.57
1.89
2.78
3.88
4.85
5.45
5.57
5.19
4.37
3.14
1.59
-0.19
-2.09
-3.98
-5.76
-7.37
-8.73
-9.76
-10.37
-10.36
-9.66
-8.29
-6.44
-4.40
-2.51
-1.05
-0.21
-0.14
-0.89
-2.43
-4.58
-6.96
-9.15
-10.76
-11.63
-11.81
-11.48
-10.79
-9.75
-8.27
-6.26
-3.75
-0.91
1.97
4.62
6.84
8.56
9.70
10.24
10.18
9.59
8.64
7.61
6.78
6.37
6.49
7.03
7.79
8.48
8.87
8.85
8.44
7.80
7.11
6.50
6.02
5.60
5.14
4.56
3.77
2.76
1.56
0.26
-1.02
-2.13
-2.95
-3.50
-3.87
-4.26
-4.85
-5.75
-6.93
-8.23
-9.45
-10.50
-11.35
-12.03
-12.58
-12.92
-12.91
-12.39
-11.27
-9.65
-7.73
-5.80
-4.12
-2.83
-1.89
-1.18
-0.51
0.28
1.27
2.42
3.66
4.88
5.99
6.93
7.65
8.15
8.44
8.58
8.67
8.80
8.99
9.22
9.37
9.32
8.99
8.39
7.60
6.76
5.96
5.19
4.39
3.50
2.49
1.45
0.51
-0.23
-0.74
-1.11
-1.48
-1.98
-2.60
-3.27
-3.83
-4.23
-4.52
-4.91
-5.61
-6.73
-8.19
-9.71
-10.87
-11.30
-10.79
-9.37
-7.33
-4.98
-2.62
-0.38
1.74
3.78
5.75
7.55
9.05
10.19
10.97
11.47
11.77
11.87
11.73
11.30
10.61
9.75
8.89
8.09
7.40
6.73
6.03
5.25
4.41
3.52
2.64
1.76
0.90
0.08
-0.69
-1.39
-2.04
-2.64
-3.28
-3.98
-4.75
-5.55
-6.28
-6.88
-7.34
-7.74
-8.20
-8.84
-9.71
-10.78
-11.92
-12.92
-13.59
-13.71
-13.12
-11.72
-9.55
-6.79
-3.79
-0.91
1.59
3.59
5.15
6.44
7.61
8.74
9.75
10.56
11.09
11.34
11.35
11.21
10.93
10.55
10.07
9.55
9.06
8.71
8.55
8.57
8.74
8.91
8.98
8.81
8.30
7.42
6.15
4.61
3.02
1.65
0.68
0.19
0.10
0.18
0.20
0.04
-0.28
-0.66
-0.98
-1.26
-1.59
-2.12
-2.95
-4.06
-5.39
-6.80
-8.19
-9.46
-10.46
-11.03
-10.99
-10.26
-8.88
-7.04
-5.01
-3.02
-1.21
0.34
1.60
2.53
3.08
3.20
2.97
2.51
1.99
1.54
1.16
0.79
0.33
-0.26
-0.89
-1.45
-1.83
-1.98
-1.99
-1.99
-2.10
-2.40
-2.91
-3.61
-4.48
-5.45
-6.39
-7.12
-7.48
-7.38
-6.88
-6.16
-5.38
-4.66
-3.98
-3.28
-2.55
-1.84
-1.27
-0.93
-0.79
-0.77
-0.77
-0.74
-0.72
-0.78
-0.94
-1.10
-1.10
-0.75
0.03
1.11
2.33
3.48
4.45
5.28
6.06
6.90
7.82
8.74
9.49
9.94
9.99
9.64
9.00
8.21
7.39
6.69
6.16
5.80
5.55
5.32
5.03
4.66
4.27
3.92
3.66
3.45
3.20
2.87
2.41
1.83
1.15
0.32
-0.67
-1.85
-3.18
-4.56
-5.86
-7.02
-8.05
-9.04
-10.09
-11.21
-12.36
-13.43
-14.29
-14.91
-15.34
-15.63
-15.78
-15.72
-15.30
-14.39
-12.95
-11.11
-9.08
-7.15
-5.47
-4.09
-2.94
-1.88
-0.87
0.02
0.69
1.02
1.01
0.75
0.39
0.07
-0.10
-0.05
0.30
0.99
1.99
3.23
4.54
5.76
6.77
7.59
8.27
8.91
9.61
10.40
11.30
12.29
13.30
14.24
15.04
15.70
16.35
17.21
18.48
20.26
22.44
24.86
27.36
29.92
32.64
35.69
39.17
43.06
47.25
51.62
56.20
61.20
66.87
73.49
81.21
89.85
98.94
107.81
115.89
122.98
129.31
135.39
141.79
148.78
156.12
163.02
168.35
170.95
169.89
164.57
154.56
139.96
121.31
99.60
75.99
51.54
26.82
1.60
-24.91
-53.77
-84.62
-115.20
-141.79
-160.77
-170.11
-170.19
-163.59
-153.78
-144.70
-138.49
-135.71
-136.38
-141.20
-151.68
-169.10
-193.32
-222.21
-253.42
-283.51
-309.13
-328.17
-340.35
-346.63
-348.04
-344.84
-336.35
-323.13
-304.75
-280.11
-248.26
-209.63
-166.02
-120.04
-74.35
-20.45
40.93
102.73
156.52
197.85
225.99
242.45
248.77
245.26
232.75
211.77
185.22
156.44
129.92
108.45
92.51
80.86
71.80
64.23
56.44
48.05
39.75
32.64
27.25
23.53
21.22
20.03
19.90
19.91
19.62
19.08
18.66
18.37
17.83
16.63
14.64
12.18
9.48
7.04
5.42
4.93
5.38
6.27
7.15
7.84
8.47
9.16
10.02
11.03
12.06
12.84
13.18
13.03
12.57
12.12
11.90
11.98
12.26
12.61
12.89
13.05
13.07
12.90
12.44
11.62
10.43
9.04
7.71
6.67
5.96
5.43
4.79
3.74
2.12
-0.06
-2.63
-5.39
-8.10
-10.60
-12.80
-14.66
-16.20
-17.51
-18.68
-19.76
-20.67
-21.24
-21.24
-20.48
-18.89
-16.60
-13.87
-10.98
-8.14
-5.41
-2.78
-0.22
2.20
4.27
5.78
6.56
6.62
6.15
5.42
4.65
3.97
3.37
2.75
2.03
1.20
0.30
-0.56
-1.27
-1.78
-2.07
-2.16
-2.08
-1.83
-1.44
-0.93
-0.39
0.12
0.50
0.65
0.59
0.38
0.10
-0.17
-0.38
-0.57
-0.77
-1.05
-1.47
-2.02
-2.70
-3.51
-4.41
-5.31
-6.10
-6.59
-6.66
-6.25
-5.43
-4.31
-3.01
-1.61
-0.12
1.48
3.19
4.97
6.73
8.37
9.82
11.01
11.93
12.53
12.82
12.78
12.43
11.81
10.96
9.95
8.89
7.90
7.07
6.49
6.13
5.96
5.85
5.73
5.53
5.23
4.87
4.49
4.14
3.85
3.60
3.32
2.93
2.35
1.57
0.65
-0.31
-1.22
-2.05
-2.83
-3.58
-4.32
-5.02
-5.64
-6.14
-6.50
-6.72
-6.81
-6.75
-6.48
-5.90
-4.95
-3.55
-1.75
0.35
2.56
4.67
6.51
8.00
9.12
9.88
10.29
10.34
10.07
9.55
8.92
8.35
7.94
7.71
7.60
7.53
7.43
7.33
7.24
7.19
7.13
7.00
6.71
6.24
5.58
4.80
3.92
3.00
2.04
1.08
0.11
-0.86
-1.79
-2.66
-3.47
-4.23
-4.99
-5.82
-6.75
-7.75
-8.76
-9.68
-10.39
-10.79
-10.76
-10.17
-8.94
-7.11
-4.83
-2.39
-0.07
1.90
3.49
4.78
5.93
7.05
8.12
9.04
9.69
9.94
9.79
9.29
8.60
7.90
7.37
7.09
7.03
7.07
7.02
6.79
6.38
5.91
5.51
5.24
5.04
4.76
4.30
3.63
2.86
2.15
1.62
1.31
1.11
0.86
0.45
-0.17
-0.95
-1.82
-2.75
-3.76
-4.89
-6.20
-7.60
-8.97
-10.12
-10.91
-11.21
-10.99
-10.24
-9.00
-7.34
-5.40
-3.35
-1.37
0.43
2.02
3.46
4.79
6.06
7.25
8.28
9.10
9.70
10.08
10.28
10.36
10.37
10.34
10.30
10.24
10.15
10.01
9.84
9.65
9.46
9.20
8.76
8.04
7.05
5.88
4.74
3.82
3.21
2.85
2.57
2.19
1.60
0.77
-0.23
-1.34
-2.47
-3.55
-4.53
-5.40
-6.17
-6.90
-7.66
-8.52
-9.48
-10.44
-11.25
-11.74
-11.78
-11.27
-10.22
-8.68
-6.78
-4.69
-2.59
-0.67
0.97
2.27
3.27
4.07
4.79
5.53
6.31
7.09
7.76
8.23
8.42
8.33
8.06
7.71
7.40
7.19
7.07
6.97
6.80
6.49
5.98
5.31
4.57
3.87
3.29
2.86
2.56
2.30
1.98
1.49
0.75
-0.26
-1.48
-2.76
-3.93
-4.86
-5.54
-6.09
-6.70
-7.53
-8.59
-9.74
-10.72
-11.31
-11.41
-11.04
-10.32
-9.35
-8.18
-6.83
-5.34
-3.79
-2.26
-0.81
0.55
1.81
2.93
3.82
4.39
4.65
4.70
4.72
4.87
5.21
5.63
6.00
6.17
6.12
5.90
5.63
5.36
5.13
4.89
4.59
4.21
3.74
3.22
2.71
2.21
1.69
1.07
0.28
-0.72
-1.84
-2.98
-4.01
-4.88
-5.58
-6.17
-6.69
-7.16
-7.57
-7.97
-8.46
-9.15
-10.10
-11.22
-12.25
-12.90
-12.95
-12.34
-11.17
-9.69
-8.11
-6.54
-4.98
-3.33
-1.52
0.40
2.21
3.72
4.78
5.37
5.64
5.80
6.02
6.35
6.79
7.25
7.67
8.00
8.21
8.26
8.14
7.85
7.47
7.10
6.84
6.71
6.63
6.49
6.17
5.58
4.75
3.74
2.64
1.54
0.49
-0.47
-1.34
-2.13
-2.85
-3.52
-4.14
-4.70
-5.24
-5.84
-6.60
-7.61
-8.88
-10.30
-11.67
-12.76
-13.38
-13.47
-13.08
-12.38
-11.50
-10.53
-9.44
-8.13
-6.49
-4.49
-2.21
0.16
2.36
4.20
5.56
6.49
7.12
7.63
8.17
8.85
9.65
10.52
11.32
11.93
12.30
12.43
12.43
12.46
12.61
12.95
13.42
13.99
14.61
15.29
16.03
16.84
17.67
18.46
19.14
19.66
20.03
20.30
20.58
20.99
21.63
22.51
23.46
24.26
24.61
24.30
23.29
21.70
19.85
18.10
16.83
16.27
16.41
16.92
17.17
16.45
14.22
10.41
5.42
0.03
-4.99
-9.19
-12.60
-15.66
-18.86
-22.50
-26.50
-30.47
-33.94
-36.58
-38.33
-39.24
-39.45
-38.95
-37.62
-35.32
-32.14
-28.57
-25.39
-23.40
-23.04
-24.12
-25.93
-27.64
-28.92
-30.20
-32.50
-36.91
-43.91
-53.08
-63.36
-73.45
-82.16
-88.34
-90.68
-87.75
-78.56
-63.37
-44.30
-24.98
-9.30
0.34
4.01
4.16
4.16
6.44
11.34
17.26
22.02
24.47
25.28
26.42
29.85
36.07
43.75
50.41
53.59
51.90
45.27
34.57
21.15
6.91
-5.63
-13.32
-13.60
-5.86
7.75
22.80
34.44
39.69
38.88
35.35
33.73
37.20
46.10
58.21
70.41
80.25
86.79
90.40
92.11
93.02
93.30
92.31
89.25
83.98
77.32
70.68
65.57
63.06
63.68
66.48
69.31
69.55
65.14
54.98
38.91
17.45
-9.92
-40.07
-66.93
-84.76
-91.54
-89.00
-80.44
-68.75
-55.60
-41.53
-26.54
-11.12
3.46
15.64
24.42
29.82
32.63
34.13
35.10
36.42
38.13
39.42
39.11
36.37
31.09
23.79
15.52
7.60
0.60
-5.31
-10.65
-16.43
-23.81
-34.09
-48.94
-70.84
-97.01
-126.45
-157.47
-187.16
-211.56
-226.60
-229.41
-219.42
-198.47
-170.03
-138.74
-108.24
-80.66
-56.63
-35.73
-16.96
0.89
19.04
38.47
58.96
79.60
98.58
113.52
122.00
122.25
113.93
98.34
78.29
56.93
37.22
21.04
8.80
-0.25
-7.43
-13.85
-20.07
-26.08
-31.80
-37.13
-42.06
-46.55
-50.40
-53.20
-54.45
-53.76
-50.98
-46.24
-39.79
-31.88
-22.81
-13.09
-3.38
5.52
12.87
18.24
21.55
22.94
22.74
21.28
19.00
16.33
13.66
11.19
8.88
6.56
4.15
1.82
0.02
-0.68
0.20
2.97
7.88
15.27
25.47
38.20
52.17
64.81
73.10
74.84
69.73
59.96
49.50
42.53
41.67
47.17
57.35
70.00
83.39
95.95
105.99
111.42
109.96
99.53
79.18
49.25
11.48
-31.82
-78.44
-125.51
-168.63
-201.81
-219.09
-216.69
-194.38
-155.57
-106.40
-55.15
-10.20
21.94
38.04
37.88
23.37
-2.07
-34.26
-63.20
-78.86
-76.36
-58.94
-33.65
-6.25
19.77
42.46
60.87
75.15
85.08
90.75
92.84
93.00
92.81
92.89
92.93
92.41
90.81
87.46
82.16
75.29
68.22
62.14
57.18
52.62
47.63
42.00
35.15
27.14
18.30
9.35
0.49
-9.40
-22.49
-41.47
-63.66
-88.46
-115.75
-145.58
-176.39
-205.23
-228.52
-243.16
-247.61
-242.66
-231.78
-218.25
-203.44
-184.93
-158.78
-122.73
-78.13
-29.56
17.29
57.67
91.72
116.57
131.35
138.02
138.58
133.44
122.57
107.19
90.05
74.83
64.04
58.91
58.34
59.18
57.89
52.57
43.77
33.87
26.17
22.86
24.94
31.63
40.40
48.33
53.06
53.50
50.11
45.00
41.40
43.21
53.05
70.10
89.49
103.84
106.31
93.58
67.23
32.70
-2.87
-33.07
-54.20
-65.05
-65.96
-58.05
-43.15
-23.88
-2.78
16.17
30.40
38.92
40.96
34.57
16.92
-13.14
-51.93
-89.79
-113.84
-113.46
-86.38
-40.96
7.61
44.08
58.70
49.63
21.72
-16.85
-56.93
-89.92
-108.85
-108.06
-84.71
-41.03
15.34
73.88
124.71
161.38
181.41
184.11
171.28
146.28
112.87
74.93
36.70
1.96
-27.64
-53.49
-80.37
-111.05
-143.65
-172.21
-188.89
-187.07
-164.81
-126.97
-76.17
-27.85
-0.13
0.47
-17.06
-36.79
-45.91
-39.52
-20.13
6.09
32.31
55.59
79.57
106.62
134.57
156.80
164.98
153.04
120.43
72.22
19.28
-26.12
-54.70
-63.65
-57.52
-44.84
-33.59
-27.59
-26.36
-25.69
-20.73
-9.41
6.77
24.31
40.07
52.43
61.21
66.27
67.38
64.33
57.10
46.36
33.83
21.93
12.85
7.69
5.96
6.27
7.07
7.03
5.26
1.35
-4.48
-11.38
-18.02
-22.95
-25.16
-24.54
-21.99
-19.10
-17.51
-18.26
-21.50
-26.59
-32.57
-38.52
-43.80
-48.05
-51.18
-53.21
-54.31
-54.74
-54.82
-54.82
-54.86
-54.82
-54.38
-53.12
-50.74
-47.09
-42.28
-36.58
-30.35
-23.96
-17.69
-11.73
-6.12
-0.76
4.58
10.12
15.94
21.78
27.03
30.89
32.62
31.93
29.15
25.26
21.55
19.16
18.68
19.86
21.82
23.41
23.67
22.20
19.20
15.26
10.99
6.85
2.97
-0.65
-4.03
-7.00
-9.34
-10.80
-11.30
-11.03
-10.34
-9.65
-9.31
-9.52
-10.31
-11.54
-12.91
-14.07
-14.67
-14.48
-13.56
-12.16
-10.60
-9.13
-7.71
-6.07
-3.87
-0.95
2.63
6.49
10.17
13.26
15.51
16.85
17.29
16.95
15.96
14.49
12.72
10.82
8.92
7.16
5.60
4.24
3.04
1.85
0.56
-0.96
-2.76
-4.79
-6.99
-9.35
-11.89
-14.75
-18.00
-21.56
-25.32
-28.99
-32.27
-34.93
-36.88
-38.17
-38.96
-39.49
-39.83
-40.22
-40.82
-41.75
-43.08
-44.76
-46.66
-48.52
-50.16
-51.04
-51.09
-50.45
-49.38
-48.19
-47.09
-46.29
-46.07
-46.92
-48.46
-50.46
-52.39
-53.52
-53.18
-50.97
-47.27
-43.23
-40.49
-37.34
-33.01
-27.40
-20.72
-12.53
-1.90
10.98
25.18
38.05
49.88
62.18
77.49
98.24
125.96
161.45
204.81
255.66
301.38
330.12
333.82
311.49
267.41
208.19
142.52
80.37
30.78
-1.36
-15.41
-16.44
-12.53
-9.66
-12.36
-21.09
-33.62
-46.99
-59.10
-67.95
-72.84
-74.18
-73.19
-71.30
-69.02
-66.16
-62.82
-58.91
-53.77
-47.42
-40.97
-36.51
-36.59
-42.68
-54.62
-70.52
-87.07
-100.31
-107.15
-106.14
-97.46
-82.60
-63.30
-40.93
-16.54
9.39
36.46
63.77
89.89
112.99
130.60
139.96
138.61
125.26
101.09
69.59
35.64
4.24
-20.51
-36.77
-44.69
-45.46
-40.46
-30.09
-14.67
3.52
20.24
31.92
37.49
38.53
40.28
44.10
49.80
56.07
61.15
61.37
55.89
45.75
33.01
20.01
8.55
0.49
-2.85
-1.17
4.61
12.75
20.52
24.94
23.87
16.59
4.46
-9.93
-23.82
-35.12
-42.54
-46.37
-48.08
-49.80
-53.64
-60.65
-70.47
-81.49
-91.30
-97.31
-98.03
-93.50
-85.18
-75.31
-65.86
-57.89
-51.50
-46.16
-41.23
-36.59
-32.61
-29.68
-27.85
-26.55
-24.85
-21.76
-16.81
-10.22
-2.96
3.76
9.04
12.60
14.65
15.83
17.25
20.23
25.73
33.86
43.78
54.07
63.17
69.63
72.80
73.37
73.05
73.33
74.55
75.91
76.19
74.54
70.22
62.49
50.70
34.46
13.83
-10.23
-35.17
-57.38
-70.98
-71.94
-62.37
-49.69
-40.60
-36.87
-36.17
-34.95
-31.14
-24.90
-18.17
-12.92
-9.76
-7.88
-6.26
-4.86
-4.01
-3.92
-4.12
-4.18
-3.70
-2.43
-0.40
1.89
3.08
1.52
-4.23
-14.89
-29.79
-46.16
-59.20
-63.52
-54.35
-33.10
-5.41
20.80
39.10
46.99
46.34
41.64
37.34
35.65
36.13
37.46
38.06
38.46
40.69
46.72
56.78
68.68
78.40
81.37
75.02
58.93
36.79
14.69
-2.02
-11.04
-14.13
-15.74
-20.48
-30.83
-47.87
-69.89
-94.07
-117.83
-138.98
-155.02
-162.78
-159.23
-134.75
-92.04
-41.65
3.63
34.71
49.20
50.51
44.66
37.04
30.54
24.39
17.95
11.66
6.79
4.47
4.90
7.30
10.58
13.62
15.33
15.99
17.32
21.38
29.41
40.89
53.46
63.59
67.87
63.76
51.52
34.04
15.52
-0.17
-10.79
-16.13
-17.55
-17.22
-17.49
-19.80
-24.43
-30.94
-37.91
-43.64
-46.73
-46.59
-43.85
-40.31
-38.17
-39.29
-44.41
-52.76
-62.29
-70.10
-73.31
-69.88
-59.41
-43.67
-26.69
-14.00
-10.84
-19.94
-39.76
-63.99
-83.19
-88.11
-73.16
-38.84
8.44
58.90
103.10
135.00
153.12
159.60
158.00
151.28
141.02
127.89
112.68
96.98
82.95
72.38
65.64
61.37
57.01
50.21
40.05
27.50
14.99
5.21
-0.13
-0.98
1.06
3.50
4.02
1.29
-4.65
-12.55
-20.62
-27.20
-31.38
-33.10
-33.01
-32.03
-30.96
-30.15
-29.55
-28.83
-27.59
-25.61
-22.96
-19.91
-16.80
-13.84
-11.13
-8.57
-6.10
-3.74
-1.65
-0.06
0.82
1.00
0.68
0.22
0.00
0.27
1.06
2.21
3.36
4.17
4.41
4.10
3.44
2.77
2.35
2.28
2.43
2.60
2.58
2.32
1.91
1.53
1.37
1.42
1.56
1.59
1.31
0.65
-0.29
-1.28
-2.07
-2.46
-2.47
-2.29
-2.33
-2.97
-4.51
-6.98
-10.16
-13.61
-16.81
-19.23
-20.49
-20.42
-19.10
-16.84
-13.98
-10.82
-7.51
-4.07
-0.48
3.19
6.70
9.67
11.80
12.90
13.00
12.32
11.16
9.79
8.49
7.39
6.59
6.04
5.63
5.18
4.61
3.92
3.19
2.56
2.11
1.84
1.71
1.70
1.84
2.13
2.57
3.07
3.50
3.75
3.74
3.40
2.69
1.61
0.23
-1.36
-3.00
-4.56
-6.03
-7.47
-9.01
-10.69
-12.38
-13.79
-14.55
-14.42
-13.33
-11.46
-9.12
-6.63
-4.24
-2.08
-0.18
1.48
2.94
4.23
5.34
6.28
6.99
7.47
7.73
7.81
7.73
7.52
7.17
6.71
6.18
5.70
5.37
5.26
5.34
5.46
5.42
5.06
4.36
3.48
2.64
2.03
1.66
1.30
0.65
-0.50
-2.12
-3.88
-5.31
-6.04
-6.03
-5.58
-5.27
-5.63
-6.92
-9.04
-11.53
-13.81
-15.34
-15.76
-15.00
-13.23
-10.81
-8.18
-5.78
-3.95
-2.85
-2.43
-2.47
-2.63
-2.58
-2.08
-1.04
0.43
2.09
3.66
4.97
5.97
6.78
7.59
8.54
9.64
10.74
11.63
12.08
11.95
11.25
10.06
8.50
6.71
4.82
2.96
1.27
-0.09
-0.99
-1.37
-1.33
-1.08
-0.84
-0.82
-1.04
-1.40
-1.79
-2.11
-2.43
-2.88
-3.63
-4.81
-6.40
-8.27
-10.20
-11.96
-13.36
-14.24
-14.50
-14.14
-13.23
-11.87
-10.13
-8.06
-5.72
-3.29
-1.02
0.90
2.32
3.27
3.97
4.83
6.22
8.21
10.56
12.81
14.48
15.13
14.58
13.20
11.87
11.58
12.91
15.84
19.77
23.86
27.12
28.74
28.84
28.44
28.85
30.98
34.91
39.98
45.24
49.26
50.56
48.84
45.31
42.21
42.02
46.89
58.00
75.06
95.12
112.41
120.86
115.91
95.68
61.42
17.19
-32.55
-77.94
-108.57
-120.44
-116.63
-103.60
-87.06
-70.44
-55.31
-42.53
-33.85
-29.97
-32.35
-40.90
-53.88
-68.81
-83.16
-95.06
-104.67
-114.50
-125.74
-141.24
-161.36
-183.42
-202.47
-212.44
-207.62
-185.10
-145.57
-93.20
-34.68
23.86
77.05
118.68
141.73
144.03
130.13
108.93
93.14
87.29
92.54
107.14
127.06
144.50
152.94
147.67
127.15
88.77
37.96
-12.57
-50.68
-72.05
-81.06
-86.16
-95.85
-111.78
-130.16
-143.93
-145.98
-133.07
-106.90
-70.74
-31.01
4.99
32.21
49.31
58.46
63.16
65.41
65.14
61.54
54.33
44.11
33.02
24.03
19.94
22.37
31.33
45.58
64.18
86.56
112.18
133.95
143.98
136.96
112.96
76.10
31.99
-13.01
-50.17
-76.94
-91.27
-92.17
-80.91
-60.74
-35.45
-8.86
17.26
42.90
68.62
95.83
126.03
159.89
196.17
230.96
257.99
270.23
261.88
229.99
176.69
108.94
36.77
-29.29
-80.72
-112.83
-125.28
-121.71
-108.67
-93.12
-80.94
-76.07
-80.65
-95.75
-121.93
-159.00
-205.35
-257.34
-309.01
-353.14
-382.91
-393.89
-385.22
-359.66
-322.69
-280.43
-237.72
-196.70
-156.94
-116.38
-73.01
-25.99
23.83
74.35
122.90
166.81
203.84
232.23
250.82
259.11
257.38
246.75
228.99
206.20
180.54
154.20
129.03
106.44
86.86
70.04
55.63
43.66
34.59
29.03
27.39
29.42
34.23
40.08
45.24
49.07
51.98
54.80
57.96
61.32
63.98
64.86
62.63
56.76
48.75
41.52
38.29
41.37
51.81
68.68
89.04
107.44
117.64
115.34
99.16
70.75
34.12
-5.21
-43.95
-75.97
-96.59
-108.67
-118.10
-128.37
-138.01
-144.09
-142.92
-131.72
-110.10
-81.45
-51.82
-27.34
-12.83
-10.94
-21.76
-41.46
-62.33
-76.63
-81.20
-77.48
-68.44
-56.48
-43.28
-30.18
-18.37
-8.99
-2.98
-0.56
-0.82
-1.64
-0.79
2.67
8.09
13.72
17.19
16.11
9.16
-2.47
-15.17
-23.47
-22.21
-8.81
15.37
45.48
72.75
90.06
94.80
89.35
79.77
72.04
68.88
68.46
65.44
53.68
29.92
-4.51
-44.54
-83.06
-113.48
-131.94
-138.25
-134.95
-125.51
-112.47
-95.31
-76.34
-57.02
-39.03
-24.24
-13.72
-7.50
-4.53
-2.98
-1.00
2.07
6.17
10.19
13.05
14.87
17.43
23.82
36.67
56.19
78.76
98.67
109.96
108.46
95.90
77.50
59.66
47.30
42.34
43.49
47.82
51.33
50.57
43.30
28.83
9.01
-12.37
-30.86
-42.76
-47.35
-46.45
-42.59
-37.18
-30.15
-20.67
-9.08
1.89
8.06
5.52
-7.26
-28.54
-53.92
-77.95
-94.88
-100.69
-93.98
-76.53
-53.52
-32.38
-20.63
-22.67
-37.27
-56.96
-71.12
-70.80
-52.65
-20.52
16.71
49.45
70.79
78.55
76.74
71.28
65.95
61.37
55.99
48.27
38.22
27.70
18.75
13.54
13.73
19.90
31.60
46.31
59.33
64.64
57.23
35.97
4.08
-28.74
-52.73
-62.56
-59.06
-47.66
-34.76
-24.49
-17.77
-13.55
-11.04
-10.69
-12.70
-15.25
-13.69
-2.09
23.50
61.94
106.41
145.85
168.12
165.25
136.51
89.19
36.32
-8.06
-34.08
-38.51
-25.27
-3.32
17.78
30.78
32.67
24.24
8.43
-11.42
-30.76
-43.94
-45.89
-33.40
-8.34
21.93
46.05
52.79
35.17
-5.02
-58.03
-111.31
-147.74
-155.02
-128.67
-73.02
0.65
76.82
141.52
185.28
203.87
199.25
176.99
144.47
109.08
81.30
62.20
47.68
38.06
32.54
29.52
25.79
17.89
3.64
-16.36
-39.35
-60.70
-76.23
-85.22
-89.30
-90.84
-90.46
-86.76
-78.39
-67.15
-57.76
-54.69
-59.52
-68.79
-76.06
-75.69
-66.82
-54.07
-45.41
-47.98
-62.85
-85.65
-110.40
-134.48
-159.95
-190.75
-228.15
-267.71
-301.02
-315.95
-301.94
-255.56
-183.40
-99.81
-21.48
38.01
71.34
75.42
53.84
15.44
-29.32
-71.40
-103.70
-121.21
-121.44
-89.79
-29.25
40.02
96.08
129.64
142.85
142.52
135.06
124.96
114.99
104.26
92.99
83.47
78.09
77.30
79.90
83.99
88.12
91.72
92.97
91.68
89.59
88.66
86.50
82.31
75.59
66.31
54.96
41.18
25.61
10.08
-3.56
-14.66
-23.14
-29.84
-35.70
-41.33
-47.50
-54.12
-60.32
-65.04
-67.86
-68.36
-66.83
-63.94
-60.25
-56.30
-52.24
-47.90
-43.09
-38.10
-32.92
-28.11
-24.44
-22.39
-22.00
-22.81
-24.05
-24.98
-25.22
-24.15
-21.86
-18.73
-15.00
-10.48
-4.34
4.89
19.44
37.34
58.62
83.21
110.35
138.12
163.34
182.17
191.30
189.20
176.67
157.28
135.20
113.85
94.99
78.79
64.56
51.69
40.12
30.05
21.94
15.45
9.66
3.60
-3.10
-10.03
-16.27
-20.90
-23.63
-24.53
-24.31
-23.78
-23.48
-23.49
-23.58
-23.48
-22.98
-22.22
-21.28
-20.42
-19.76
-19.31
-18.89
-18.23
-17.15
-15.59
-13.78
-12.10
-11.09
-11.23
-12.71
-15.24
-18.10
-20.33
-21.02
-19.69
-16.40
-11.70
-6.35
-1.15
3.27
6.46
8.07
7.98
6.33
3.64
0.66
-1.85
-3.44
-4.05
-3.97
-3.58
-3.16
-2.93
-3.07
-3.77
-5.16
-7.17
-9.35
-11.01
-11.52
-10.55
-8.31
-5.37
-2.35
0.31
2.51
4.31
5.75
6.80
7.36
7.42
7.13
6.71
6.35
6.13
5.97
5.81
5.66
5.68
6.07
6.90
8.09
9.43
10.65
11.53
11.99
12.02
11.70
11.18
10.56
9.94
9.33
8.61
7.71
6.58
5.26
3.85
2.42
0.93
-0.71
-2.61
-4.77
-7.02
-9.13
-10.82
-11.99
-12.64
-12.93
-13.05
-13.23
-13.62
-14.25
-14.98
-15.58
-15.73
-15.25
-14.12
-12.56
-10.86
-9.29
-7.88
-6.50
-4.95
-3.08
-0.98
1.12
2.87
4.05
4.57
4.58
4.31
3.97
3.64
3.29
2.86
2.33
1.84
1.59
1.78
2.47
3.53
4.66
5.51
5.88
5.72
5.24
4.67
4.23
4.00
3.90
3.83
3.71
3.55
3.41
3.36
3.37
3.33
3.07
2.41
1.34
-0.05
-1.54
-2.94
-4.20
-5.44
-6.85
-8.57
-10.53
-12.42
-13.80
-14.29
-13.74
-12.29
-10.31
-8.26
-6.44
-4.94
-3.63
-2.28
-0.73
0.98
2.64
3.95
4.66
4.70
4.23
3.54
2.95
2.63
2.56
2.59
2.54
2.30
1.91
1.52
1.33
1.46
1.94
2.71
3.70
4.85
6.20
7.78
9.54
11.32
12.83
13.77
13.96
13.48
12.64
11.81
11.26
11.02
10.80
10.24
9.05
7.18
4.81
2.26
-0.20
-2.45
-4.52
-6.50
-8.41
-10.11
-11.34
-11.88
-11.67
-10.88
-9.80
-8.80
-8.04
-7.45
-6.80
-5.81
-4.32
-2.47
-0.51
1.19
2.37
2.95
3.03
2.80
2.45
2.15
1.96
1.90
1.91
1.97
2.08
2.30
2.72
3.41
4.34
5.36
6.24
6.81
7.00
6.91
6.74
6.58
6.42
6.12
5.50
4.47
3.13
1.65
0.26
-0.94
-1.94
-2.84
-3.68
-4.41
-4.96
-5.23
-5.26
-5.21
-5.32
-5.75
-6.55
-7.52
-8.38
-8.89
-8.90
-8.48
-7.75
-6.81
-5.68
-4.29
-2.57
-0.56
1.52
3.39
4.76
5.53
5.76
5.67
5.50
5.41
5.43
5.47
5.46
5.36
5.23
5.18
5.24
5.37
5.43
5.30
4.89
4.26
3.52
2.81
2.27
1.91
1.73
1.65
1.58
1.44
1.14
0.60
-0.18
-1.13
-2.11
-2.94
-3.51
-3.83
-4.02
-4.24
-4.68
-5.44
-6.50
-7.79
-9.15
-10.44
-11.51
-12.28
-12.68
-12.70
-12.32
-11.59
-10.53
-9.13
-7.43
-5.52
-3.58
-1.86
-0.64
-0.13
-0.35
-1.12
-2.12
-2.96
-3.30
-3.03
-2.27
-1.39
-0.83
-0.99
-2.08
-3.98
-6.32
-8.54
-10.05
-10.40
-9.39
-7.13
-3.97
-0.54
2.54
4.70
5.64
5.37
4.17
2.47
0.69
-0.82
-1.82
-2.23
-2.06
-1.46
-0.72
-0.16
-0.08
-0.59
-1.51
-2.49
-3.09
-3.07
-2.43
-1.43
-0.37
0.54
1.32
2.16
3.26
4.76
6.59
8.60
10.53
12.11
13.10
13.34
12.85
11.83
10.74
10.03
10.04
10.80
11.98
13.05
13.44
12.68
10.52
6.96
2.32
-2.79
-7.51
-10.91
-12.30
-11.52
-8.97
-5.53
-2.12
0.63
2.57
3.96
5.16
6.41
7.60
8.44
8.56
7.81
6.28
4.34
2.43
0.96
0.21
0.25
0.98
2.18
3.54
4.81
5.94
7.02
8.33
10.20
12.89
16.54
21.11
26.49
32.54
39.09
46.08
53.47
61.26
69.41
77.72
85.74
92.89
98.56
102.43
104.53
105.11
104.22
101.36
95.30
84.28
66.60
41.06
7.23
-34.70
-84.12
-139.74
-199.09
-257.98
-310.67
-351.03
-374.37
-378.97
-366.52
-341.05
-307.03
-267.76
-224.81
-178.73
-130.25
-81.13
-33.97
8.65
45.13
75.23
99.75
119.84
136.64
151.16
164.41
177.53
191.66
207.51
225.07
243.46
261.15
276.50
288.32
296.51
302.44
308.89
319.15
335.47
357.37
380.91
399.24
404.79
392.07
359.76
311.07
252.15
189.56
127.97
69.28
13.21
-41.27
-94.92
-147.88
-200.03
-251.14
-300.59
-346.78
-386.50
-415.35
-428.99
-424.82
-403.14
-367.31
-322.47
-273.96
-225.93
-180.85
-139.84
-103.34
-71.49
-44.12
-20.56
0.50
20.55
40.64
60.64
78.76
92.07
97.78
94.72
84.42
71.18
60.59
57.34
62.89
74.46
86.09
91.30
86.16
71.05
50.24
29.52
13.27
2.80
-3.54
-8.59
-14.53
-21.98
-30.42
-39.29
-48.75
-59.57
-72.15
-85.74
-98.51
-108.56
-115.15
-119.18
-122.77
-128.09
-136.24
-146.89
-158.65
-169.77
-178.59
-183.63
-183.48
-176.85
-162.98
-142.23
-116.35
-88.23
-61.11
-37.65
-19.27
-6.14
2.42
7.41
9.79
10.44
10.10
9.39
8.71
8.02
6.97
5.08
2.10
-1.77
-5.90
-9.60
-12.48
-14.65
-16.64
-18.94
-21.69
-24.58
-27.14
-29.02
-30.31
-31.39
-32.71
-34.47
-36.71
-39.35
-42.54
-46.61
-51.75
-57.50
-62.41
-64.22
-60.45
-49.37
-30.54
-5.14
24.44
55.21
84.38
109.82
130.20
144.88
153.55
156.16
152.96
144.69
132.63
118.43
103.55
88.81
74.21
59.28
43.71
27.89
13.04
0.66
-8.20
-13.57
-16.47
-18.30
-20.14
-22.22
-24.14
-25.31
-25.55
-25.24
-25.15
-25.99
-27.99
-30.82
-33.76
-36.11
-37.53
-38.25
-38.94
-40.42
-43.21
-47.32
-52.12
-56.67
-60.13
-62.24
-63.45
-64.73
-66.95
-70.41
-74.73
-79.05
-82.25
-82.91
-79.08
-68.42
-48.85
-19.89
16.37
55.27
90.98
118.66
136.36
145.55
150.00
153.78
159.54
167.85
177.72
187.72
196.57
203.44
207.60
208.21
204.46
195.91
182.93
166.96
150.25
135.00
122.13
110.43
96.54
76.17
46.29
7.12
-37.03
-78.84
-110.56
-126.77
-126.31
-112.53
-91.86
-71.77
-58.93
-58.06
-71.64
-99.83
-140.22
-187.57
-234.24
-271.24
-290.36
-286.41
-258.68
-210.94
-149.78
-82.43
-15.07
47.58
101.84
144.26
171.91
183.32
179.75
165.46
146.59
129.06
116.48
109.38
105.61
101.83
95.08
83.76
67.85
48.58
27.76
7.15
-11.81
-28.17
-41.28
-50.40
-54.40
-51.97
-41.95
-23.86
1.71
33.04
67.38
101.38
131.39
153.96
166.22
166.41
154.34
131.35
100.05
63.60
25.07
-12.98
-48.62
-80.27
-106.71
-127.00
-140.93
-149.19
-153.62
-156.77
-161.16
-168.46
-178.81
-190.85
-202.43
-211.66
-217.74
-221.42
-224.65
-229.66
-237.88
-248.91
-260.38
-268.43
-269.00
-259.32
-239.00
-210.24
-176.86
-142.76
-110.36
-80.04
-50.36
-19.12
15.69
55.31
99.70
147.50
196.15
242.21
282.11
313.16
334.40
346.88
352.97
354.94
354.19
351.28
346.58
340.96
335.93
333.17
333.90
338.28
344.74
350.79
353.93
352.27
344.55
330.01
308.49
280.67
248.15
212.11
173.49
133.09
91.92
51.10
11.58
-26.01
-61.38
-94.60
-127.33
-161.56
-198.43
-237.27
-276.02
-312.45
-344.98
-373.06
-389.30
-387.01
-364.38
-326.96
-283.68
-241.43
-203.17
-169.13
-138.53
-110.60
-86.20
-66.66
-52.65
-43.37
-36.91
-31.35
-25.38
-18.51
-10.78
-3.57
1.59
3.97
4.13
3.54
3.65
5.25
8.34
12.32
15.77
17.38
16.66
14.29
11.72
10.32
10.76
12.78
15.46
17.31
17.26
15.17
11.96
9.18
8.01
8.90
11.20
13.53
14.18
11.83
5.55
-5.17
-20.16
-37.98
-55.44
-67.96
-70.37
-60.55
-40.04
-14.07
10.37
27.53
35.07
34.49
29.65
24.43
20.87
19.12
18.20
17.26
16.20
15.49
15.52
16.20
17.11
17.75
17.93
17.82
17.70
17.67
17.63
17.40
16.75
15.68
14.30
12.95
12.09
12.37
14.49
18.63
23.79
27.52
26.60
18.50
3.04
-16.86
-36.23
-50.19
-56.14
-54.85
-49.65
-44.31
-40.91
-38.81
-35.80
-30.05
-21.63
-12.34
-4.18
2.25
8.00
14.69
22.96
31.60
37.74
38.52
32.68
21.39
7.75
-4.46
-12.19
-13.92
-9.89
-1.86
7.33
14.40
16.41
11.95
1.68
-11.89
-25.38
-35.81
-41.74
-43.71
-43.53
-43.06
-43.45
-44.62
-44.90
-41.57
-31.60
-14.04
8.63
30.47
44.28
44.98
32.60
12.86
-5.24
-13.94
-10.63
1.29
14.16
20.68
18.03
9.00
-0.72
-6.17
-5.94
-2.56
-0.71
-5.07
-17.93
-38.82
-64.36
-89.39
-108.13
-116.23
-112.19
-98.04
-78.51
-59.01
-43.67
-34.02
-29.31
-27.38
-26.68
-27.01
-29.16
-33.90
-40.93
-48.69
-54.96
-58.10
-57.29
-53.23
-47.68
-42.34
-38.05
-34.20
-28.81
-18.84
-4.50
14.52
37.71
64.13
92.87
123.32
154.87
186.08
214.20
235.25
245.76
243.66
229.46
206.12
177.85
148.45
119.99
92.85
66.51
41.11
17.58
-2.51
-17.88
-28.16
-34.17
-37.39
-39.17
-40.24
-40.32
-38.70
-34.76
-28.40
-20.18
-11.08
-2.19
5.74
12.43
18.19
23.49
28.63
33.46
37.41
39.69
39.74
37.53
33.60
28.94
24.68
21.78
20.87
22.04
24.90
28.52
31.85
34.06
35.18
36.19
38.80
44.68
54.50
67.56
81.92
95.26
105.79
113.00
117.72
121.83
127.98
139.26
158.65
188.04
226.87
271.32
314.73
349.41
369.39
372.60
361.46
341.40
318.22
295.72
274.80
254.26
232.38
208.34
182.44
155.38
127.26
97.09
63.23
24.39
-19.38
-66.32
-113.44
-157.36
-195.54
-226.97
-252.23
-273.14
-292.10
-311.42
-332.70
-356.19
-380.40
-402.13
-417.11
-421.18
-411.72
-388.75
-355.15
-316.03
-277.14
-243.26
-217.04
-198.70
-186.53
-177.84
-169.91
-160.67
-149.01
-134.95
-119.50
-104.42
-91.71
-83.01
-79.17
-79.81
-83.45
-87.90
-90.88
-90.52
-85.70
-76.11
-62.17
-44.86
-25.70
-6.52
10.75
24.51
33.78
38.35
38.63
35.41
29.49
21.57
12.17
1.71
-9.31
-20.32
-30.66
-39.73
-46.98
-52.05
-54.81
-55.40
-54.20
-51.79
-48.79
-45.76
-43.15
-41.19
-39.86
-38.71
-36.79
-32.84
-25.83
-15.59
-3.21
9.24
19.44
25.95
28.77
29.14
28.68
28.39
28.16
27.05
24.15
19.33
13.51
8.20
4.79
3.96
5.52
8.65
12.45
16.26
19.82
23.17
26.36
29.29
31.61
32.88
32.81
31.46
29.36
27.32
26.06
25.91
26.74
28.01
29.12
29.66
29.55
28.99
28.30
27.75
27.55
27.75
28.34
29.19
30.09
30.70
30.66
29.71
27.78
25.08
22.05
19.23
17.06
15.74
15.28
15.46
15.99
16.55
16.85
16.70
16.00
14.78
13.27
11.90
11.18
11.45
12.72
14.63
16.48
17.58
17.50
16.22
14.17
11.96
10.12
8.93
8.31
8.00
7.66
7.06
6.09
4.76
3.15
1.40
-0.31
-1.85
-3.11
-4.08
-4.78
-5.31
-5.82
-6.52
-7.62
-9.29
-11.52
-14.11
-16.67
-18.76
-20.07
-20.54
-20.45
-20.26
-20.47
-21.48
-23.45
-26.38
-30.05
-34.16
-38.32
-42.19
-45.51
-48.27
-50.67
-53.12
-56.06
-59.86
-64.67
-70.27
-76.01
-80.83
-83.44
-82.63
-77.72
-68.86
-56.95
-43.44
-29.78
-17.03
-5.66
4.23
12.70
19.72
25.21
29.14
31.69
33.29
34.53
35.90
37.69
39.96
42.57
45.28
47.76
49.66
50.70
50.71
49.65
47.63
44.86
41.56
37.95
34.25
30.65
27.37
24.48
22.01
19.84
17.84
15.92
14.05
12.22
10.39
8.47
6.32
3.91
1.35
-1.09
-3.09
-4.41
-5.00
-4.95
-4.46
-3.75
-3.02
-2.42
-2.07
-2.04
-2.30
-2.67
-2.89
-2.68
-1.88
-0.55
1.08
2.70
4.12
5.27
6.23
7.13
8.06
9.06
10.10
11.16
12.23
13.35
14.58
15.93
17.38
18.80
20.03
20.89
21.28
21.15
20.61
19.79
18.82
17.80
16.69
15.40
13.80
11.89
9.75
7.67
6.02
5.19
5.44
6.75
8.79
10.93
12.58
13.28
12.99
12.08
11.16
10.84
11.55
13.38
16.19
19.69
23.61
27.77
32.10
36.55
41.07
45.59
50.04
54.41
58.60
62.29
64.77
65.05
62.07
55.27
44.77
31.49
16.80
2.08
-11.61
-23.59
-33.40
-40.63
-44.83
-45.79
-43.78
-39.61
-34.42
-29.32
-24.92
-21.23
-17.82
-14.09
-9.67
-4.56
0.80
5.77
9.73
12.38
13.67
13.89
13.34
12.26
10.68
8.50
5.65
2.21
-1.44
-4.66
-6.73
-7.06
-5.43
-2.16
1.97
5.96
8.87
10.30
10.47
10.33
11.18
14.31
20.43
29.15
38.94
47.42
52.17
51.58
45.47
35.10
22.62
10.17
-0.81
-9.84
-17.16
-23.10
-27.62
-30.11
-29.64
-25.35
-17.01
-5.15
8.92
23.33
36.23
46.22
52.84
56.67
58.94
60.81
62.58
63.23
60.60
52.35
36.89
14.29
-13.68
-44.01
-73.09
-97.53
-115.05
-125.36
-130.50
-134.17
-140.09
-149.79
-161.21
-168.95
-166.64
-150.08
-119.58
-80.08
-38.96
-2.97
24.11
41.75
51.55
55.42
54.65
49.91
41.93
31.99
21.93
13.57
8.14
5.90
6.18
7.84
9.72
11.02
11.53
11.57
11.85
13.02
15.31
18.52
22.04
24.91
26.21
25.31
22.11
16.96
10.45
3.31
-3.78
-10.11
-15.64
-20.91
-27.11
-35.66
-48.01
-65.51
-89.03
-118.37
-151.52
-185.29
-214.93
-235.03
-240.24
-227.00
-195.35
-149.38
-96.04
-42.70
3.99
39.86
62.83
72.44
68.51
50.54
18.50
-25.57
-69.26
-97.67
-99.61
-74.85
-33.20
12.23
51.01
77.61
90.94
93.14
86.94
76.96
67.57
63.46
68.64
84.60
109.42
137.64
160.35
170.21
165.32
148.70
126.07
102.61
81.11
62.14
45.51
31.81
22.23
17.81
18.33
22.63
29.31
36.42
42.21
45.24
44.72
40.67
33.78
25.14
16.13
8.11
1.80
-2.74
-6.04
-8.58
-10.42
-11.34
-11.23
-10.05
-8.12
-5.79
-3.35
-0.99
1.39
4.15
7.48
11.21
15.19
19.41
23.77
28.00
31.44
33.46
33.65
31.46
26.75
20.43
14.36
10.41
9.88
12.89
18.59
24.89
27.67
22.65
7.49
-16.83
-46.33
-74.94
-96.45
-106.39
-104.09
-91.15
-73.21
-58.30
-52.15
-56.70
-66.42
-74.08
-73.50
-59.12
-30.71
9.46
57.78
110.39
162.58
205.11
227.62
224.46
205.66
175.69
137.25
91.02
42.29
-2.70
-38.68
-62.43
-73.00
-71.81
-63.72
-53.18
-43.14
-34.68
-28.31
-24.00
-21.25
-19.11
-16.80
-15.24
-14.80
-15.13
-15.17
-14.29
-12.38
-9.80
-7.32
-6.09
-8.14
-14.38
-24.32
-36.08
-47.54
-56.95
-63.44
-67.20
-69.30
-71.52
-75.02
-80.12
-86.33
-93.00
-99.50
-105.09
-108.90
-110.01
-108.12
-103.83
-99.15
-97.06
-100.40
-110.15
-124.47
-138.99
-148.35
-148.32
-137.28
-116.43
-88.70
-57.33
-24.58
8.51
41.70
74.83
107.09
136.75
161.40
178.51
186.25
184.15
173.33
156.27
136.02
115.31
95.85
78.39
63.18
50.47
40.66
34.03
30.40
28.85
27.97
26.38
23.36
18.96
13.97
9.45
6.19
4.46
3.92
3.89
3.69
3.00
1.97
1.14
1.10
2.17
4.21
6.70
8.97
10.53
11.27
11.43
11.49
11.86
12.74
14.06
15.53
16.82
17.71
18.11
18.11
17.89
17.71
17.77
18.20
18.92
19.61
19.91
19.58
18.74
17.88
17.65
18.51
20.45
22.80
24.55
24.88
23.57
21.30
19.28
18.64
20.05
23.34
27.56
31.54
34.40
35.79
36.13
36.18
36.60
38.02
40.83
44.83
49.21
52.52
52.68
48.01
37.69
22.20
3.97
-13.35
-26.61
-34.59
-38.53
-42.01
-48.49
-59.77
-74.74
-88.98
-96.63
-93.70
-80.02
-59.01
-36.22
-15.35
2.94
17.07
26.50
31.79
33.76
32.72
32.42
32.21
31.88
31.62
31.28
28.10
20.74
9.02
-5.74
-21.07
-34.88
-45.22
-51.33
-53.78
-53.42
-50.82
-46.76
-42.21
-38.13
-35.64
-34.97
-35.79
-37.56
-39.43
-40.39
-40.03
-38.46
-36.23
-34.17
-32.63
-31.53
-30.53
-29.03
-26.28
-21.94
-16.11
-9.29
-2.25
4.41
10.25
14.95
18.31
20.31
20.98
20.49
19.19
17.48
15.80
14.44
13.41
12.61
11.93
11.37
10.97
10.78
10.69
10.48
9.93
8.97
7.76
6.60
5.79
5.44
5.49
5.76
6.07
6.30
6.38
6.22
5.66
4.60
2.96
0.87
-1.49
-3.97
-6.49
-9.05
-11.72
-14.49
-17.24
-19.80
-21.93
-23.47
-24.28
-24.30
-23.51
-21.97
-19.79
-17.16
-14.33
-11.46
-8.66
-5.97
-3.36
-0.82
1.61
3.90
6.03
8.02
9.93
11.80
13.64
15.36
16.81
17.83
18.31
18.26
17.82
17.17
16.48
15.83
15.20
14.49
13.61
12.60
11.57
10.69
10.09
9.75
9.57
9.41
9.13
8.72
8.20
7.58
6.78
5.66
4.09
2.06
-0.26
-2.64
-4.80
-6.65
-8.24
-9.80
-11.49
-13.37
-15.25
-16.79
-17.65
-17.62
-16.75
-15.31
-13.64
-12.02
-10.58
-9.27
-7.96
-6.53
-4.90
-3.10
-1.18
0.79
2.75
4.59
6.20
7.48
8.39
8.96
9.29
9.52
9.77
10.13
10.65
11.30
12.02
12.74
13.41
14.01
14.58
15.12
15.63
16.06
16.32
16.37
16.26
16.05
15.85
15.73
15.64
15.48
15.16
14.67
14.15
13.85
13.99
14.65
15.68
16.68
17.17
16.79
15.52
13.68
11.84
10.47
9.75
9.50
9.33
8.92
8.18
7.27
6.44
5.83
5.37
4.86
4.16
3.19
1.88
-0.19
-3.89
-10.19
-19.64
-31.71
-44.46
-55.02
-60.51
-59.11
-50.85
-37.60
-22.32
-7.96
3.47
11.35
16.08
18.60
19.90
20.91
22.65
26.35
33.14
43.49
56.56
69.94
80.12
83.67
78.48
64.62
44.33
21.18
-1.17
-20.01
-34.07
-43.40
-48.76
-51.10
-51.07
-49.01
-45.14
-39.88
-33.94
-28.31
-23.93
-21.37
-20.68
-21.40
-22.83
-24.32
-25.53
-26.41
-27.12
-27.79
-28.41
-28.75
-28.52
-27.50
-25.71
-23.43
-21.07
-19.03
-17.55
-16.61
-16.03
-15.56
-15.02
-14.36
-13.69
-13.15
-12.92
-13.12
-13.79
-14.86
-16.25
-17.79
-19.38
-20.93
-22.41
-23.84
-25.24
-26.71
-28.36
-30.46
-33.27
-37.03
-41.65
-46.61
-51.02
-53.90
-54.49
-52.57
-48.37
-42.46
-35.37
-27.43
-18.79
-9.60
-0.09
9.29
18.00
25.57
31.66
36.16
39.10
40.63
40.98
40.43
39.27
37.76
36.13
34.58
33.34
32.66
32.77
33.76
35.39
37.17
38.39
38.46
37.10
34.50
31.14
27.68
24.70
22.55
21.45
21.44
22.49
24.46
27.09
30.07
33.12
36.02
38.68
41.02
42.90
44.10
44.42
43.72
42.04
39.49
36.20
32.29
27.84
23.03
18.18
13.73
10.01
7.18
5.15
3.67
2.41
1.18
-0.12
-1.53
-3.04
-4.71
-6.61
-8.71
-10.93
-13.03
-14.74
-15.85
-16.29
-16.13
-15.60
-14.93
-14.26
-13.61
-12.89
-11.97
-10.79
-9.43
-8.09
-6.97
-6.22
-5.86
-5.74
-5.67
-5.48
-5.14
-4.72
-4.33
-4.06
-3.87
-3.62
-3.18
-2.49
-1.69
-1.01
-0.71
-0.90
-1.49
-2.26
-2.93
-3.30
-3.30
-2.98
-2.40
-1.68
-0.91
-0.22
0.28
0.49
0.38
-0.01
-0.63
-1.41
-2.35
-3.43
-4.61
-5.74
-6.63
-7.09
-7.05
-6.57
-5.83
-5.08
-4.46
-4.07
-3.85
-3.68
-3.42
-2.90
-2.02
-0.68
1.12
3.33
5.86
8.62
11.53
14.58
17.78
21.17
24.70
28.20
31.36
33.77
35.12
35.37
34.81
34.12
34.04
35.16
37.73
41.63
46.51
52.04
58.02
64.26
70.39
75.78
79.61
81.24
80.55
78.02
74.44
70.51
66.49
62.26
57.74
53.21
49.30
46.36
43.81
39.90
32.32
19.48
1.65
-18.65
-37.51
-51.21
-57.81
-57.83
-53.83
-49.21
-46.99
-49.24
-57.20
-71.85
-93.64
-121.71
-152.97
-181.66
-200.34
-202.10
-183.36
-145.92
-97.03
-47.01
-5.53
21.57
33.61
33.84
27.00
16.77
4.98
-7.79
-20.68
-31.79
-38.58
-39.23
-33.95
-25.21
-16.57
-10.87
-8.92
-9.45
-10.24
-9.53
-6.70
-2.41
2.13
5.93
8.56
10.14
10.95
11.39
11.95
13.45
16.80
22.55
30.47
39.27
46.97
51.57
52.04
48.66
43.07
37.43
33.56
32.23
33.00
34.68
36.09
36.69
36.55
35.84
34.12
30.10
22.30
10.10
-5.30
-21.05
-33.85
-41.82
-45.47
-47.34
-50.20
-55.03
-60.36
-63.68
-64.03
-63.78
-67.87
-80.74
-102.68
-128.16
-147.54
-151.35
-134.89
-100.38
-55.75
-10.84
26.53
52.77
68.04
74.42
74.04
68.23
57.96
44.54
30.00
16.82
7.26
2.63
2.92
6.59
11.17
14.10
13.73
9.99
4.44
-0.51
-2.68
-1.27
2.86
7.67
11.12
12.09
10.82
8.57
6.73
6.11
6.56
7.27
7.34
6.36
4.54
2.61
1.29
0.95
1.42
2.15
2.49
2.06
0.87
-0.75
-2.31
-3.44
-3.99
-4.07
-3.90
-3.73
-3.64
-3.61
-3.54
-3.36
-3.13
-3.01
-3.12
-3.57
-4.32
-5.24
-6.15
-6.97
-7.68
-8.42
-9.29
-10.40
-11.76
-13.30
-14.85
-16.26
-17.33
-17.90
-17.83
-17.11
-15.80
-14.07
-12.12
-10.14
-8.25
-6.46
-4.71
-2.92
-1.03
0.94
2.93
4.81
6.43
7.72
8.67
9.38
9.98
10.62
11.38
12.26
13.18
13.99
14.50
14.58
14.15
13.25
12.03
10.69
9.43
8.39
7.56
6.88
6.22
5.46
4.51
3.38
2.09
0.72
-0.65
-1.94
-3.04
-3.86
-4.36
-4.56
-4.56
-4.50
-4.52
-4.73
-5.22
-6.02
-7.08
-8.26
-9.33
-9.97
-9.93
-9.10
-7.54
-5.55
-3.47
-1.62
-0.11
1.11
2.23
3.40
4.64
5.85
6.89
7.62
8.03
8.16
8.09
7.90
7.60
7.20
6.77
6.39
6.20
6.27
6.55
6.83
6.90
6.60
5.94
5.07
4.24
3.63
3.30
3.20
3.16
3.07
2.85
2.49
1.99
1.33
0.47
-0.59
-1.82
-3.15
-4.45
-5.69
-6.88
-8.10
-9.47
-11.02
-12.68
-14.28
-15.63
-16.51
-16.79
-16.37
-15.22
-13.39
-10.97
-8.15
-5.15
-2.22
0.46
2.80
4.85
6.77
8.66
10.59
12.53
14.39
16.08
17.54
18.70
19.51
19.86
19.68
18.98
17.87
16.59
15.38
14.43
13.83
13.52
13.40
13.33
13.20
12.87
12.27
11.37
10.20
8.85
7.42
6.04
4.80
3.79
3.07
2.65
2.42
2.18
1.71
0.84
-0.46
-2.07
-3.79
-5.45
-7.04
-8.58
-10.13
-11.65
-13.00
-13.95
-14.32
-14.03
-13.12
-11.72
-9.98
-8.04
-6.01
-3.95
-1.93
-0.04
1.64
3.07
4.23
5.19
6.05
6.94
7.94
9.06
10.20
11.24
12.07
12.66
13.06
13.38
13.70
14.02
14.25
14.17
13.62
12.49
10.90
9.15
7.61
6.57
6.05
5.87
5.67
5.21
4.45
3.58
2.85
2.44
2.30
2.24
2.02
1.54
0.85
0.10
-0.56
-1.09
-1.51
-1.91
-2.36
-2.91
-3.56
-4.27
-4.96
-5.50
-5.74
-5.56
-4.93
-3.91
-2.62
-1.18
0.31
1.86
3.47
5.12
6.76
8.23
9.45
10.32
10.89
11.25
11.52
11.83
12.18
12.49
12.60
12.36
11.68
10.65
9.48
8.44
7.76
7.48
7.46
7.43
7.14
6.44
5.36
4.03
2.60
1.22
-0.07
-1.22
-2.23
-3.10
-3.89
-4.63
-5.34
-5.95
-6.34
-6.35
-5.89
-5.08
-4.19
-3.57
-3.49
-3.99
-4.94
-6.07
-7.13
-7.93
-8.38
-8.45
-8.11
-7.28
-5.94
-4.12
-1.93
0.42
2.71
4.70
6.25
7.30
7.88
8.09
8.02
7.83
7.65
7.63
7.80
8.14
8.53
8.81
8.83
8.49
7.87
7.04
6.17
5.31
4.48
3.66
2.81
1.96
1.16
0.49
-0.03
-0.37
-0.59
-0.78
-1.04
-1.48
-2.19
-3.14
-4.26
-5.45
-6.62
-7.72
-8.76
-9.78
-10.77
-11.65
-12.33
-12.76
-12.97
-13.11
-13.29
-13.56
-13.84
-14.01
-13.90
-13.40
-12.45
-11.03
-9.13
-6.81
-4.17
-1.43
1.17
3.38
5.08
6.29
7.17
7.92
8.70
9.58
10.51
11.37
12.05
12.47
12.65
12.73
12.89
13.30
14.06
15.08
16.13
16.95
17.30
17.17
16.69
16.12
15.66
15.38
15.20
14.98
14.60
14.09
13.58
13.27
13.28
13.61
14.18
14.80
15.31
15.59
15.58
15.30
14.85
14.35
13.90
13.45
12.86
11.88
10.32
8.10
5.34
2.26
-0.87
-3.80
-6.38
-8.59
-10.53
-12.44
-14.63
-17.34
-20.64
-24.32
-27.96
-31.13
-33.59
-35.45
-37.02
-38.62
-40.30
-41.65
-41.94
-40.25
-35.71
-27.81
-16.44
-2.12
14.01
30.16
44.20
54.13
58.76
58.08
53.46
47.22
41.88
39.48
40.92
46.04
53.76
62.73
71.77
80.26
88.14
95.67
103.13
110.53
117.59
123.85
128.96
132.87
135.80
138.13
140.15
141.95
143.22
143.24
140.84
134.51
122.66
104.15
78.85
48.21
15.29
-15.70
-40.45
-55.63
-59.85
-54.01
-41.04
-25.08
-10.47
-0.91
1.17
-5.07
-19.02
-38.79
-61.68
-84.82
-105.77
-123.14
-136.82
-147.94
-158.49
-170.98
-187.71
-209.99
-237.28
-266.66
-292.94
-309.85
-311.81
-295.77
-262.16
-214.39
-157.48
-96.61
-36.23
19.94
68.55
106.45
131.25
142.11
140.51
129.96
115.00
99.82
87.20
78.20
72.74
70.34
70.68
73.68
79.23
86.71
94.85
101.84
105.83
105.61
101.12
93.49
84.66
76.76
71.43
69.60
71.31
75.73
81.10
85.00
84.94
79.44
69.00
56.29
45.07
38.25
36.22
36.39
34.58
27.35
14.09
-2.70
-18.84
-30.70
-37.02
-39.24
-40.53
-43.94
-51.01
-61.07
-71.68
-79.71
-82.84
-80.61
-74.72
-68.21
-63.94
-63.16
-64.85
-66.40
-65.22
-60.26
-52.60
-44.96
-40.11
-39.68
-43.51
-49.99
-56.87
-62.20
-64.99
-65.43
-64.64
-64.13
-65.00
-67.42
-70.43
-72.42
-71.98
-68.61
-63.05
-56.78
-51.28
-47.23
-44.29
-41.55
-38.15
-33.86
-29.03
-24.32
-20.08
-16.16
-12.14
-7.67
-2.81
2.03
6.34
10.12
13.95
18.91
26.07
35.99
48.30
61.68
74.01
82.74
85.28
79.62
65.06
42.75
15.70
-12.04
-36.74
-56.38
-71.20
-82.93
-93.12
-101.62
-106.12
-103.41
-91.52
-71.45
-47.29
-24.52
-7.52
2.29
6.53
8.45
10.67
13.92
17.05
18.25
16.44
12.03
6.38
0.84
-4.20
-9.42
-15.91
-24.39
-34.58
-45.19
-54.50
-61.02
-64.06
-63.77
-60.92
-56.53
-51.52
-46.50
-41.74
-37.24
-32.89
-28.60
-24.48
-20.86
-18.19
-16.82
-16.80
-17.79
-19.28
-20.77
-22.10
-23.40
-24.95
-26.86
-28.89
-30.52
-31.15
-30.51
-28.68
-26.07
-23.15
-20.16
-17.03
-13.40
-8.94
-3.51
2.72
9.35
15.90
21.94
27.22
31.65
35.30
38.25
40.67
42.61
44.05
44.83
44.66
43.24
40.42
36.39
31.69
27.07
23.15
20.25
18.24
16.61
14.88
12.67
10.01
7.21
4.77
3.07
2.29
2.30
2.75
3.32
3.81
4.31
5.07
6.41
8.54
11.53
15.23
19.40
23.78
28.04
31.94
35.22
37.81
39.80
41.52
43.35
45.43
47.46
48.55
47.54
43.45
36.06
26.16
15.55
6.47
0.90
-0.06
3.45
10.10
17.78
24.34
28.15
28.57
25.90
21.08
15.13
8.82
2.53
-3.58
-9.30
-14.26
-18.03
-20.43
-21.72
-22.57
-23.79
-25.95
-29.06
-32.64
-35.96
-38.32
-39.37
-39.09
-37.74
-35.70
-33.35
-30.91
-28.43
-25.80
-22.87
-19.48
-15.60
-11.32
-6.88
-2.54
1.51
5.18
8.47
11.45
14.13
16.48
18.43
19.89
20.86
21.44
21.87
22.45
23.40
24.75
26.28
27.64
28.47
28.65
28.31
27.76
27.32
27.15
27.19
27.23
27.04
26.48
25.57
24.31
22.75
20.83
18.53
15.85
12.85
9.64
6.25
2.75
-0.87
-4.55
-8.19
-11.57
-14.53
-16.97
-18.85
-20.27
-21.31
-22.00
-22.27
-22.01
-21.09
-19.44
-17.18
-14.50
-11.71
-9.07
-6.78
-4.90
-3.43
-2.26
-1.30
-0.48
0.27
1.00
1.77
2.64
3.64
4.72
5.80
6.73
7.39
7.74
7.78
7.64
7.41
7.22
7.12
7.05
6.95
6.76
6.49
6.24
6.22
6.54
7.24
8.15
9.02
9.64
9.90
9.88
9.73
9.57
9.40
9.12
8.58
7.74
6.66
5.49
4.32
3.12
1.72
-0.12
-2.48
-5.24
-7.98
-10.15
-11.29
-11.11
-9.69
-7.28
-4.31
-1.15
1.92
4.74
7.19
9.23
10.83
12.05
13.02
13.90
14.82
15.79
16.69
17.33
17.51
17.15
16.31
15.18
13.99
12.94
12.03
11.14
10.06
8.64
6.87
4.92
3.04
1.44
0.22
-0.73
-1.60
-2.55
-3.67
-4.92
-6.18
-7.36
-8.45
-9.49
-10.56
-11.79
-13.22
-14.86
-16.66
-18.54
-20.43
-22.29
-24.11
-25.90
-27.64
-29.21
-30.44
-31.12
-31.11
-30.32
-28.80
-26.61
-23.94
-20.95
-17.83
-14.75
-11.80
-9.04
-6.48
-4.16
-2.16
-0.56
0.60
1.43
2.11
2.90
3.93
5.19
6.51
7.63
8.32
8.47
8.04
7.14
5.87
4.39
2.83
1.33
-0.01
-1.20
-2.28
-3.40
-4.72
-6.34
-8.26
-10.36
-12.41
-14.19
-15.54
-16.40
-16.90
-17.20
-17.44
-17.77
-18.27
-19.01
-20.06
-21.43
-22.98
-24.48
-25.58
-25.94
-25.36
-23.79
-21.35
-18.23
-14.64
-10.79
-6.92
-3.32
-0.24
2.14
3.86
5.07
6.04
7.00
8.06
9.15
10.18
11.03
11.71
12.31
12.91
13.51
14.03
14.34
14.35
14.11
13.74
13.41
13.30
13.46
13.89
14.44
14.93
15.12
14.80
13.84
12.24
10.20
8.03
6.11
4.73
3.96
3.65
3.48
3.11
2.34
1.15
-0.32
-1.79
-3.03
-3.84
-4.14
-3.84
-2.88
-1.21
1.13
3.96
7.02
9.97
12.62
14.91
16.87
18.62
20.20
21.52
22.34
22.40
21.49
19.62
16.99
14.04
11.28
9.16
7.89
7.33
6.97
6.14
4.27
1.14
-2.96
-7.36
-11.22
-13.86
-14.99
-14.89
-14.31
-14.28
-15.76
-19.20
-24.25
-29.72
-33.83
-34.92
-32.12
-25.89
-17.89
-10.54
-6.04
-5.69
-9.53
-16.43
-24.57
-32.04
-37.37
-39.77
-39.26
-36.50
-32.44
-27.99
-23.65
-19.45
-15.03
-10.02
-4.37
1.56
7.05
11.36
14.03
15.03
14.73
13.72
12.55
11.60
11.02
10.80
10.80
10.89
10.92
10.76
10.32
9.53
8.43
7.12
5.85
4.93
4.66
5.24
6.63
8.49
10.30
11.45
11.52
10.44
8.52
6.35
4.49
3.26
2.62
2.26
1.72
0.63
-1.23
-3.85
-7.11
-10.74
-14.34
-17.45
-19.56
-20.32
-19.70
-18.01
-15.86
-13.87
-12.47
-11.73
-11.37
-10.91
-9.93
-8.16
-5.65
-2.64
0.51
3.46
5.97
7.96
9.44
10.61
11.70
12.91
14.40
16.18
18.08
19.69
20.49
20.10
18.43
15.79
12.77
9.98
7.82
6.22
4.57
2.00
-2.00
-7.19
-12.68
-17.20
-19.76
-20.09
-18.88
-17.80
-18.82
-23.02
-30.04
-38.14
-45.02
-48.74
-48.54
-45.17
-40.80
-38.32
-39.76
-45.51
-54.51
-64.66
-72.90
-75.33
-67.67
-47.29
-14.96
24.48
62.83
90.59
100.39
90.55
65.43
36.78
17.41
13.09
20.71
32.85
43.46
50.63
55.96
61.98
69.83
77.82
82.68
81.98
75.70
66.01
56.30
49.42
46.60
47.19
48.66
47.67
42.01
31.36
17.12
1.46
-13.54
-26.18
-35.15
-39.68
-39.56
-34.99
-26.76
-16.34
-5.60
3.71
10.71
15.44
18.36
19.82
19.83
18.19
14.76
10.26
5.44
1.19
-1.74
-2.96
-2.47
-0.53
2.49
6.23
10.49
15.15
20.37
26.34
33.11
40.29
47.11
52.54
55.67
56.09
53.89
49.74
44.59
39.37
34.77
31.09
28.30
26.17
24.43
22.92
21.72
21.08
21.15
21.78
22.36
22.02
20.01
16.11
10.79
5.07
0.04
-3.67
-6.07
-7.74
-9.33
-11.18
-13.17
-14.86
-15.88
-16.15
-15.95
-15.71
-15.70
-15.93
-16.15
-16.09
-15.64
-14.90
-14.11
-13.48
-13.12
-13.07
-13.32
-13.90
-14.85
-16.10
-17.55
-18.91
-19.98
-20.63
-20.86
-20.79
-20.48
-19.94
-19.11
-17.99
-16.62
-15.11
-13.60
-12.24
-11.12
-10.36
-10.04
-10.19
-10.69
-11.34
-11.93
-12.31
-12.51
-12.71
-13.06
-13.59
-14.24
-14.92
-15.66
-16.63
-18.08
-20.12
-22.74
-25.60
-28.36
-30.67
-32.35
-33.37
-33.86
-33.91
-33.61
-33.00
-32.08
-30.89
-29.53
-28.11
-26.74
-25.44
-24.18
-22.88
-21.47
-19.93
-18.28
-16.68
-15.40
-14.77
-15.16
-16.84
-19.92
-24.25
-29.42
-34.84
-39.89
-44.10
-47.33
-49.79
-51.94
-54.19
-56.65
-58.99
-60.47
-60.21
-57.48
-52.00
-43.94
-33.94
-22.95
-12.02
-2.15
6.04
12.55
17.98
23.45
29.95
37.96
47.02
55.89
62.94
66.83
67.01
63.91
58.81
53.30
48.83
46.29
45.95
47.59
50.78
55.06
59.99
65.13
69.88
73.67
76.02
76.93
76.79
76.29
75.99
76.02
75.99
75.15
72.73
68.23
61.65
53.49
44.58
35.83
28.04
21.73
17.10
14.05
12.22
11.06
9.92
8.12
5.14
0.77
-4.65
-10.39
-15.46
-19.07
-20.93
-21.30
-20.83
-20.21
-19.95
-20.31
-21.40
-23.25
-25.91
-29.35
-33.45
-37.91
-42.26
-45.91
-48.28
-48.94
-47.74
-44.89
-40.98
-36.82
-33.15
-30.40
-28.61
-27.44
-26.38
-24.83
-22.20
-18.07
-12.31
-5.23
2.22
8.55
12.27
12.33
8.58
1.78
-6.67
-15.21
-22.57
-27.92
-30.78
-30.73
-27.66
-21.87
-14.33
-6.44
0.41
5.30
8.08
9.15
9.30
8.97
8.13
6.37
3.46
-0.29
-4.20
-7.67
-10.57
-12.88
-14.81
-16.72
-18.97
-21.62
-24.59
-27.92
-31.96
-37.10
-42.52
-46.77
-48.79
-48.61
-46.96
-44.78
-42.79
-41.34
-40.30
-37.91
-32.57
-24.56
-16.42
-11.30
-11.28
-16.48
-25.05
-33.49
-35.66
-25.61
-0.57
37.86
85.25
136.39
186.65
232.59
260.58
259.80
230.86
185.88
137.88
93.90
55.93
24.06
-1.90
-22.16
-35.46
-41.11
-40.65
-37.66
-35.70
-36.55
-40.03
-44.97
-50.21
-53.65
-53.53
-49.54
-42.79
-35.03
-27.79
-22.56
-21.13
-24.95
-33.38
-44.19
-54.93
-63.95
-70.89
-75.95
-78.90
-78.97
-74.64
-63.56
-44.16
-17.26
13.52
42.48
64.10
75.52
76.66
70.05
60.32
52.85
50.12
54.53
66.56
84.71
106.44
127.50
142.76
147.65
139.52
118.51
87.47
50.60
9.40
-30.39
-62.26
-82.67
-92.17
-93.67
-89.78
-81.96
-71.20
-58.71
-45.63
-33.99
-26.17
-24.04
-28.38
-38.19
-50.79
-62.39
-68.56
-65.00
-50.18
-26.21
2.13
26.75
41.38
44.22
37.83
26.99
16.21
7.42
0.06
-7.15
-14.52
-20.52
-22.83
-19.82
-11.28
1.53
16.10
29.21
37.80
39.60
34.05
22.43
7.56
-7.13
-18.75
-26.09
-29.74
-31.32
-32.35
-33.20
-33.31
-31.95
-29.07
-25.61
-23.01
-22.27
-23.60
-25.97
-27.78
-27.77
-25.63
-22.16
-18.72
-16.68
-16.71
-18.74
-22.00
-25.54
-28.56
-30.68
-31.95
-32.67
-33.18
-33.68
-34.15
-34.29
-33.61
-31.61
-27.91
-22.56
-16.05
-9.29
-3.23
1.46
4.68
6.79
8.34
9.74
11.04
12.00
12.39
12.22
11.75
11.37
11.34
11.73
12.50
13.68
15.45
17.96
21.15
24.53
27.40
29.12
29.52
28.93
28.00
27.32
27.08
27.06
26.85
26.09
24.63
22.49
19.74
16.44
12.73
8.86
5.19
1.90
-1.16
-4.59
-9.13
-15.24
-22.71
-30.66
-37.94
-43.57
-47.22
-49.13
-49.93
-50.23
-50.40
-50.59
-50.86
-51.23
-51.65
-52.04
-52.26
-52.31
-52.53
-53.57
-56.23
-61.02
-67.80
-75.75
-83.62
-90.34
-95.37
-98.98
-101.96
-105.35
-110.01
-116.30
-123.82
-131.32
-136.53
-136.52
-128.37
-110.29
-82.60
-48.00
-10.92
24.14
54.24
78.90
99.71
119.04
138.52
158.18
176.69
192.21
203.34
209.53
210.85
207.52
199.59
187.06
170.30
150.50
129.55
109.66
92.69
79.58
70.15
63.33
57.68
51.97
45.70
39.12
33.08
28.54
26.13
25.81
26.99
28.65
29.77
29.66
28.08
25.22
21.56
17.60
13.77
10.34
7.52
5.43
4.19
3.80
4.15
4.89
5.58
5.79
5.24
4.00
2.37
0.80
-0.36
-0.97
-1.17
-1.24
-1.48
-2.06
-3.02
-4.30
-5.82
-7.57
-9.53
-11.64
-13.73
-15.53
-16.76
-17.22
-16.82
-15.67
-13.93
-11.80
-9.38
-6.68
-3.61
-0.07
3.96
8.32
12.68
16.59
19.59
21.35
21.72
20.74
18.64
15.71
12.33
8.96
6.06
4.13
3.47
4.23
6.26
9.25
12.74
16.31
19.60
22.37
24.45
25.76
26.23
25.85
24.67
22.86
20.66
18.39
16.36
14.76
13.68
12.94
12.22
11.09
9.18
6.28
2.40
-2.24
-7.30
-12.42
-17.32
-21.72
-25.38
-28.08
-29.63
-29.94
-29.07
-27.17
-24.49
-21.25
-17.69
-13.97
-10.27
-6.71
-3.41
-0.44
2.07
4.05
5.42
6.25
6.75
7.21
7.96
9.19
10.84
12.64
14.18
15.13
15.33
14.81
13.71
12.15
10.19
7.88
5.24
2.39
-0.52
-3.37
-6.13
-8.84
-11.55
-14.21
-16.63
-18.54
-19.77
-20.35
-20.50
-20.55
-20.76
-21.23
-21.88
-22.50
-22.88
-22.83
-22.18
-20.80
-18.67
-15.86
-12.58
-9.14
-5.77
-2.58
0.52
3.69
7.07
10.67
14.35
17.91
21.17
24.06
26.59
28.78
30.65
32.17
33.34
34.19
34.81
35.27
35.62
35.84
35.90
35.79
35.54
35.19
34.77
34.28
33.70
33.04
32.30
31.55
30.82
30.04
29.09
27.81
26.08
23.84
21.17
18.13
14.81
11.27
7.49
3.42
-0.98
-5.73
-10.77
-15.95
-21.00
-25.52
-29.06
-31.32
-32.15
-31.77
-30.58
-29.14
-27.90
-27.11
-26.70
-26.44
-26.01
-25.17
-23.93
-22.47
-21.13
-20.23
-19.98
-20.35
-21.12
-21.97
-22.60
-22.87
-22.77
-22.46
-22.14
-21.91
-21.80
-21.84
-22.03
-22.34
-22.69
-22.93
-22.89
-22.39
-21.21
-19.24
-16.52
-13.33
-10.03
-6.96
-4.36
-2.27
-0.64
0.80
2.18
3.29
3.70
3.03
1.17
-1.73
-5.35
-9.47
-13.36
-16.57
-19.04
-20.99
-22.47
-23.29
-23.36
-22.86
-22.59
-22.54
-23.10
-25.26
-30.20
-38.21
-48.45
-59.59
-70.21
-79.64
-85.75
-86.98
-82.87
-73.88
-60.03
-40.55
-14.55
18.90
59.64
108.99
166.24
227.44
285.71
334.07
367.52
383.60
383.03
351.44
284.79
192.91
95.55
9.77
-56.85
-102.52
-132.89
-150.79
-157.55
-152.27
-136.77
-115.53
-96.97
-88.92
-94.77
-112.49
-134.96
-154.11
-162.08
-155.90
-138.25
-115.36
-92.63
-72.34
-54.42
-38.16
-24.89
-16.82
-17.08
-27.66
-47.63
-71.88
-92.39
-101.52
-94.91
-73.81
-44.28
-15.87
1.61
1.70
-15.64
-43.38
-69.80
-82.71
-74.15
-42.80
5.94
62.13
114.38
152.81
170.86
166.18
140.78
100.56
53.89
9.44
-26.46
-51.66
-68.35
-81.41
-95.85
-114.72
-138.27
-164.70
-191.55
-216.76
-239.15
-258.04
-273.02
-284.08
-291.76
-297.11
-301.36
-305.10
-307.56
-306.42
-298.29
-279.75
-248.51
-204.29
-149.11
-86.91
-22.65
38.69
93.02
137.68
171.62
195.15
209.72
217.62
221.75
225.45
232.08
244.23
262.61
285.32
307.84
324.24
329.12
319.49
295.78
261.49
221.85
182.25
147.08
119.38
100.82
91.85
91.49
97.23
105.28
111.49
112.58
107.11
95.77
80.73
64.66
49.73
37.24
27.63
20.86
16.72
14.79
14.54
15.23
16.20
17.04
17.81
18.87
20.67
23.46
27.02
30.85
34.30
36.79
37.95
37.53
35.46
31.81
26.94
21.50
16.38
12.41
10.09
9.42
9.89
10.88
11.85
12.58
13.02
13.16
12.83
11.88
10.25
8.25
6.44
5.38
5.32
6.02
6.80
6.86
5.61
2.87
-1.05
-5.54
-9.83
-13.23
-15.29
-15.90
-15.31
-14.11
-13.08
-12.94
-14.20
-17.00
-21.05
-25.74
-30.28
-33.94
-36.22
-37.03
-36.56
-35.17
-33.20
-30.81
-28.11
-25.24
-22.44
-20.08
-18.49
-17.78
-17.76
-18.07
-18.36
-18.48
-18.45
-18.45
-18.68
-19.26
-20.23
-21.52
-22.98
-24.42
-25.56
-26.20
-26.27
-25.86
-25.22
-24.61
-24.22
-24.07
-24.07
-24.12
-24.18
-24.30
-24.50
-24.78
-25.04
-25.16
-25.09
-24.93
-24.86
-25.08
-25.67
-26.46
-27.10
-27.17
-26.41
-24.84
-22.81
-20.87
-19.50
-18.96
-19.16
-19.77
-20.34
-20.50
-20.06
-18.98
-17.37
-15.39
-13.21
-10.96
-8.77
-6.66
-4.65
-2.65
-0.62
1.47
3.55
5.49
7.13
8.36
9.18
9.72
10.18
10.76
11.57
12.50
13.32
13.73
13.51
12.60
11.11
9.20
7.06
4.83
2.62
0.55
-1.21
-2.52
-3.33
-3.76
-4.05
-4.45
-5.09
-5.92
-6.70
-7.13
-6.98
-6.16
-4.81
-3.25
-1.88
-1.14
-1.35
-2.60
-4.67
-7.10
-9.27
-10.63
-10.92
-10.18
-8.71
-6.87
-5.03
-3.45
-2.25
-1.53
-1.29
-1.45
-1.88
-2.41
-2.90
-3.36
-3.88
-4.51
-5.22
-5.76
-5.80
-5.03
-3.38
-1.09
1.35
3.38
4.63
4.96
4.53
3.62
2.48
1.24
-0.09
-1.46
-2.69
-3.53
-3.75
-3.29
-2.37
-1.40
-0.82
-0.87
-1.57
-2.75
-4.19
-5.69
-7.12
-8.41
-9.56
-10.57
-11.49
-12.29
-12.86
-12.99
-12.43
-11.04
-8.97
-6.64
-4.61
-3.28
-2.73
-2.65
-2.54
-1.97
-0.82
0.71
2.20
3.21
3.51
3.18
2.50
1.84
1.52
1.65
2.20
3.01
3.94
4.89
5.86
6.84
7.80
8.60
9.09
9.21
8.98
8.56
8.08
7.65
7.25
6.78
6.19
5.51
4.88
4.44
4.23
4.16
4.01
3.52
2.52
0.97
-0.99
-3.13
-5.25
-7.19
-8.94
-10.55
-12.04
-13.32
-14.15
-14.32
-13.70
-12.40
-10.72
-9.01
-7.42
-5.87
-4.10
-1.87
0.79
3.64
6.28
8.46
10.16
11.60
13.00
14.42
15.62
16.21
15.90
14.57
12.41
9.78
7.11
4.67
2.60
0.87
-0.69
-2.21
-3.76
-5.27
-6.55
-7.39
-7.73
-7.68
-7.57
-7.75
-8.43
-9.59
-11.02
-12.44
-13.68
-14.75
-15.80
-16.98
-18.22
-19.24
-19.67
-19.18
-17.68
-15.41
-12.78
-10.22
-7.96
-5.97
-4.02
-1.90
0.46
2.86
5.00
6.62
7.67
8.37
9.04
9.91
10.96
11.87
12.26
11.87
10.81
9.54
8.65
8.63
9.48
10.77
11.77
11.87
10.87
9.14
7.38
6.16
5.68
5.58
5.24
4.18
2.36
0.28
-1.40
-2.13
-1.91
-1.23
-0.83
-1.36
-2.99
-5.40
-7.89
-9.76
-10.58
-10.33
-9.32
-7.95
-6.50
-4.97
-3.23
-1.12
1.32
3.82
5.99
7.49
8.20
8.29
8.11
8.05
8.36
9.04
9.84
10.42
10.49
10.00
9.16
8.33
7.83
7.83
8.26
8.91
9.51
9.92
10.04
9.90
9.55
9.03
8.38
7.58
6.63
5.51
4.23
2.88
1.56
0.39
-0.60
-1.46
-2.33
-3.33
-4.53
-5.87
-7.28
-8.65
-9.91
-10.95
-11.63
-11.76
-11.17
-9.83
-7.86
-5.57
-3.28
-1.20
0.64
2.37
4.15
6.03
7.92
9.60
10.85
11.64
12.08
12.40
12.79
13.32
13.83
14.04
13.75
12.94
11.82
10.76
10.10
10.02
10.42
11.00
11.39
11.34
10.77
9.77
8.56
7.32
6.15
5.01
3.84
2.55
1.14
-0.29
-1.58
-2.59
-3.27
-3.71
-4.11
-4.65
-5.49
-6.66
-8.02
-9.35
-10.38
-10.88
-10.75
-10.05
-8.90
-7.48
-5.92
-4.28
-2.54
-0.73
1.10
2.81
4.20
5.16
5.65
5.77
5.65
5.40
5.12
4.86
4.70
4.71
4.97
5.47
6.09
6.63
6.86
6.67
6.10
5.30
4.44
3.63
2.90
2.18
1.43
0.63
-0.19
-0.99
-1.71
-2.36
-2.90
-3.38
-3.84
-4.35
-4.93
-5.58
-6.25
-6.88
-7.47
-8.10
-8.91
-10.02
-11.40
-12.81
-13.82
-14.01
-13.12
-11.19
-8.54
-5.68
-3.05
-0.92
0.72
2.02
3.15
4.20
5.10
5.80
6.30
6.75
7.28
7.95
8.70
9.32
9.70
9.77
9.66
9.52
9.47
9.46
9.36
9.05
8.49
7.78
7.07
6.49
6.05
5.65
5.12
4.35
3.31
2.15
1.10
0.38
0.09
0.10
0.16
-0.00
-0.60
-1.68
-3.14
-4.79
-6.42
-7.84
-8.91
-9.54
-9.69
-9.35
-8.59
-7.41
-5.83
-3.86
-1.62
0.67
2.68
4.11
4.82
4.88
4.56
4.19
3.99
4.04
4.19
4.22
4.00
3.54
2.98
2.55
2.42
2.61
3.00
3.40
3.66
3.75
3.73
3.66
3.61
3.50
3.25
2.75
1.98
0.96
-0.22
-1.47
-2.70
-3.83
-4.87
-5.88
-6.94
-8.19
-9.69
-11.42
-13.24
-14.93
-16.29
-17.18
-17.53
-17.32
-16.58
-15.36
-13.77
-11.96
-10.15
-8.48
-7.02
-5.68
-4.33
-2.97
-1.71
-0.85
-0.66
-1.18
-2.16
-3.06
-3.36
-2.84
-1.70
-0.51
0.07
-0.37
-1.80
-3.79
-5.72
-7.06
-7.61
-7.47
-6.95
-6.34
-5.77
-5.23
-4.63
-3.97
-3.32
-2.88
-2.78
-3.06
-3.66
-4.43
-5.22
-5.97
-6.68
-7.45
-8.40
-9.64
-11.15
-12.82
-14.36
-15.44
-15.82
-15.45
-14.44
-13.02
-11.33
-9.35
-7.03
-4.36
-1.46
1.38
3.90
5.95
7.61
9.11
10.65
12.25
13.77
14.94
15.53
15.47
14.86
13.94
12.96
12.11
11.44
10.89
10.33
9.61
8.67
7.53
6.35
5.30
4.50
3.99
3.64
3.25
2.57
1.45
-0.14
-2.10
-4.14
-5.98
-7.36
-8.19
-8.60
-8.92
-9.61
-11.07
-13.51
-16.87
-20.80
-24.81
-28.30
-30.78
-31.94
-31.69
-30.21
-27.86
-25.03
-21.97
-18.71
-15.09
-10.92
-6.17
-1.15
3.62
7.57
10.30
11.71
11.95
11.28
9.92
8.10
6.03
4.03
2.48
1.76
2.11
3.46
5.43
7.47
9.02
9.71
9.50
8.61
7.38
6.20
5.24
4.56
4.02
3.50
2.93
2.31
1.74
1.27
0.90
0.48
-0.17
-1.25
-2.88
-5.01
-7.42
-9.84
-11.95
-13.49
-14.27
-14.20
-13.24
-11.42
-8.81
-5.60
-1.99
1.78
5.51
9.07
12.34
15.22
17.61
19.35
20.31
20.43
19.78
18.55
17.06
15.70
14.76
14.41
14.59
15.09
15.57
15.73
15.45
14.80
14.04
13.46
13.29
13.54
14.01
14.41
14.45
13.93
12.85
11.28
9.38
7.30
5.18
3.14
1.28
-0.30
-1.55
-2.49
-3.28
-4.14
-5.24
-6.69
-8.36
-9.99
-11.24
-11.82
-11.61
-10.69
-9.27
-7.58
-5.72
-3.67
-1.39
1.12
3.75
6.27
8.40
9.96
10.92
11.39
11.62
11.84
12.17
12.57
12.82
12.69
11.98
10.65
8.85
6.83
4.87
3.21
2.03
1.36
1.18
1.28
1.36
1.00
-0.18
-2.38
-5.50
-9.13
-12.63
-15.41
-17.08
-17.57
-17.17
-16.33
-15.57
-15.33
-15.89
-17.32
-19.51
-22.08
-24.51
-26.26
-26.87
-26.16
-24.24
-21.45
-18.20
-14.81
-11.42
-8.10
-4.87
-1.84
0.87
3.15
5.01
6.58
8.04
9.45
10.76
11.80
12.46
12.76
12.88
13.07
13.44
14.01
14.60
15.03
15.22
15.20
15.02
14.64
13.92
12.72
11.04
9.13
7.39
6.13
5.39
4.83
3.91
2.21
-0.39
-3.61
-6.88
-9.65
-11.60
-12.78
-13.56
-14.37
-15.54
-17.07
-18.66
-19.84
-20.14
-19.33
-17.52
-15.04
-12.32
-9.67
-7.17
-4.76
-2.29
0.27
2.93
5.58
8.12
10.47
12.55
14.29
15.60
16.41
16.73
16.65
16.34
15.96
15.65
15.45
15.40
15.45
15.52
15.47
15.09
14.22
12.83
11.06
9.16
7.43
6.02
4.91
3.89
2.77
1.44
-0.08
-1.63
-3.13
-4.53
-5.93
-7.41
-8.96
-10.54
-12.05
-13.47
-14.86
-16.30
-17.76
-19.14
-20.15
-20.45
-19.83
-18.23
-15.82
-12.88
-9.82
-6.95
-4.48
-2.41
-0.58
1.29
3.40
5.80
8.33
10.67
12.54
13.78
14.46
14.79
15.03
15.32
15.73
16.21
16.69
17.17
17.66
18.18
18.71
19.13
19.28
18.96
17.99
16.36
14.24
11.94
9.89
8.37
7.45
6.95
6.53
5.85
4.73
3.22
1.48
-0.35
-2.20
-4.16
-6.33
-8.76
-11.38
-13.98
-16.31
-18.14
-19.27
-19.61
-19.15
-17.98
-16.23
-14.09
-11.76
-9.39
-7.13
-5.06
-3.22
-1.60
-0.10
1.37
2.92
4.54
6.16
7.58
8.64
9.21
9.29
8.99
8.45
7.80
7.08
6.33
5.57
4.90
4.42
4.19
4.17
4.15
3.88
3.16
2.00
0.59
-0.72
-1.62
-1.97
-1.87
-1.59
-1.44
-1.63
-2.22
-3.10
-4.07
-4.99
-5.81
-6.63
-7.62
-8.94
-10.62
-12.53
-14.37
-15.75
-16.30
-15.78
-14.18
-11.70
-8.66
-5.51
-2.62
-0.21
1.69
3.23
4.64
6.15
7.86
9.81
11.89
13.92
15.68
16.93
17.49
17.29
16.46
15.26
14.07
13.22
12.86
12.91
13.18
13.42
13.52
13.49
13.37
13.20
12.91
12.39
11.52
10.32
8.92
7.56
6.46
5.70
5.23
4.85
4.36
3.68
2.85
1.98
1.19
0.42
-0.47
-1.69
-3.39
-5.51
-7.79
-9.83
-11.23
-11.73
-11.25
-9.92
-8.04
-5.93
-3.92
-2.21
-0.86
0.18
1.03
1.84
2.62
3.36
3.94
4.27
4.32
4.12
3.75
3.33
3.01
2.89
3.05
3.48
4.10
4.71
5.15
5.26
5.04
4.57
3.97
3.35
2.73
2.09
1.35
0.46
-0.57
-1.67
-2.73
-3.67
-4.42
-4.96
-5.37
-5.76
-6.27
-6.98
-7.97
-9.19
-10.55
-11.97
-13.32
-14.47
-15.25
-15.53
-15.21
-14.28
-12.81
-10.93
-8.80
-6.54
-4.26
-2.03
0.09
1.98
3.54
4.68
5.34
5.55
5.40
5.07
4.70
4.37
4.09
3.80
3.45
3.05
2.63
2.28
2.02
1.81
1.60
1.29
0.84
0.21
-0.55
-1.38
-2.25
-3.10
-3.95
-4.81
-5.75
-6.76
-7.77
-8.69
-9.43
-10.00
-10.54
-11.28
-12.39
-13.97
-15.89
-17.85
-19.42
-20.23
-20.11
-19.05
-17.31
-15.15
-12.82
-10.47
-8.12
-5.76
-3.50
-1.50
0.04
1.00
1.47
1.65
1.82
2.14
2.67
3.33
3.99
4.51
4.83
4.94
4.85
4.62
4.31
3.96
3.62
3.33
3.08
2.88
2.75
2.66
2.55
2.33
1.88
1.15
0.20
-0.81
-1.69
-2.32
-2.73
-3.09
-3.60
-4.41
-5.56
-7.04
-8.78
-10.76
-12.86
-14.88
-16.47
-17.26
-16.96
-15.54
-13.28
-10.60
-7.95
-5.62
-3.68
-2.03
-0.56
0.82
2.09
3.20
4.08
4.71
5.11
5.34
5.45
5.55
5.71
6.00
6.35
6.65
6.71
6.39
5.65
4.58
3.37
2.20
1.21
0.44
-0.13
-0.61
-1.02
-1.40
-1.76
-2.12
-2.46
-2.82
-3.19
-3.58
-4.00
-4.47
-5.07
-5.89
-7.07
-8.59
-10.30
-11.84
-12.77
-12.79
-11.88
-10.40
-8.96
-8.06
-7.85
-8.03
-8.01
-7.28
-5.70
-3.51
-1.18
0.93
2.72
4.35
6.01
7.73
9.27
10.27
10.50
9.98
9.00
7.96
7.18
6.68
6.32
5.88
5.20
4.27
3.21
2.18
1.27
0.46
-0.34
-1.21
-2.19
-3.25
-4.31
-5.26
-5.98
-6.46
-6.72
-6.90
-7.14
-7.59
-8.31
-9.23
-10.27
-11.31
-12.29
-13.16
-13.88
-14.37
-14.48
-14.08
-13.06
-11.46
-9.41
-7.11
-4.73
-2.42
-0.23
1.87
3.89
5.85
7.68
9.31
10.61
11.46
11.83
11.73
11.32
10.78
10.31
10.03
9.97
10.03
10.09
10.03
9.84
9.58
9.36
9.28
9.32
9.41
9.37
9.10
8.50
7.58
6.39
5.04
3.61
2.20
0.89
-0.30
-1.34
-2.27
-3.14
-4.06
-5.09
-6.27
-7.62
-9.01
-10.28
-11.21
-11.61
-11.38
-10.49
-9.01
-7.07
-4.77
-2.25
0.35
2.83
5.03
6.77
8.00
8.71
9.05
9.17
9.27
9.43
9.67
9.89
9.94
9.74
9.31
8.80
8.41
8.23
8.24
8.26
8.06
7.53
6.73
5.93
5.42
5.34
5.59
5.87
5.84
5.30
4.25
2.91
1.58
0.53
-0.16
-0.53
-0.79
-1.16
-1.79
-2.71
-3.85
-5.09
-6.33
-7.50
-8.62
-9.62
-10.37
-10.65
-10.28
-9.20
-7.51
-5.46
-3.30
-1.18
0.88
2.90
4.86
6.64
8.02
8.81
8.98
8.63
8.02
7.44
7.07
6.99
7.10
7.27
7.36
7.32
7.17
7.02
6.92
6.85
6.68
6.25
5.45
4.34
3.12
2.07
1.34
0.91
0.59
0.12
-0.72
-1.98
-3.52
-5.13
-6.59
-7.77
-8.68
-9.44
-10.21
-11.12
-12.21
-13.45
-14.73
-15.96
-17.07
-18.04
-18.77
-19.12
-18.83
-17.71
-15.67
-12.91
-9.77
-6.67
-3.92
-1.63
0.28
2.00
3.65
5.26
6.71
7.88
8.72
9.28
9.73
10.23
10.86
11.50
11.93
11.91
11.29
10.20
8.93
7.83
7.15
6.90
6.90
6.88
6.60
5.99
5.16
4.31
3.63
3.19
2.88
2.47
1.75
0.66
-0.71
-2.08
-3.18
-3.86
-4.18
-4.39
-4.85
-5.79
-7.30
-9.29
-11.47
-13.54
-15.18
-16.14
-16.26
-15.58
-14.19
-12.33
-10.22
-8.06
-5.97
-3.99
-2.15
-0.48
1.00
2.29
3.46
4.56
5.60
6.50
7.13
7.40
7.35
7.16
7.05
7.16
7.48
7.85
8.07
8.03
7.76
7.40
7.06
6.77
6.46
6.01
5.38
4.59
3.78
3.05
2.47
1.97
1.42
0.68
-0.28
-1.38
-2.46
-3.31
-3.83
-4.07
-4.21
-4.56
-5.40
-6.82
-8.72
-10.77
-12.54
-13.66
-13.95
-13.45
-12.36
-10.91
-9.26
-7.49
-5.57
-3.46
-1.20
1.09
3.28
5.23
6.87
8.14
9.04
9.57
9.75
9.60
9.21
8.71
8.23
7.87
7.67
7.62
7.70
7.86
7.99
7.99
7.76
7.25
6.51
5.66
4.84
4.12
3.48
2.86
2.22
1.59
1.02
0.52
0.02
-0.64
-1.57
-2.76
-4.02
-5.05
-5.65
-5.86
-5.98
-6.43
-7.57
-9.47
-11.90
-14.44
-16.62
-18.12
-18.79
-18.63
-17.70
-16.07
-13.83
-11.10
-8.08
-4.98
-2.10
0.38
2.30
3.66
4.52
5.05
5.42
5.76
6.14
6.56
6.98
7.41
7.87
8.43
9.09
9.77
10.31
10.54
10.40
9.94
9.38
8.96
8.78
8.84
8.96
8.89
8.50
7.74
6.76
5.71
4.71
3.80
2.87
1.79
0.47
-1.04
-2.57
-3.87
-4.76
-5.26
-5.58
-6.09
-7.10
-8.70
-10.71
-12.76
-14.45
-15.57
-16.10
-16.18
-15.95
-15.38
-14.32
-12.59
-10.16
-7.17
-4.00
-1.03
1.43
3.31
4.72
5.88
7.00
8.12
9.14
9.89
10.21
10.09
9.65
9.10
8.61
8.27
8.05
7.87
7.63
7.31
6.90
6.42
5.85
5.14
4.25
3.20
2.10
1.10
0.34
-0.13
-0.35
-0.48
-0.70
-1.18
-2.03
-3.18
-4.50
-5.81
-6.97
-7.96
-8.87
-9.81
-10.89
-12.11
-13.38
-14.52
-15.43
-16.03
-16.35
-16.45
-16.30
-15.81
-14.83
-13.20
-10.87
-7.99
-4.86
-1.82
0.81
2.90
4.50
5.82
7.06
8.33
9.63
10.83
11.81
12.48
12.89
13.13
13.32
13.48
13.58
13.49
13.13
12.48
11.65
10.85
10.30
10.13
10.29
10.56
10.63
10.29
9.49
8.37
7.18
6.11
5.25
4.58
3.95
3.27
2.46
1.47
0.28
-1.14
-2.79
-4.59
-6.35
-7.90
-9.09
-9.95
-10.65
-11.49
-12.72
-14.44
-16.46
-18.37
-19.66
-19.91
-18.95
-16.96
-14.35
-11.65
-9.25
-7.33
-5.78
-4.38
-2.86
-1.15
0.60
2.16
3.28
3.88
4.08
4.14
4.29
4.63
5.03
5.26
5.17
4.75
4.18
3.68
3.36
3.18
2.96
2.55
1.95
1.29
0.80
0.58
0.58
0.60
0.36
-0.28
-1.30
-2.53
-3.76
-4.83
-5.74
-6.59
-7.53
-8.68
-10.03
-11.50
-12.95
-14.25
-15.34
-16.21
-16.80
-16.98
-16.62
-15.55
-13.79
-11.46
-8.83
-6.18
-3.71
-1.50
0.49
2.34
4.11
5.79
7.35
8.82
10.28
11.77
13.27
14.64
15.78
16.65
17.31
17.81
18.18
18.43
18.54
18.48
18.34
18.38
18.91
20.18
22.03
24.16
26.19
27.78
28.73
29.07
29.05
28.97
28.97
28.61
27.68
26.35
25.02
23.92
23.14
22.60
22.24
22.02
21.47
20.95
21.59
24.10
27.82
30.83
31.06
27.53
21.10
13.39
7.73
7.59
13.83
23.43
30.70
30.20
18.84
-3.48
-36.06
-75.31
-115.35
-149.39
-171.07
-175.23
-158.75
-121.97
-61.87
11.46
80.07
129.77
157.96
170.22
172.49
167.00
153.31
132.54
105.19
76.34
53.42
41.60
40.63
45.30
48.26
43.43
29.82
7.63
-19.63
-46.75
-69.21
-84.77
-93.40
-96.55
-96.67
-96.77
-100.61
-109.47
-121.22
-131.16
-134.06
-126.67
-109.08
-84.89
-60.20
-42.05
-35.08
-40.56
-56.67
-79.67
-105.00
-127.75
-142.96
-146.45
-136.10
-112.32
-78.51
-40.57
-5.24
21.85
38.29
45.30
46.54
45.99
46.33
48.21
50.72
52.84
54.17
56.16
61.12
70.50
83.46
97.09
107.67
112.29
110.19
101.94
90.73
80.97
76.38
78.37
86.01
96.47
105.75
109.66
103.17
84.57
56.04
22.13
-12.49
-44.36
-72.59
-99.34
-128.34
-164.32
-206.75
-248.90
-280.71
-293.40
-282.35
-249.11
-200.84
-134.38
-59.46
7.33
54.68
83.25
100.31
112.87
124.08
131.96
133.27
124.71
105.96
78.96
45.92
8.16
-29.54
-61.21
-80.99
-83.96
-66.81
-27.75
31.58
104.30
178.75
242.76
285.23
299.55
276.86
220.20
147.61
82.45
40.74
17.20
2.08
-13.82
-35.74
-66.18
-103.92
-145.63
-187.39
-224.89
-253.01
-265.32
-258.10
-231.88
-190.76
-139.12
-80.81
-19.77
39.65
92.77
135.88
165.22
178.66
177.49
167.95
157.93
152.23
150.31
147.16
137.00
115.47
82.09
40.76
-1.05
-31.53
-41.98
-33.33
-15.14
2.75
15.10
22.18
27.52
35.08
46.92
61.58
75.64
85.70
90.93
92.07
91.42
90.53
89.77
88.57
85.47
79.35
69.56
57.30
44.38
32.21
21.01
9.86
-3.17
-21.31
-42.10
-64.73
-87.88
-110.29
-131.39
-151.84
-173.46
-198.27
-227.41
-259.61
-291.33
-316.40
-328.41
-322.87
-298.60
-257.55
-203.94
-143.34
-82.21
-28.36
10.52
28.27
22.08
-6.12
-49.77
-99.68
-146.72
-183.48
-205.22
-209.12
-194.57
-163.98
-123.19
-80.33
-42.96
-14.61
7.16
29.58
61.21
107.91
170.03
242.35
316.31
382.73
434.15
465.85
475.97
465.50
437.82
397.94
351.23
302.09
253.33
206.66
163.28
124.38
91.07
63.77
41.63
22.67
4.30
-15.89
-39.47
-66.68
-95.97
-123.79
-144.86
-153.68
-146.59
-123.73
-89.56
-51.53
-17.53
6.72
19.37
22.39
20.36
18.55
21.16
29.99
43.85
58.94
70.05
72.37
63.40
43.62
16.18
-14.67
-45.44
-74.50
-101.77
-127.71
-152.26
-174.30
-192.05
-203.46
-206.96
-202.18
-190.02
-171.92
-148.84
-120.72
-86.91
-48.01
-6.76
31.71
61.20
77.04
78.61
70.04
58.13
49.01
44.08
40.73
34.13
20.20
-1.86
-28.57
-53.64
-71.72
-81.35
-87.05
-93.62
-102.36
-110.35
-112.96
-107.31
-94.74
-80.95
-72.72
-76.57
-90.91
-106.79
-114.47
-110.38
-99.36
-91.86
-98.85
-126.57
-177.80
-245.66
-315.68
-372.03
-403.74
-406.95
-384.27
-343.24
-270.52
-174.89
-81.03
-10.98
29.54
46.49
47.98
41.89
33.78
28.81
28.07
34.25
49.56
74.62
106.87
142.14
177.39
211.72
246.46
281.01
316.19
352.87
389.00
417.77
429.54
416.20
374.81
309.55
228.89
145.32
71.32
15.44
-19.57
-35.13
-33.82
-17.82
11.09
49.20
91.39
131.25
162.65
181.51
186.91
180.68
165.85
145.24
120.55
93.34
64.54
34.78
4.58
-25.24
-53.07
-76.03
-89.97
-90.52
-74.66
-43.94
-4.10
37.41
74.56
104.70
128.63
148.88
167.21
182.93
190.68
183.32
156.14
109.73
49.77
-15.19
-76.89
-133.88
-179.43
-208.17
-220.51
-221.36
-215.11
-203.84
-188.45
-170.13
-150.52
-131.83
-118.11
-113.13
-117.66
-128.25
-138.52
-141.20
-130.86
-104.99
-65.54
-19.43
24.40
58.46
78.60
83.96
76.38
54.30
21.95
-12.88
-41.67
-57.46
-56.73
-40.57
-14.55
13.40
36.14
51.01
59.59
65.42
71.76
80.00
88.89
94.64
91.99
76.40
47.44
9.03
-31.71
-66.22
-86.85
-88.99
-72.61
-43.13
-12.74
5.28
5.23
-8.95
-29.13
-49.03
-66.18
-81.06
-94.96
-108.06
-117.75
-121.11
-116.58
-104.75
-88.50
-71.39
-56.34
-44.58
-35.46
-26.20
-12.85
4.06
23.68
44.27
64.23
82.82
100.16
116.55
131.78
144.42
151.66
150.82
140.35
120.93
95.27
66.93
39.00
13.44
-8.89
-27.81
-42.74
-52.93
-57.52
-56.05
-48.78
-36.76
-21.50
-4.79
11.40
25.34
35.42
40.48
40.16
34.98
26.44
16.64
8.00
2.63
2.06
6.53
14.94
25.07
34.29
40.40
42.43
40.99
38.02
36.11
37.51
43.35
53.50
66.65
80.88
94.12
104.59
111.15
113.63
113.00
111.33
111.31
115.47
125.36
140.98
160.88
182.82
204.64
224.61
241.30
252.90
256.75
249.69
229.25
194.93
149.12
96.54
42.56
-8.96
-56.82
-102.21
-146.98
-191.68
-234.59
-272.00
-299.65
-313.97
-312.83
-295.40
-262.31
-216.04
-161.55
-106.47
-59.75
-29.25
-19.04
-28.12
-51.23
-81.49
-113.05
-142.50
-168.25
-188.90
-202.04
-204.45
-193.67
-169.84
-136.46
-99.39
-64.78
-36.94
-17.35
-5.21
1.18
3.06
0.81
-5.54
-15.21
-26.14
-35.25
-39.47
-37.03
-28.28
-15.53
-2.07
9.06
16.16
19.17
19.27
18.11
17.05
16.75
17.26
18.27
19.39
20.32
20.76
20.37
18.78
15.77
11.40
6.10
0.53
-4.78
-9.50
-13.66
-17.33
-20.33
-22.05
-21.57
-17.92
-10.67
-0.16
12.51
25.84
38.40
49.20
57.71
63.62
66.63
66.42
62.96
56.84
49.45
42.71
38.39
37.42
39.54
43.50
47.58
50.31
50.71
48.30
42.80
34.11
22.32
8.03
-7.44
-22.22
-34.37
-42.60
-46.82
-48.27
-49.07
-51.37
-56.50
-64.39
-73.63
-82.01
-87.34
-88.15
-84.01
-75.42
-63.50
-49.54
-34.82
-20.42
-7.23
4.09
13.15
19.95
24.81
28.28
31.01
33.50
35.91
38.03
39.40
39.63
38.59
36.65
34.49
32.83
32.07
32.05
32.08
31.08
27.76
21.02
10.15
-4.77
-22.58
-41.05
-57.30
-68.67
-73.59
-72.10
-65.63
-56.31
-46.12
-36.27
-27.20
-18.91
-11.54
-5.46
-1.25
0.68
0.32
-1.97
-5.55
-9.91
-14.70
-19.76
-24.80
-29.28
-32.32
-32.88
-30.18
-23.98
-14.85
-3.95
7.20
17.20
25.07
30.45
33.56
34.99
35.55
35.89
36.47
37.47
38.80
40.28
41.69
42.87
43.67
44.00
43.70
42.73
41.11
39.00
36.57
33.94
31.11
27.95
24.35
20.23
15.74
11.14
6.78
2.99
-0.03
-2.19
-3.53
-4.21
-4.41
-4.32
-4.06
-3.72
-3.36
-3.06
-2.96
-3.26
-4.04
-5.26
-6.60
-7.60
-7.84
-7.10
-5.54
-3.58
-1.71
-0.25
0.71
1.32
1.79
2.25
2.65
2.86
2.79
2.53
2.33
2.50
3.24
4.47
5.87
7.01
7.58
7.52
7.04
6.46
5.97
5.51
4.83
3.63
1.82
-0.41
-2.73
-4.79
-6.44
-7.74
-8.87
-9.94
-10.93
-11.72
-12.17
-12.22
-11.97
-11.63
-11.41
-11.49
-11.91
-12.60
-13.40
-14.12
-14.65
-15.00
-15.31
-15.74
-16.39
-17.17
-17.84
-18.00
-17.32
-15.63
-13.06
-9.92
-6.65
-3.66
-1.25
0.51
1.70
2.55
3.30
4.14
5.12
6.16
7.09
7.70
7.82
7.31
6.11
4.24
1.90
-0.60
-2.83
-4.39
-5.02
-4.70
-3.66
-2.22
-0.67
0.89
2.48
4.19
6.05
7.94
9.65
10.86
11.40
11.24
10.58
9.76
9.06
8.67
8.54
8.48
8.24
7.71
6.95
6.16
5.57
5.32
5.45
5.86
6.45
7.12
7.82
8.45
8.95
9.18
9.08
8.61
7.78
6.64
5.23
3.61
1.83
-0.04
-1.98
-3.95
-5.88
-7.65
-9.05
-9.85
-9.88
-9.16
-7.82
-6.14
-4.36
-2.61
-0.95
0.70
2.38
4.09
5.73
7.25
8.55
9.60
10.37
10.86
11.07
11.06
10.89
10.64
10.33
9.97
9.56
9.14
8.77
8.54
8.48
8.54
8.60
8.53
8.24
7.74
7.06
6.23
5.20
3.87
2.19
0.20
-1.93
-3.92
-5.54
-6.68
-7.43
-8.04
-8.83
-10.07
-11.92
-14.27
-16.77
-18.88
-20.00
-19.66
-17.72
-14.38
-10.20
-5.83
-1.90
1.23
3.49
5.06
6.19
7.16
8.08
8.94
9.58
9.78
9.38
8.32
6.69
4.71
2.62
0.60
-1.34
-3.28
-5.34
-7.49
-9.51
-11.05
-11.84
-11.83
-11.26
-10.52
-9.96
-9.70
-9.56
-9.24
-8.50
-7.32
-5.97
-4.85
-4.25
-4.25
-4.63
-5.02
-5.07
-4.58
-3.61
-2.43
-1.44
-0.92
-1.04
-1.75
-2.89
-4.22
-5.50
-6.43
-6.69
-6.01
-4.21
-1.37
2.17
5.88
9.17
11.59
12.96
13.35
12.96
12.06
10.89
9.66
8.56
7.73
7.23
6.97
6.75
6.29
5.37
3.83
1.75
-0.65
-3.04
-5.11
-6.62
-7.51
-7.86
-7.87
-7.78
-7.78
-7.86
-7.78
-7.13
-5.48
-2.62
1.27
5.62
9.49
11.90
12.06
9.68
5.03
-1.08
-7.58
-13.47
-18.20
-21.83
-24.89
-28.15
-32.14
-36.81
-41.40
-44.63
-45.08
-41.68
-34.21
-23.42
-10.97
1.04
10.68
16.73
18.91
17.79
14.43
9.97
5.47
1.80
-0.18
0.26
3.57
9.68
17.80
26.65
34.82
41.21
45.32
47.23
47.35
46.14
43.93
40.96
37.53
34.01
30.90
28.62
27.40
27.13
27.43
27.77
27.57
26.41
23.99
20.18
15.02
8.81
2.10
-4.29
-9.40
-12.45
-13.04
-11.48
-8.68
-5.87
-4.06
-3.70
-4.46
-5.51
-5.99
-5.34
-3.52
-0.88
2.06
4.84
7.16
8.86
9.80
9.87
9.05
7.52
5.69
4.16
3.52
4.15
6.02
8.67
11.32
13.19
13.80
13.18
11.88
10.69
10.34
11.19
13.14
15.68
18.12
19.75
20.03
18.71
15.81
11.69
6.95
2.28
-1.70
-4.63
-6.50
-7.53
-8.09
-8.53
-9.09
-9.95
-11.24
-13.11
-15.63
-18.75
-22.25
-25.66
-28.41
-30.02
-30.24
-29.10
-26.88
-23.94
-20.61
-17.11
-13.55
-9.98
-6.47
-3.15
-0.11
2.57
4.88
6.83
8.45
9.77
10.83
11.74
12.55
13.31
13.93
14.24
14.07
13.41
12.43
11.47
10.84
10.66
10.74
10.66
9.95
8.34
5.91
3.11
0.59
-1.05
-1.41
-0.52
1.25
3.28
4.87
5.41
4.58
2.35
-0.95
-4.76
-8.45
-11.52
-13.75
-15.26
-16.47
-17.86
-19.74
-22.04
-24.28
-25.81
-26.06
-24.80
-22.28
-19.09
-15.88
-13.09
-10.76
-8.56
-5.97
-2.59
1.74
6.80
12.14
17.15
21.30
24.19
25.66
25.74
24.62
22.67
20.37
18.31
17.02
16.85
17.79
19.43
21.04
21.81
21.18
18.99
15.53
11.47
7.58
4.55
2.81
2.49
3.34
4.86
6.40
7.37
7.33
6.25
4.39
2.27
0.44
-0.69
-1.01
-0.57
0.37
1.41
2.06
2.01
1.15
-0.40
-2.46
-4.82
-7.22
-9.46
-11.47
-13.29
-14.92
-16.20
-16.83
-16.48
-14.89
-11.74
-7.13
-1.77
3.16
6.50
7.73
7.15
5.78
4.88
6.27
10.87
17.93
25.28
30.60
32.73
32.00
29.90
28.17
29.77
36.14
46.06
56.00
62.45
63.94
61.49
57.64
55.09
58.37
69.86
87.88
107.03
120.94
125.38
119.35
105.00
87.32
77.16
85.42
118.13
173.53
243.03
314.39
374.78
413.89
403.20
329.98
206.83
67.61
-54.57
-144.20
-202.56
-238.23
-259.27
-270.31
-269.66
-255.91
-232.08
-205.60
-184.20
-171.79
-167.55
-167.75
-168.10
-163.02
-149.84
-130.38
-109.95
-93.97
-84.94
-81.91
-81.76
-81.29
-76.78
-66.67
-52.53
-38.15
-27.35
-22.34
-22.94
-27.66
-34.74
-42.09
-48.36
-53.42
-57.96
-63.02
-69.81
-79.35
-91.07
-102.61
-109.32
-105.78
-88.20
-56.36
-14.16
31.88
71.57
97.87
107.95
102.58
85.47
59.64
29.19
-0.40
-23.52
-35.54
-33.89
-19.25
4.68
32.19
58.17
77.97
90.54
97.13
99.50
98.42
92.75
79.95
57.05
24.21
-16.10
-57.82
-94.00
-119.28
-131.49
-131.52
-118.75
-98.66
-76.38
-54.95
-34.78
-16.49
1.00
18.18
35.85
54.84
74.96
95.92
116.83
137.18
155.46
168.49
171.75
161.21
134.99
94.16
43.70
-10.24
-57.28
-85.15
-87.32
-67.08
-34.65
-1.11
26.66
47.16
60.49
67.75
71.60
72.86
70.65
64.25
53.37
38.66
20.56
-4.26
-34.33
-67.26
-100.84
-134.06
-166.34
-198.27
-230.73
-265.81
-308.90
-360.30
-413.37
-456.75
-478.57
-469.53
-426.17
-350.25
-230.14
-80.36
66.31
177.68
238.11
248.70
227.29
188.23
144.76
108.81
86.13
80.54
94.53
126.70
167.35
201.18
215.56
208.95
187.91
158.26
125.42
95.13
73.86
63.92
66.88
81.93
106.76
137.03
166.51
191.79
211.16
221.34
220.96
212.10
199.57
188.65
180.99
176.48
167.52
148.48
117.50
76.14
28.17
-22.12
-69.25
-109.24
-141.15
-166.44
-186.57
-202.26
-213.83
-221.64
-226.81
-231.08
-236.53
-245.65
-260.82
-282.22
-307.07
-329.76
-343.07
-340.41
-318.09
-276.66
-222.17
-164.12
-110.59
-64.91
-25.51
11.30
47.52
81.21
107.84
121.11
116.43
93.20
58.01
22.88
-2.14
-14.48
-20.34
-20.52
-11.93
9.51
46.25
98.60
160.53
222.24
274.10
302.02
299.60
271.20
229.06
185.15
146.35
114.34
88.07
66.22
48.33
36.23
30.78
30.35
30.90
28.00
18.48
1.59
-20.70
-44.45
-64.16
-76.15
-79.96
-77.92
-74.10
-70.39
-67.52
-65.28
-62.97
-59.30
-53.50
-45.79
-37.05
-28.35
-20.48
-14.06
-9.30
-5.92
-3.00
0.35
4.58
9.41
13.88
16.90
17.50
15.41
11.10
5.63
0.36
-3.38
-4.51
-2.36
3.34
12.18
22.94
33.34
40.16
39.57
29.09
10.17
-11.81
-30.37
-41.12
-43.12
-38.36
-30.21
-21.78
-14.78
-9.50
-5.53
-2.46
-0.16
1.49
2.62
3.32
3.73
3.86
3.87
4.05
4.53
5.26
6.40
7.99
9.84
11.42
11.61
8.97
1.81
-10.94
-28.43
-46.73
-59.40
-59.68
-43.41
-11.48
30.40
74.02
111.60
138.45
154.07
160.69
160.94
156.05
145.09
127.04
103.33
76.84
50.72
27.91
9.89
-3.63
-14.13
-25.09
-36.05
-42.90
-42.54
-35.09
-22.21
-6.18
11.75
32.38
55.61
80.90
109.72
139.11
161.71
171.71
167.54
152.02
130.32
104.17
72.77
38.67
1.58
-41.50
-90.34
-141.22
-188.48
-209.64
-191.25
-168.31
-162.98
-174.95
-205.29
-248.73
-294.04
-327.69
-339.59
-330.55
-309.86
-285.09
-263.60
-251.56
-249.31
-253.51
-259.79
-264.71
-268.23
-270.54
-265.64
-246.24
-209.06
-154.61
-87.95
-16.77
51.32
109.37
153.45
185.76
212.19
237.31
263.93
292.34
321.33
349.32
373.98
393.29
393.02
365.64
315.00
254.66
197.45
149.66
112.01
82.20
57.22
35.08
16.79
3.46
-4.97
-10.04
-13.49
-16.32
-18.78
-20.88
-22.75
-23.32
-22.56
-21.92
-24.04
-30.63
-41.29
-53.81
-65.45
-74.23
-78.41
-77.77
-73.52
-67.44
-60.78
-53.92
-46.89
-40.14
-34.56
-30.47
-27.62
-25.25
-22.27
-17.41
-10.36
-1.29
8.88
18.71
26.95
32.72
35.58
35.54
33.01
28.57
22.88
16.49
9.77
3.06
-3.37
-9.29
-14.54
-18.97
-22.50
-25.06
-26.70
-27.63
-28.27
-29.11
-30.49
-32.30
-33.82
-33.99
-31.91
-27.14
-19.76
-10.03
1.97
16.45
33.59
53.19
73.61
91.63
103.31
105.46
97.18
80.14
58.12
35.68
17.21
5.03
-0.91
-2.20
-0.49
3.52
9.74
17.98
27.56
37.98
47.98
55.73
59.27
57.21
49.17
35.51
17.56
-1.52
-15.79
-19.69
-10.85
8.14
30.58
48.30
54.54
45.55
16.05
-30.14
-80.66
-121.52
-144.93
-151.71
-144.02
-122.35
-88.29
-45.12
2.82
48.85
86.30
110.21
119.04
115.01
103.00
87.49
72.03
59.30
49.95
42.42
33.26
19.28
-4.00
-34.63
-66.91
-95.53
-118.18
-136.42
-148.52
-148.93
-130.98
-90.34
-26.14
51.76
126.09
178.38
195.45
174.03
120.88
50.42
-19.81
-73.79
-102.53
-104.53
-83.85
-47.59
-3.59
40.56
78.67
106.60
122.96
127.37
120.69
105.05
83.58
59.42
34.73
10.75
-12.51
-31.99
-44.36
-48.83
-47.69
-43.95
-39.71
-35.95
-32.71
-30.57
-28.92
-28.34
-30.12
-35.19
-43.29
-54.18
-68.64
-88.79
-114.10
-144.11
-177.11
-208.74
-231.74
-237.51
-220.34
-180.30
-123.12
-57.67
6.98
64.11
108.44
134.13
140.74
133.15
117.30
97.64
77.66
60.34
47.90
40.96
38.53
39.05
40.07
39.33
35.83
30.38
24.85
21.27
21.04
25.04
32.30
40.25
44.93
42.47
30.86
10.81
-14.24
-39.17
-58.91
-70.09
-72.29
-67.93
-60.56
-53.13
-46.94
-41.80
-36.76
-30.95
-24.10
-16.70
-9.64
-3.59
1.34
5.62
9.84
14.20
18.37
21.60
23.23
23.11
21.86
20.60
20.37
21.60
23.74
25.64
26.06
24.48
21.33
17.87
15.46
14.86
15.89
17.49
18.25
17.11
13.90
9.46
5.38
3.35
4.49
8.93
15.76
23.50
30.56
35.85
38.82
39.44
37.97
34.72
30.10
24.70
19.41
15.28
13.36
14.21
17.74
23.01
28.52
32.57
33.85
31.91
27.38
21.73
16.72
13.71
13.25
15.08
18.46
22.60
26.91
30.91
34.03
35.47
34.42
30.30
23.05
13.15
1.50
-10.89
-23.02
-34.04
-43.36
-50.83
-56.75
-61.64
-65.97
-69.83
-72.84
-74.54
-74.77
-73.85
-72.29
-70.22
-66.96
-61.34
-52.18
-39.14
-23.27
-6.71
8.17
19.85
28.32
34.88
41.17
48.21
55.85
62.76
67.05
67.39
63.76
57.54
51.11
46.58
44.99
46.14
48.71
50.65
50.09
45.83
37.63
26.44
13.52
0.74
-9.47
-15.02
-15.41
-11.72
-6.30
-1.71
0.78
0.38
-2.23
-5.03
-5.95
-4.66
-1.97
0.91
3.29
6.11
8.97
11.19
12.33
11.87
8.80
3.08
-4.16
-11.07
-15.34
-18.43
-23.45
-33.02
-39.23
-34.01
-13.55
18.48
46.15
67.33
81.48
87.50
87.84
82.70
71.38
54.09
32.56
9.78
-10.02
-25.84
-38.67
-50.16
-62.62
-78.04
-96.51
-116.59
-136.06
-152.60
-167.08
-181.94
-199.43
-222.01
-251.07
-285.67
-322.67
-357.06
-381.71
-389.84
-375.90
-337.11
-276.76
-202.56
-123.07
-44.75
29.94
102.89
176.71
251.88
324.31
383.31
416.44
415.64
380.30
317.48
240.00
161.98
95.12
56.13
50.73
68.27
92.96
115.27
132.92
146.44
154.63
152.52
134.45
96.61
41.10
-22.90
-84.01
-135.42
-170.98
-192.05
-203.21
-208.90
-212.45
-214.69
-213.15
-203.97
-184.35
-152.64
-110.60
-61.38
-9.79
37.94
76.06
103.26
123.05
140.97
162.43
183.34
196.53
196.04
180.32
150.98
111.48
68.15
20.93
-28.92
-79.01
-123.96
-158.06
-172.15
-162.87
-132.22
-86.49
-34.54
18.04
60.59
85.62
92.59
86.69
73.33
56.76
40.14
25.94
17.34
16.14
22.80
34.78
46.70
50.86
41.20
16.26
-20.21
-59.60
-90.51
-104.61
-100.66
-83.86
-62.56
-43.63
-30.58
-24.42
-24.45
-29.76
-38.35
-46.38
-48.49
-40.14
-19.77
10.19
43.74
74.13
95.61
105.29
103.54
93.19
78.09
62.27
49.54
40.77
38.02
41.90
50.82
61.42
69.86
73.24
70.37
61.93
49.62
35.55
20.92
5.99
-9.30
-24.74
-39.44
-52.04
-61.15
-66.06
-66.74
-64.38
-60.76
-57.53
-55.43
-54.03
-51.93
-47.53
-39.83
-28.76
-15.45
-1.64
11.10
21.80
30.13
36.04
39.62
41.13
41.41
41.92
44.48
50.79
61.66
76.67
94.23
111.95
127.09
137.02
139.73
134.27
121.53
104.50
87.62
75.56
71.80
77.66
92.15
112.55
134.99
155.08
168.30
170.70
159.82
135.56
100.51
59.21
16.64
-23.36
-59.02
-90.38
-118.48
-144.44
-169.29
-194.21
-220.57
-249.67
-281.79
-315.50
-347.71
-374.29
-391.11
-395.07
-384.57
-359.51
-321.03
-271.49
-214.43
-154.48
-96.73
-45.47
-2.81
32.12
62.57
92.16
122.16
149.66
168.24
170.78
153.45
118.14
72.23
25.59
-13.42
-40.83
-57.06
-64.65
-65.48
-59.57
-46.29
-26.46
-3.22
19.06
36.70
48.85
57.85
67.93
82.86
103.92
129.40
155.74
179.16
195.95
203.07
198.40
181.17
152.33
114.22
69.89
22.77
-23.62
-60.01
-73.61
-55.85
-8.97
54.10
114.07
152.25
157.86
136.72
98.31
54.08
14.10
-16.66
-38.68
-56.33
-74.89
-98.54
-126.39
-157.64
-190.25
-219.48
-239.28
-243.51
-228.76
-196.01
-150.40
-99.11
-45.51
0.99
33.16
50.21
57.25
59.57
59.90
58.89
57.13
56.00
55.39
56.52
60.62
69.99
86.61
112.00
147.13
193.15
245.79
298.56
343.60
361.08
338.16
278.03
199.56
125.19
69.98
37.34
21.51
13.78
8.05
2.34
-3.91
-11.94
-24.87
-43.05
-66.77
-95.18
-126.70
-160.16
-194.22
-229.13
-266.86
-309.84
-357.33
-405.01
-445.36
-470.12
-473.22
-452.12
-409.43
-352.23
-289.71
-228.01
-169.98
-115.36
-62.47
-9.52
44.75
99.57
151.36
193.98
223.29
237.66
239.15
233.15
227.21
228.76
241.85
265.66
283.41
279.88
249.80
201.52
148.72
101.52
64.62
38.82
24.84
19.09
20.17
25.58
30.35
27.74
12.39
-16.66
-56.60
-98.16
-130.35
-142.57
-129.91
-94.73
-45.40
7.59
55.44
92.96
118.74
133.19
139.00
138.91
134.84
127.58
117.25
103.96
88.14
70.86
53.44
38.06
26.84
20.92
20.01
22.54
26.47
29.90
31.78
31.65
29.74
26.37
21.53
14.85
5.99
-4.86
-16.84
-28.44
-38.27
-45.48
-50.05
-52.56
-53.66
-53.73
-52.71
-50.56
-47.73
-45.52
-45.66
-49.40
-56.63
-65.45
-72.72
-75.12
-70.42
-58.43
-41.16
-22.28
-5.97
4.35
7.11
2.85
-6.10
-16.77
-26.58
-34.05
-38.75
-40.71
-39.96
-36.36
-30.07
-21.96
-13.73
-7.42
-4.53
-5.38
-8.95
-13.33
-16.59
-17.56
-16.16
-13.34
-10.58
-9.32
-10.31
-13.41
-17.62
-21.60
-24.26
-25.25
-25.08
-24.85
-25.74
-28.50
-33.27
-39.59
-46.64
-53.45
-59.09
-62.71
-63.73
-61.84
-57.22
-50.71
-43.81
-38.43
-36.30
-38.17
-43.05
-47.98
-48.93
-42.39
-27.05
-4.74
20.00
41.54
55.39
60.13
57.82
53.00
50.36
52.49
58.52
64.52
64.86
54.37
30.54
-5.49
-49.04
-92.91
-128.86
-149.28
-148.88
-126.70
-86.60
-36.00
16.30
62.75
98.88
123.80
139.34
148.37
152.41
151.13
143.69
129.82
110.88
89.47
68.91
52.56
43.29
41.14
43.44
45.82
42.88
30.35
6.46
-27.29
-66.51
-100.50
-117.90
-112.83
-89.70
-60.63
-35.87
-19.19
-8.79
-0.73
7.49
15.18
18.96
15.61
2.45
-20.95
-53.31
-92.89
-138.94
-187.50
-236.73
-283.12
-310.28
-304.71
-264.22
-200.74
-132.43
-77.99
-37.30
-8.00
13.09
29.51
41.38
49.02
53.98
59.47
69.21
86.18
108.43
131.28
149.14
156.02
149.07
129.88
104.06
78.58
59.46
48.06
43.00
41.74
41.02
38.89
34.90
29.82
24.61
19.98
15.31
10.19
5.02
0.57
-1.97
-1.38
3.10
11.34
22.16
33.09
41.31
44.41
40.63
29.59
12.50
-7.82
-27.56
-42.92
-51.53
-52.95
-48.54
-40.63
-31.26
-21.50
-11.39
-0.76
9.97
19.41
25.73
27.61
25.13
19.90
14.48
11.37
12.18
17.30
25.98
36.73
47.82
57.61
64.78
68.55
68.77
65.97
61.20
55.75
50.84
47.30
45.50
45.33
46.34
48.00
49.90
51.83
53.84
56.03
58.41
60.70
62.34
62.54
60.45
55.49
47.43
36.62
23.89
10.35
-2.92
-15.13
-25.86
-35.04
-42.71
-48.88
-53.45
-56.33
-57.53
-57.26
-55.89
-53.78
-51.17
-48.14
-44.70
-40.86
-36.84
-32.98
-29.74
-27.48
-26.25
-25.72
-25.25
-24.10
-21.72
-17.94
-13.00
-7.39
-1.77
3.33
7.47
10.46
12.34
13.41
14.15
15.10
16.55
18.47
20.46
21.97
22.60
22.20
20.89
18.88
16.30
13.17
9.47
5.26
0.73
-3.75
-7.75
-10.76
-12.27
-11.89
-9.54
-5.60
-0.93
3.35
6.26
7.35
6.81
5.33
3.79
2.94
3.29
5.10
8.39
12.89
18.01
22.91
26.85
29.53
31.27
32.80
34.70
36.90
38.45
37.93
34.24
27.33
18.44
9.59
2.60
-1.75
-3.96
-5.34
-7.01
-9.21
-11.18
-11.65
-9.91
-6.34
-2.39
0.15
0.02
-2.78
-7.08
-11.13
-13.33
-12.93
-9.99
-5.23
0.40
5.91
10.44
13.19
13.48
10.82
5.12
-3.18
-13.17
-23.65
-33.46
-41.66
-47.61
-50.99
-51.72
-50.01
-46.31
-41.34
-36.01
-31.25
-27.77
-26.02
-26.08
-27.68
-30.25
-32.97
-34.98
-35.55
-34.31
-31.25
-26.71
-21.19
-15.34
-9.89
-5.63
-3.25
-3.02
-4.60
-6.98
-8.89
-9.37
-8.23
-6.18
-4.35
-3.74
-4.74
-7.06
-10.06
-13.18
-16.13
-18.86
-21.37
-23.46
-24.71
-24.64
-22.97
-19.82
-15.93
-12.52
-10.87
-11.83
-15.30
-20.18
-24.81
-27.58
-27.36
-23.55
-15.85
-4.09
11.47
29.75
48.54
64.89
76.12
80.91
79.92
75.29
69.56
64.45
60.41
56.93
53.44
49.85
46.53
43.89
41.87
39.87
37.05
33.01
28.02
23.16
19.70
18.58
19.91
22.90
26.29
28.90
30.21
30.44
30.37
30.66
31.43
32.05
31.48
28.77
23.52
16.08
7.40
-1.34
-9.08
-15.02
-18.58
-19.39
-17.34
-12.69
-6.13
1.40
8.92
15.68
21.22
25.31
27.78
28.51
27.43
24.59
20.16
14.38
7.43
-0.43
-8.85
-17.23
-24.87
-31.18
-35.91
-39.11
-40.86
-40.94
-38.91
-34.53
-28.24
-21.34
-15.67
-12.71
-12.92
-15.46
-18.78
-21.59
-23.52
-25.07
-27.01
-29.57
-32.08
-33.22
-31.68
-26.93
-19.78
-12.16
-6.14
-2.95
-2.46
-3.29
-3.51
-1.35
3.86
10.99
17.46
20.58
19.13
14.07
8.32
5.60
9.10
20.23
37.35
56.44
72.76
82.62
84.09
76.90
62.18
42.69
22.95
7.61
0.55
3.87
16.90
35.76
54.38
64.71
60.60
43.61
22.11
5.17
-3.09
-3.67
0.18
5.62
11.23
16.09
20.52
22.77
20.26
11.33
-3.56
-22.16
-41.64
-60.62
-80.20
-99.90
-122.30
-150.67
-187.14
-231.04
-278.21
-320.98
-350.52
-359.53
-344.70
-308.87
-259.44
-205.49
-154.49
-109.99
-70.24
-31.28
9.86
53.07
94.35
127.85
147.86
150.83
136.64
110.62
80.38
52.95
32.32
18.99
11.51
7.86
6.98
9.75
20.77
43.94
79.64
123.70
169.75
212.42
248.83
278.66
288.66
271.00
229.31
177.13
126.68
83.38
47.90
19.49
-2.43
-18.17
-24.65
-22.18
-13.25
-2.65
5.00
7.32
4.49
-1.60
-8.45
-12.34
-12.45
-9.28
-5.25
-2.59
-1.92
-2.45
-3.24
-4.35
-6.27
-10.83
-20.11
-35.77
-57.39
-82.25
-106.44
-126.51
-140.57
-147.89
-149.13
-145.30
-137.60
-126.71
-112.82
-96.12
-77.35
-57.85
-39.15
-22.71
-9.40
0.43
7.14
11.50
14.37
16.35
17.66
18.27
18.10
17.37
16.50
16.03
16.34
17.48
19.07
20.50
21.22
21.07
20.40
19.85
20.06
21.32
23.36
25.49
26.88
26.82
24.94
21.28
16.18
10.29
4.38
-0.80
-4.75
-7.36
-8.96
-10.11
-11.29
-12.58
-13.68
-14.14
-13.68
-12.45
-10.86
-9.39
-8.24
-7.28
-6.15
-4.57
-2.46
0.06
2.78
5.52
8.14
10.46
12.29
13.47
14.05
14.31
14.67
15.52
16.96
18.80
20.67
22.26
23.48
24.46
25.42
26.45
27.35
27.65
26.78
24.31
20.24
15.09
9.69
4.96
1.47
-0.72
-2.04
-3.18
-4.73
-6.97
-9.78
-12.81
-15.62
-17.87
-19.43
-20.26
-20.42
-19.97
-19.00
-17.57
-15.82
-13.83
-11.67
-9.35
-6.82
-4.11
-1.30
1.40
3.73
5.48
6.56
7.02
7.04
6.87
6.76
6.92
7.40
8.16
9.01
9.75
10.21
10.38
10.42
10.47
10.60
10.68
10.45
9.67
8.29
6.59
5.02
4.05
3.88
4.34
5.00
5.44
5.41
4.99
4.46
4.10
3.94
3.79
3.31
2.24
0.60
-1.32
-3.08
-4.24
-4.61
-4.26
-3.48
-2.62
-2.02
-1.84
-2.06
-2.50
-2.91
-3.09
-2.98
-2.66
-2.35
-2.26
-2.53
-3.17
-4.11
-5.26
-6.56
-7.94
-9.34
-10.65
-11.76
-12.66
-13.38
-13.92
-14.12
-13.63
-12.02
-9.01
-4.74
0.24
5.11
9.13
11.92
13.59
14.56
15.31
16.10
16.91
17.56
17.84
17.68
17.13
16.33
15.37
14.28
13.04
11.65
10.18
8.84
7.89
7.52
7.79
8.55
9.51
10.39
10.97
11.22
11.20
11.02
10.73
10.37
9.93
9.39
8.80
8.19
7.55
6.91
6.27
5.65
5.03
4.40
3.75
3.09
2.51
2.16
2.15
2.46
2.91
3.22
3.16
2.64
1.75
0.68
-0.42
-1.50
-2.59
-3.73
-4.87
-5.89
-6.68
-7.17
-7.43
-7.64
-7.92
-8.33
-8.75
-9.05
-9.11
-8.92
-8.53
-8.02
-7.37
-6.51
-5.33
-3.82
-2.10
-0.35
1.25
2.65
3.89
5.04
6.17
7.23
8.15
8.87
9.44
9.95
10.45
10.86
10.98
10.55
9.41
7.63
5.51
3.48
1.89
0.92
0.52
0.45
0.51
0.55
0.58
0.67
0.86
1.07
1.18
1.01
0.49
-0.36
-1.42
-2.54
-3.62
-4.65
-5.71
-6.85
-8.07
-9.32
-10.46
-11.33
-11.86
-12.08
-12.12
-12.11
-12.13
-12.05
-11.62
-10.57
-8.79
-6.43
-3.91
-1.73
-0.26
0.41
0.52
0.47
0.66
1.25
2.19
3.23
4.16
4.85
5.25
5.39
5.24
4.83
4.16
3.36
2.61
2.09
1.96
2.22
2.78
3.49
4.15
4.61
4.77
4.60
4.15
3.55
2.92
2.33
1.75
1.05
0.11
-1.09
-2.44
-3.74
-4.84
-5.67
-6.30
-6.78
-7.12
-7.22
-6.95
-6.26
-5.23
-4.06
-2.93
-1.93
-0.94
0.22
1.70
3.50
5.36
6.95
7.98
8.35
8.22
7.85
7.49
7.24
6.99
6.56
5.81
4.69
3.32
1.88
0.55
-0.55
-1.37
-1.93
-2.28
-2.49
-2.71
-3.08
-3.74
-4.81
-6.23
-7.82
-9.29
-10.27
-10.54
-10.09
-9.22
-8.37
-8.02
-8.44
-9.66
-11.49
-13.62
-15.80
-17.84
-19.59
-20.94
-21.74
-21.90
-21.41
-20.37
-18.95
-17.37
-15.84
-14.54
-13.62
-13.16
-13.10
-13.25
-13.24
-12.72
-11.41
-9.25
-6.37
-3.07
0.37
3.69
6.72
9.33
11.40
12.87
13.72
14.02
13.90
13.51
12.99
12.38
11.69
10.90
10.02
8.99
7.77
6.23
4.29
1.95
-0.61
-3.05
-5.01
-6.23
-6.70
-6.58
-6.19
-5.73
-5.32
-4.92
-4.42
-3.76
-2.99
-2.14
-1.31
-0.55
0.13
0.67
1.02
1.12
0.95
0.55
0.04
-0.43
-0.77
-0.95
-1.03
-1.08
-1.13
-1.10
-0.96
-0.69
-0.35
-0.08
-0.00
-0.15
-0.46
-0.82
-1.11
-1.31
-1.41
-1.41
-1.30
-1.09
-0.85
-0.71
-0.75
-0.98
-1.31
-1.57
-1.73
-1.89
-2.23
-2.88
-3.76
-4.56
-4.86
-4.39
-3.13
-1.33
0.65
2.57
4.39
6.27
8.32
10.55
12.71
14.47
15.57
16.05
16.17
16.33
16.87
17.86
19.19
20.61
21.91
22.97
23.78
24.35
24.66
24.71
24.50
24.03
23.39
22.63
21.81
20.95
20.05
19.12
18.09
16.85
15.32
13.49
11.47
9.47
7.71
6.29
5.19
4.24
3.28
2.29
1.41
0.86
0.86
1.41
2.35
3.40
4.32
5.02
5.55
6.06
6.62
7.24
7.80
8.11
8.05
7.58
6.73
5.62
4.31
2.90
1.45
0.04
-1.23
-2.32
-3.26
-4.13
-5.03
-6.03
-7.10
-8.12
-9.01
-9.70
-10.24
-10.71
-11.25
-11.91
-12.68
-13.42
-13.95
-14.11
-13.84
-13.24
-12.55
-12.09
-12.12
-12.74
-13.86
-15.24
-16.60
-17.77
-18.69
-19.42
-20.01
-20.51
-20.89
-21.12
-21.20
-21.15
-21.00
-20.72
-20.25
-19.52
-18.47
-17.10
-15.48
-13.73
-12.00
-10.36
-8.89
-7.58
-6.38
-5.25
-4.16
-3.14
-2.23
-1.52
-1.01
-0.70
-0.56
-0.52
-0.52
-0.44
-0.13
0.54
1.62
3.06
4.66
6.25
7.71
9.06
10.42
11.88
13.46
15.06
16.54
17.81
18.88
19.81
20.65
21.34
21.81
22.01
21.95
21.76
21.61
21.63
21.89
22.36
22.92
23.40
23.64
23.49
22.94
22.06
20.99
19.90
18.83
17.73
16.45
14.84
12.86
10.51
7.88
5.04
2.06
-0.94
-3.81
-6.38
-8.50
-10.12
-11.28
-12.08
-12.58
-12.79
-12.64
-12.08
-11.10
-9.78
-8.29
-6.79
-5.39
-4.15
-3.09
-2.22
-1.59
-1.22
-1.10
-1.12
-1.10
-0.95
-0.64
-0.32
-0.17
-0.33
-0.72
-1.14
-1.34
-1.14
-0.55
0.30
1.19
1.96
2.53
2.92
3.17
3.31
3.37
3.33
3.22
3.04
2.77
2.37
1.88
1.37
0.96
0.80
0.87
1.04
1.09
0.85
0.26
-0.54
-1.39
-2.13
-2.72
-3.23
-3.76
-4.33
-4.94
-5.53
-6.06
-6.56
-7.07
-7.59
-8.07
-8.40
-8.54
-8.52
-8.46
-8.50
-8.73
-9.12
-9.54
-9.90
-10.10
-10.15
-10.09
-9.91
-9.53
-8.85
-7.80
-6.39
-4.75
-3.01
-1.28
0.45
2.22
4.05
5.89
7.67
9.30
10.75
12.07
13.29
14.38
15.28
15.98
16.58
17.29
18.33
19.83
21.71
23.75
25.69
27.36
28.72
29.81
30.74
31.53
32.23
32.83
33.35
33.74
33.94
33.79
33.10
31.66
29.31
25.92
21.38
15.48
8.13
-0.57
-10.20
-20.11
-29.56
-37.86
-44.45
-49.00
-51.48
-52.07
-50.99
-48.44
-44.58
-39.61
-33.88
-27.71
-21.72
-16.70
-13.31
-11.74
-11.49
-11.60
-11.09
-9.36
-5.91
-1.06
4.14
8.51
11.53
13.65
15.89
19.25
24.04
30.83
38.97
46.71
52.16
54.63
55.06
55.41
57.44
61.86
69.91
81.23
93.64
104.23
111.02
113.64
113.13
111.62
112.17
120.72
141.47
173.99
212.45
247.65
270.38
274.36
258.14
210.36
132.68
39.68
-48.39
-117.43
-164.08
-191.68
-204.88
-207.58
-203.15
-193.01
-179.27
-165.00
-152.86
-143.71
-136.08
-127.82
-117.85
-106.78
-95.57
-85.88
-80.79
-83.34
-94.11
-109.72
-123.35
-127.16
-113.30
-80.97
-37.16
5.47
34.09
41.55
29.05
4.28
-23.24
-46.51
-62.55
-71.21
-73.10
-68.10
-55.67
-36.66
-14.65
4.72
16.33
17.90
11.46
1.81
-6.42
-10.30
-9.61
-6.19
-2.55
-0.52
-0.90
-3.43
-7.25
-11.33
-14.51
-15.67
-13.78
-8.40
-0.21
8.60
14.91
16.12
11.57
3.06
-5.85
-11.75
-13.23
-11.66
-10.45
-13.25
-21.63
-34.51
-48.91
-61.91
-72.06
-79.91
-87.33
-94.55
-101.99
-109.24
-115.53
-120.32
-123.71
-126.34
-128.93
-131.67
-133.85
-134.26
-131.19
-123.22
-109.66
-90.65
-66.83
-38.93
-7.56
26.71
62.78
99.08
133.48
163.62
187.40
203.43
211.22
211.10
204.11
191.50
174.80
155.47
134.81
113.81
93.12
73.12
54.04
36.09
19.49
4.54
-8.43
-19.13
-27.52
-33.89
-38.90
-43.54
-48.87
-55.78
-64.54
-74.64
-84.80
-93.25
-98.20
-98.35
-93.15
-82.94
-68.67
-51.58
-32.82
-13.38
5.97
24.58
41.78
56.91
69.36
78.69
84.67
87.32
86.94
84.05
79.30
73.36
66.78
59.96
53.25
46.94
41.35
36.80
33.48
31.33
30.07
29.26
28.55
27.78
26.98
26.27
25.74
25.32
24.87
24.26
23.46
22.55
21.68
20.97
20.41
19.88
19.16
18.09
16.62
14.84
12.96
11.19
9.62
8.21
6.80
5.25
3.55
1.82
0.24
-1.04
-2.05
-2.95
-3.95
-5.22
-6.72
-8.24
-9.48
-10.19
-10.28
-9.86
-9.21
-8.65
-8.42
-8.60
-9.10
-9.77
-10.47
-11.14
-11.81
-12.50
-13.14
-13.55
-13.49
-12.76
-11.31
-9.28
-6.98
-4.76
-2.90
-1.54
-0.64
-0.03
0.45
0.92
1.36
1.67
1.69
1.36
0.69
-0.20
-1.20
-2.23
-3.27
-4.30
-5.26
-6.04
-6.50
-6.56
-6.24
-5.70
-5.15
-4.74
-4.54
-4.49
-4.47
-4.38
-4.13
-3.74
-3.29
-2.89
-2.64
-2.61
-2.80
-3.18
-3.65
-4.10
-4.39
-4.42
-4.18
-3.76
-3.30
-2.97
-2.93
-3.22
-3.76
-4.40
-4.94
-5.18
-4.99
-4.33
-3.27
-1.95
-0.54
0.76
1.85
2.68
3.27
3.65
3.79
3.65
3.20
2.48
1.60
0.68
-0.19
-1.03
-1.84
-2.65
-3.38
-3.89
-4.06
-3.88
-3.46
-3.01
-2.67
-2.52
-2.45
-2.33
-2.03
-1.54
-0.95
-0.45
-0.16
-0.14
-0.39
-0.84
-1.43
-2.11
-2.87
-3.66
-4.43
-5.16
-5.84
-6.54
-7.32
-8.22
-9.16
-9.95
-10.31
-9.98
-8.86
-7.00
-4.64
-2.05
0.54
2.97
5.18
7.06
8.49
9.31
9.38
8.76
7.72
6.65
5.88
5.57
5.57
5.59
5.32
4.65
3.67
2.61
1.71
1.06
0.61
0.22
-0.23
-0.82
-1.51
-2.29
-3.09
-3.90
-4.69
-5.38
-5.93
-6.28
-6.47
-6.58
-6.72
-6.99
-7.39
-7.81
-8.13
-8.26
-8.17
-7.95
-7.63
-7.18
-6.44
-5.19
-3.38
-1.09
1.35
3.52
5.15
6.23
7.08
8.18
9.99
12.66
15.92
19.13
21.55
22.68
22.54
21.79
21.54
22.94
26.61
32.38
39.23
45.73
50.63
53.48
54.85
56.04
58.53
63.19
69.95
77.74
85.03
90.32
92.71
92.26
90.10
88.48
90.24
97.85
112.02
130.60
148.45
158.70
154.99
133.85
95.93
45.51
-11.38
-69.29
-124.95
-177.60
-228.28
-278.64
-329.68
-380.87
-429.69
-471.88
-502.39
-516.81
-512.81
-490.81
-453.49
-404.40
-346.68
-282.59
-214.15
-144.03
-75.92
-13.81
39.48
83.44
119.88
151.59
180.55
206.56
227.30
239.42
240.35
229.63
209.26
183.09
155.54
130.32
109.63
93.97
82.68
74.65
69.07
65.69
64.55
65.49
67.81
70.33
71.70
70.94
67.76
62.53
56.00
48.94
41.95
35.33
29.21
23.65
18.70
14.52
11.36
9.43
8.83
9.33
10.45
11.53
12.00
11.61
10.49
9.05
7.69
6.69
6.03
5.53
4.95
4.24
3.50
2.96
2.86
3.33
4.29
5.42
6.24
6.31
5.49
4.03
2.46
1.36
1.06
1.54
2.43
3.19
3.39
2.93
2.01
1.00
0.25
-0.10
-0.04
0.18
0.18
-0.40
-1.62
-3.25
-4.82
-5.85
-6.10
-5.30
-3.65
-1.71
-0.09
0.96
1.73
2.86
4.97
8.41
13.48
19.60
25.32
29.10
30.32
29.62
28.58
28.89
31.61
37.51
45.79
54.23
60.28
62.43
60.66
56.20
51.05
47.79
50.21
60.57
78.05
98.47
115.64
123.43
117.72
97.93
61.00
11.99
-37.62
-76.45
-100.19
-111.62
-115.62
-115.12
-110.56
-101.67
-88.33
-72.93
-59.80
-52.83
-53.01
-57.91
-63.04
-64.37
-59.94
-49.85
-36.88
-25.31
-18.78
-18.73
-24.39
-33.36
-42.55
-48.63
-47.96
-38.19
-19.30
5.92
32.76
55.39
68.81
71.59
66.17
57.82
51.45
48.82
48.08
45.12
35.30
16.45
-9.65
-38.05
-62.32
-76.40
-78.67
-72.01
-61.50
-51.57
-43.41
-35.34
-25.47
-13.19
-1.30
5.51
4.45
-3.74
-14.99
-24.27
-28.28
-27.22
-24.29
-24.07
-30.21
-43.02
-60.06
-77.19
-89.91
-94.52
-88.57
-71.70
-44.48
-13.92
12.59
30.22
38.47
41.32
41.58
40.43
37.24
30.68
21.59
14.07
13.68
24.53
46.20
72.75
95.47
106.99
101.12
79.72
51.19
26.33
13.94
17.33
33.55
56.09
78.47
96.86
111.25
122.75
130.95
133.34
125.80
104.41
68.15
20.38
-33.15
-79.55
-106.42
-109.69
-94.63
-71.46
-49.47
-33.95
-26.15
-25.23
-29.44
-36.25
-43.13
-46.02
-40.61
-24.94
-1.29
24.17
43.25
49.78
40.68
16.38
-14.88
-40.30
-50.52
-44.70
-28.69
-10.46
2.63
9.14
7.81
-2.13
-19.81
-41.76
-62.51
-71.85
-61.25
-26.91
27.72
90.06
142.75
169.77
161.91
118.96
48.55
-38.36
-131.52
-216.18
-277.30
-307.54
-308.94
-286.59
-244.37
-186.26
-119.89
-55.68
-3.29
30.93
46.07
46.62
39.90
31.88
25.89
22.49
21.40
22.52
25.39
29.21
33.67
39.49
47.27
57.21
68.29
77.97
82.54
78.09
62.33
36.08
3.31
-30.29
-57.72
-72.10
-68.15
-43.43
1.78
64.74
138.91
215.21
276.12
303.37
287.73
235.62
164.93
95.55
41.10
5.85
-13.78
-25.47
-35.46
-46.15
-55.21
-58.89
-53.74
-38.64
-15.71
10.50
34.64
53.50
66.88
76.89
82.71
83.66
77.74
61.69
32.44
-11.00
-65.85
-126.04
-184.40
-235.68
-276.55
-307.42
-331.24
-350.34
-363.71
-366.60
-352.88
-318.74
-265.54
-197.83
-123.48
-50.95
13.81
68.61
113.53
149.00
175.19
193.26
208.73
227.50
252.26
280.65
306.33
322.09
323.50
311.25
276.99
223.55
162.82
106.56
58.68
17.50
-17.90
-45.52
-62.85
-70.00
-69.63
-66.13
-64.11
-66.89
-75.34
-88.73
-106.05
-126.55
-144.68
-153.94
-149.27
-129.27
-97.89
-62.59
-31.63
-11.09
-2.59
-2.63
-5.25
-4.88
2.93
20.02
45.95
78.14
111.76
140.11
156.76
157.53
137.18
98.05
48.61
1.44
-30.61
-38.55
-20.21
19.31
69.23
116.77
151.66
167.73
164.03
144.08
114.04
80.53
49.06
23.13
4.33
-6.77
-10.95
-9.90
-5.86
-1.30
1.32
0.23
-5.27
-14.23
-23.72
-30.32
-31.59
-27.51
-20.95
-16.86
-20.19
-33.67
-56.42
-83.90
-109.88
-128.88
-138.12
-138.12
-131.77
-122.45
-112.38
-102.08
-90.67
-77.13
-61.23
-43.72
-25.81
-8.44
8.16
24.20
39.51
52.88
62.04
64.43
58.33
43.92
23.47
0.66
-20.68
-37.74
-49.36
-55.86
-58.33
-57.93
-55.47
-51.42
-46.21
-40.38
-34.50
-28.97
-23.80
-18.67
-13.17
-7.16
-0.99
4.72
9.37
12.77
15.18
17.17
19.23
21.55
23.96
26.11
27.64
28.39
28.40
27.81
26.84
25.72
24.79
24.43
24.95
26.44
28.65
31.08
33.14
34.53
35.28
35.73
36.36
37.53
39.24
41.15
42.62
42.87
41.15
36.99
30.30
21.50
11.40
0.95
-9.00
-17.87
-25.38
-31.37
-35.66
-38.06
-38.33
-36.40
-32.55
-27.39
-21.76
-16.49
-12.16
-9.04
-7.05
-5.89
-5.23
-4.75
-4.27
-3.66
-2.85
-1.77
-0.36
1.32
3.19
5.06
6.75
8.12
9.08
9.47
9.13
7.85
5.51
2.19
-1.83
-6.10
-10.17
-13.65
-16.25
-17.83
-18.32
-17.77
-16.36
-14.50
-12.68
-11.46
-11.26
-12.28
-14.53
-17.79
-21.71
-25.75
-29.34
-31.85
-32.82
-32.08
-29.86
-26.67
-23.17
-19.89
-17.08
-14.72
-12.61
-10.62
-8.75
-7.15
-6.02
-5.43
-5.22
-5.10
-4.73
-3.93
-2.75
-1.41
-0.20
0.68
1.24
1.60
1.95
2.36
2.82
3.19
3.28
2.94
2.20
1.26
0.41
0.00
0.23
1.09
2.28
3.41
4.09
4.15
3.70
2.99
2.34
1.92
1.75
1.69
1.60
1.39
1.12
0.87
0.67
0.44
-0.07
-1.16
-3.02
-5.57
-8.47
-11.21
-13.28
-14.34
-14.32
-13.37
-11.78
-9.83
-7.77
-5.78
-3.94
-2.29
-0.82
0.49
1.60
2.45
3.00
3.28
3.39
3.47
3.62
3.81
3.95
3.95
3.83
3.75
3.86
4.20
4.70
5.14
5.40
5.46
5.49
5.63
5.95
6.32
6.45
6.09
5.14
3.78
2.32
1.08
0.25
-0.27
-0.72
-1.43
-2.57
-4.16
-5.99
-7.84
-9.49
-10.87
-12.01
-12.96
-13.72
-14.25
-14.45
-14.25
-13.67
-12.76
-11.56
-10.10
-8.32
-6.23
-3.90
-1.56
0.53
2.18
3.27
3.87
4.13
4.22
4.33
4.62
5.17
6.00
7.02
8.04
8.83
9.20
9.12
8.68
8.05
7.34
6.58
5.67
4.55
3.26
1.91
0.69
-0.32
-1.18
-1.99
-2.85
-3.74
-4.49
-4.88
-4.82
-4.35
-3.74
-3.32
-3.35
-3.97
-5.12
-6.62
-8.18
-9.62
-10.78
-11.61
-12.11
-12.27
-12.08
-11.47
-10.38
-8.77
-6.70
-4.35
-1.99
0.19
2.11
3.85
5.61
7.54
9.63
11.64
13.24
14.14
14.25
13.78
13.07
12.52
12.39
12.73
13.36
14.00
14.36
14.25
13.65
12.70
11.62
10.65
9.89
9.37
9.04
8.82
8.66
8.47
8.14
7.54
6.56
5.24
3.79
2.53
1.71
1.33
1.14
0.71
-0.28
-1.95
-4.11
-6.41
-8.46
-10.06
-11.19
-11.99
-12.64
-13.23
-13.73
-13.98
-13.79
-13.01
-11.63
-9.74
-7.52
-5.18
-2.92
-0.84
1.01
2.65
4.11
5.38
6.37
6.99
7.25
7.30
7.39
7.82
8.71
9.97
11.21
11.99
12.00
11.25
10.06
8.83
7.86
7.19
6.59
5.85
4.86
3.71
2.64
1.80
1.27
0.94
0.67
0.35
0.02
-0.26
-0.44
-0.57
-0.81
-1.39
-2.43
-4.06
-6.21
-8.73
-11.32
-13.65
-15.41
-16.50
-16.94
-16.91
-16.56
-15.87
-14.69
-12.81
-10.24
-7.20
-4.21
-1.74
-0.02
1.08
1.97
3.06
4.52
6.20
7.72
8.69
8.92
8.55
7.91
7.43
7.40
7.92
8.85
9.92
10.82
11.35
11.41
11.03
10.34
9.50
8.59
7.69
6.74
5.70
4.53
3.27
2.03
0.94
0.01
-0.84
-1.76
-2.86
-4.19
-5.61
-6.92
-7.97
-8.74
-9.37
-10.03
-10.86
-11.84
-12.83
-13.65
-14.15
-14.25
-13.92
-13.14
-11.88
-10.11
-7.92
-5.49
-3.09
-0.98
0.68
1.93
2.96
3.99
5.16
6.42
7.59
8.41
8.70
8.47
7.92
7.35
6.99
6.90
7.00
7.07
6.98
6.64
6.13
5.55
5.00
4.43
3.75
2.85
1.68
0.35
-0.93
-1.89
-2.36
-2.37
-2.09
-1.86
-2.00
-2.70
-3.93
-5.42
-6.87
-8.00
-8.71
-9.08
-9.27
-9.44
-9.70
-9.99
-10.18
-10.10
-9.61
-8.76
-7.67
-6.53
-5.41
-4.23
-2.79
-0.94
1.30
3.70
5.87
7.51
8.52
9.04
9.30
9.51
9.75
9.95
10.08
10.14
10.23
10.42
10.66
10.78
10.57
9.98
9.15
8.42
8.11
8.33
8.88
9.24
8.83
7.27
4.58
1.13
-2.42
-5.45
-7.52
-8.61
-8.99
-9.27
-10.04
-11.79
-14.71
-18.56
-22.80
-26.63
-29.21
-29.89
-28.33
-24.69
-19.46
-13.42
-7.42
-2.22
1.61
3.65
3.77
2.13
-0.78
-4.17
-7.06
-8.50
-7.92
-5.28
-1.15
3.54
7.81
10.98
12.78
13.35
13.09
12.51
12.11
12.30
13.29
14.97
16.86
18.18
18.13
16.23
12.57
7.86
3.10
-0.76
-3.20
-4.29
-4.56
-4.67
-5.07
-5.83
-6.67
-7.17
-7.05
-6.33
-5.43
-4.96
-5.46
-7.15
-9.69
-12.33
-14.24
-14.86
-14.14
-12.52
-10.64
-9.01
-7.80
-6.81
-5.78
-4.63
-3.57
-2.91
-2.80
-2.98
-2.89
-1.83
0.61
4.38
9.03
13.86
18.28
21.88
24.43
25.74
25.59
23.82
20.53
16.32
12.15
9.04
7.65
7.97
9.35
10.83
11.54
11.04
9.40
6.97
4.16
1.22
-1.71
-4.56
-7.24
-9.67
-11.80
-13.67
-15.39
-17.06
-18.77
-20.59
-22.51
-24.54
-26.56
-28.37
-29.66
-30.12
-29.56
-27.97
-25.60
-22.77
-19.79
-16.79
-13.67
-10.22
-6.25
-1.78
2.91
7.33
10.96
13.50
15.05
16.01
16.94
18.23
19.96
21.82
23.31
23.97
23.61
22.34
20.52
18.56
16.77
15.25
13.96
12.86
11.90
11.13
10.57
10.21
9.98
9.75
9.36
8.68
7.62
6.10
4.07
1.53
-1.49
-4.89
-8.43
-11.93
-15.21
-18.19
-20.86
-23.19
-25.11
-26.49
-27.18
-27.02
-25.99
-24.13
-21.53
-18.32
-14.64
-10.66
-6.59
-2.65
0.99
4.25
7.22
9.93
12.43
14.65
16.48
17.85
18.77
19.39
19.88
20.37
20.91
21.37
21.56
21.29
20.50
19.29
17.95
16.82
16.15
15.95
16.02
16.01
15.63
14.82
13.72
12.67
11.88
11.34
10.80
9.87
8.30
6.08
3.45
0.79
-1.63
-3.77
-5.79
-7.95
-10.40
-13.03
-15.62
-17.91
-19.80
-21.31
-22.51
-23.42
-23.92
-23.81
-22.99
-21.55
-19.72
-17.72
-15.62
-13.26
-10.33
-6.61
-2.15
2.67
7.26
11.09
13.85
15.60
16.67
17.43
18.18
19.00
19.77
20.28
20.33
19.84
18.84
17.53
16.13
14.88
13.81
12.86
11.87
10.72
9.42
8.13
7.07
6.43
6.26
6.44
6.73
6.86
6.59
5.82
4.55
2.92
1.15
-0.53
-1.95
-3.15
-4.29
-5.62
-7.38
-9.63
-12.33
-15.33
-18.40
-21.32
-23.88
-25.94
-27.51
-28.68
-29.60
-30.37
-30.91
-31.03
-30.51
-29.34
-27.77
-26.38
-25.77
-26.31
-27.93
-30.22
-32.65
-34.97
-37.39
-40.56
-45.26
-51.92
-60.30
-69.48
-78.16
-85.29
-90.51
-94.42
-98.32
-103.60
-111.09
-120.52
-130.61
-139.61
-146.00
-149.11
-149.06
-146.30
-140.71
-131.22
-116.00
-93.50
-63.43
-27.11
13.32
56.31
101.92
150.94
202.94
254.39
298.87
329.85
344.50
346.01
342.27
341.44
346.74
354.27
355.30
341.62
310.66
266.95
219.23
175.05
136.99
102.39
67.10
29.69
-6.84
-37.19
-57.09
-66.20
-68.09
-67.24
-65.71
-60.49
-45.08
-13.77
33.27
88.07
136.75
164.13
160.30
124.60
67.54
7.34
-36.66
-52.21
-38.63
-6.11
28.87
51.30
52.09
30.90
-5.56
-47.46
-86.17
-115.64
-131.64
-131.34
-112.58
-82.24
-53.17
-38.58
-42.96
-62.37
-90.23
-117.68
-143.86
-166.19
-181.17
-184.77
-174.35
-149.24
-113.78
-76.39
-45.77
-28.16
-23.85
-28.98
-36.68
-40.36
-35.66
-22.36
-4.85
11.15
21.53
26.42
28.30
31.21
37.86
49.93
67.51
87.73
107.54
125.39
142.00
157.29
169.52
173.21
162.84
134.90
86.91
19.70
-62.02
-149.56
-234.14
-308.72
-371.25
-421.14
-441.19
-419.00
-359.34
-284.70
-217.82
-177.64
-157.82
-148.60
-139.31
-120.88
-86.62
-38.01
16.35
68.19
111.95
144.87
164.49
171.19
167.76
158.49
148.09
139.22
136.99
146.53
168.77
198.39
228.42
241.45
227.29
207.10
192.09
181.36
176.88
179.24
185.70
192.09
193.61
187.19
170.39
138.88
92.67
36.39
-24.00
-82.86
-134.85
-175.77
-202.07
-213.29
-215.02
-213.56
-213.81
-219.30
-230.93
-246.16
-259.85
-265.34
-258.03
-239.03
-212.20
-182.15
-152.96
-126.05
-99.70
-70.36
-34.61
7.98
53.16
94.30
124.96
140.89
141.63
130.69
114.29
99.42
91.33
91.66
98.75
108.73
117.17
121.03
119.64
114.03
105.40
93.80
78.26
58.18
35.03
13.04
-1.73
-3.80
9.12
34.63
66.18
95.52
115.67
123.12
118.46
105.81
91.05
79.34
72.95
70.33
67.01
57.67
38.69
9.19
-27.98
-67.18
-102.23
-128.71
-144.97
-151.53
-150.14
-143.04
-134.05
-126.82
-123.16
-122.42
-122.21
-119.46
-111.62
-98.04
-80.60
-64.74
-54.79
-50.26
-46.02
-36.12
-17.96
6.21
30.04
45.45
42.99
17.16
-30.61
-93.26
-161.58
-227.13
-282.71
-322.62
-326.06
-283.37
-208.21
-129.14
-68.22
-31.37
-13.99
-8.31
-8.08
-10.06
-14.37
-21.51
-29.69
-35.15
-34.16
-25.63
-10.68
8.55
30.26
54.51
82.41
116.41
153.42
189.82
220.69
241.93
252.35
254.62
256.83
266.69
288.42
320.99
360.07
399.34
433.15
458.11
450.41
400.96
319.02
225.72
139.29
69.35
18.14
-15.59
-35.68
-48.57
-59.31
-74.09
-98.28
-134.01
-176.94
-220.03
-255.94
-280.18
-292.79
-294.65
-288.83
-279.32
-270.14
-262.94
-257.58
-253.10
-248.76
-244.23
-237.60
-227.71
-210.92
-188.14
-161.74
-134.36
-108.19
-84.91
-65.55
-49.39
-34.86
-19.86
-2.91
17.15
40.28
64.71
87.32
104.65
114.84
118.60
119.33
121.58
130.29
149.27
180.34
222.58
271.98
321.23
361.29
383.96
384.33
362.52
323.32
274.21
222.51
172.94
126.44
81.58
36.91
-7.51
-50.28
-89.75
-125.04
-155.61
-177.91
-188.73
-188.12
-179.05
-164.36
-145.81
-124.54
-102.09
-81.03
-64.92
-57.69
-60.89
-72.56
-86.38
-93.94
-87.98
-65.16
-27.04
20.69
70.03
113.73
143.65
154.14
142.15
107.48
53.59
-11.67
-76.64
-128.78
-158.46
-162.45
-144.42
-113.55
-80.67
-54.25
-37.99
-31.22
-31.12
-34.95
-41.03
-47.98
-54.19
-57.66
-56.55
-50.27
-40.02
-28.37
-17.98
-10.50
-5.79
-2.55
0.75
5.41
12.29
22.00
34.83
50.36
66.99
82.08
92.48
95.72
91.06
79.82
64.95
49.75
36.77
27.29
21.53
19.33
20.60
25.14
32.21
40.09
46.32
48.67
46.32
40.48
33.85
29.28
28.29
30.29
33.15
34.62
33.66
30.83
27.38
23.97
19.75
12.64
0.26
-18.61
-43.21
-70.84
-97.56
-119.60
-134.23
-140.14
-137.32
-126.95
-111.13
-92.62
-74.27
-58.37
-46.35
-38.67
-34.76
-33.49
-33.95
-36.00
-40.16
-47.10
-56.66
-68.10
-79.96
-89.66
-93.80
-89.52
-75.72
-53.76
-27.00
1.24
28.11
52.25
74.92
99.65
129.99
166.95
207.86
246.48
275.51
286.66
272.51
230.18
163.19
80.25
-8.02
-92.02
-165.37
-218.29
-240.80
-231.51
-200.10
-161.03
-126.05
-101.05
-85.89
-75.81
-62.38
-37.49
0.92
49.17
100.16
146.25
181.96
206.00
208.82
191.72
162.00
127.62
94.84
67.89
48.95
37.40
29.49
19.32
1.90
-24.79
-59.36
-96.05
-126.80
-145.15
-149.58
-138.29
-118.73
-99.79
-87.44
-82.50
-80.88
-76.55
-64.94
-44.99
-18.96
7.27
28.61
42.55
48.30
47.06
42.02
37.35
36.79
42.70
53.76
66.71
76.77
78.41
67.51
43.21
8.93
-30.06
-63.44
-81.25
-77.39
-52.85
-16.68
16.77
33.12
23.63
-11.50
-63.20
-118.12
-163.28
-189.32
-192.47
-173.73
-136.52
-84.60
-21.84
46.66
112.79
165.81
196.04
197.59
170.74
123.06
68.04
20.83
-6.88
-11.22
2.65
25.13
45.50
55.64
52.97
40.89
26.48
16.72
15.16
20.88
32.49
48.58
68.06
85.57
94.59
92.93
85.69
86.27
94.42
105.91
115.95
117.12
105.85
83.10
54.64
28.69
11.88
5.57
7.67
12.86
15.18
11.85
4.28
-2.33
-2.86
4.07
14.24
22.03
22.46
13.15
-4.76
-28.43
-53.31
-75.17
-92.08
-105.06
-115.35
-123.64
-129.69
-132.37
-131.94
-127.79
-119.21
-107.19
-95.10
-86.83
-85.61
-93.40
-110.71
-138.14
-172.13
-205.12
-228.38
-235.27
-222.67
-191.64
-147.38
-85.21
-15.26
44.77
83.63
103.11
111.89
117.75
124.23
131.41
136.13
133.04
119.94
98.65
73.09
47.21
23.86
5.57
-5.49
-8.91
-7.14
-1.73
7.41
20.58
36.69
53.25
67.37
76.84
80.81
79.36
74.71
70.19
68.11
68.50
69.54
69.01
65.32
58.01
47.49
35.42
24.01
14.85
8.35
3.88
0.53
-2.46
-5.52
-8.71
-11.72
-14.00
-15.23
-15.47
-15.02
-14.12
-12.86
-11.13
-8.70
-5.49
-1.70
1.96
4.42
4.58
1.75
-3.91
-11.31
-18.60
-23.82
-25.41
-22.78
-16.33
-7.18
3.34
14.14
24.61
34.53
43.84
52.32
59.50
64.70
67.24
66.74
63.19
57.00
48.86
39.56
29.84
20.24
11.15
2.84
-4.46
-10.48
-15.00
-17.90
-19.36
-19.88
-20.21
-21.04
-22.82
-25.52
-28.72
-31.79
-34.25
-35.89
-36.86
-37.55
-38.31
-39.39
-40.89
-42.77
-44.93
-47.27
-49.61
-51.72
-53.26
-53.84
-53.19
-51.19
-47.96
-43.78
-38.96
-33.73
-28.15
-22.25
-16.04
-9.69
-3.45
2.39
7.62
12.15
15.99
19.14
21.55
23.11
23.77
23.65
23.06
22.41
22.00
21.92
21.93
21.63
20.67
18.91
16.53
13.95
11.59
9.69
8.21
6.91
5.48
3.74
1.66
-0.61
-2.90
-5.10
-7.16
-9.11
-10.89
-12.43
-13.62
-14.52
-15.38
-16.60
-18.53
-21.27
-24.55
-27.74
-30.10
-31.02
-30.24
-27.84
-24.22
-19.92
-15.44
-11.15
-7.27
-3.90
-1.00
1.50
3.71
5.67
7.34
8.61
9.32
9.37
8.73
7.52
5.87
3.96
1.94
0.01
-1.59
-2.56
-2.66
-1.85
-0.39
1.15
2.05
1.77
0.17
-2.42
-5.36
-8.00
-9.96
-11.19
-11.85
-12.10
-11.89
-10.99
-9.16
-6.34
-2.80
0.89
4.09
6.27
7.14
6.67
5.05
2.57
-0.44
-3.68
-6.87
-9.81
-12.32
-14.33
-15.92
-17.19
-18.27
-19.24
-19.98
-20.24
-19.67
-17.99
-15.20
-11.72
-8.31
-5.91
-5.31
-6.91
-10.63
-15.95
-22.18
-28.58
-34.56
-39.71
-43.77
-46.59
-48.16
-48.66
-48.37
-47.72
-46.98
-46.29
-45.41
-43.82
-40.77
-35.53
-27.64
-17.14
-4.59
9.04
22.60
35.12
45.98
55.02
62.35
68.10
72.13
73.90
72.70
67.95
59.68
48.78
37.04
26.69
19.87
17.83
20.59
26.93
34.75
41.88
46.63
48.27
47.03
43.83
39.73
35.58
31.77
28.21
24.50
20.09
14.48
7.34
-1.36
-11.26
-21.62
-31.33
-39.20
-44.12
-45.49
-43.32
-38.26
-31.29
-23.39
-15.27
-7.36
-0.03
6.10
10.06
10.87
8.02
2.00
-5.55
-12.26
-15.89
-15.12
-10.13
-2.35
6.09
13.28
18.12
20.59
21.44
21.66
21.91
22.19
21.91
20.29
16.78
11.45
4.98
-1.57
-7.14
-11.07
-13.17
-13.78
-13.39
-12.52
-11.53
-10.58
-9.72
-8.93
-8.21
-7.62
-7.23
-7.09
-7.19
-7.51
-7.97
-8.51
-9.08
-9.65
-10.14
-10.44
-10.33
-9.55
-7.80
-4.87
-0.66
4.67
10.78
17.07
22.88
27.54
30.58
31.79
31.27
29.26
26.11
22.08
17.34
11.99
6.18
0.11
-5.86
-11.38
-16.15
-19.98
-22.85
-24.83
-26.09
-26.84
-27.26
-27.50
-27.62
-27.61
-27.33
-26.68
-25.60
-24.14
-22.41
-20.57
-18.71
-16.81
-14.81
-12.62
-10.19
-7.57
-4.91
-2.41
-0.31
1.26
2.28
2.85
3.14
3.26
3.22
2.99
2.53
1.94
1.45
1.29
1.67
2.54
3.64
4.62
5.15
5.11
4.57
3.76
2.90
2.11
1.36
0.54
-0.43
-1.59
-2.88
-4.19
-5.47
-6.72
-8.10
-9.76
-11.89
-14.57
-17.79
-21.47
-25.47
-29.61
-33.66
-37.33
-40.28
-42.18
