1.593701029000000000e+09
-2.999999999999999889e-02
5.059999999999999609e+00
1.791000000000000014e+01
7.934000000000000341e+01
2.282500000000000000e+02
-4.865000000000000000e+02
-5.900000000000000355e+00
1.561500000000000057e+02
4.584000000000000341e+01
2.399999999999999911e+00
-4.959999999999999964e+00
-1.971000000000000085e+01
1.370800000000000125e+02
9.050000000000000711e+00
-3.574000000000000199e+01
-5.078999999999999915e+01
3.663000000000000256e+01
2.810000000000000053e+00
4.800000000000000000e+01
7.434000000000000341e+01
-5.446999999999999886e+01
1.533000000000000007e+01
-2.044999999999999929e+01
1.810000000000000053e+00
-8.254999999999999716e+01
1.080900000000000034e+02
-1.383000000000000007e+01
-3.771999999999999886e+01
-2.082000000000000028e+01
8.529999999999999361e+00
1.995200000000000102e+02
1.323000000000000043e+01
-3.628700000000000045e+02
1.442700000000000102e+02
-4.585000000000000142e+01
2.192199999999999989e+02
-8.315000000000000568e+01
7.970999999999999375e+01
-1.302400000000000091e+02
2.771000000000000085e+01
-7.173000000000000398e+01
-7.129000000000000625e+01
2.275699999999999932e+02
-1.805000000000000071e+01
-1.334699999999999989e+02
1.271899999999999977e+02
1.048499999999999943e+02
-1.483700000000000045e+02
-2.270500000000000114e+02
-5.474000000000000199e+01
2.622200000000000273e+02
-4.400999999999999801e+01
4.899999999999999911e-01
2.600899999999999750e+02
-6.564000000000000057e+01
-1.037199999999999989e+02
-1.126299999999999955e+02
-1.334199999999999875e+02
7.492000000000000171e+01
-2.003000000000000114e+01
-2.864000000000000057e+01
-4.178000000000000114e+01
1.722100000000000080e+02
1.153199999999999932e+02
1.394999999999999929e+01
-5.182000000000000028e+01
-1.947100000000000080e+02
-1.327899999999999920e+02
1.976999999999999957e+01
9.240999999999999659e+01
3.120000000000000107e+00
6.190000000000000391e+00
3.290000000000000036e+00
-6.260999999999999943e+01
-1.037099999999999937e+02
-1.452400000000000091e+02
9.584000000000000341e+01
3.723700000000000045e+02
7.500000000000000000e+00
3.878700000000000045e+02
-2.991000000000000014e+01
-1.244300000000000068e+02
-2.025999999999999943e+02
-2.585000000000000142e+01
-3.033999999999999986e+01
9.080000000000000071e+00
3.490000000000000213e+00
2.251000000000000156e+01
-3.579200000000000159e+02
1.566699999999999875e+02
1.451100000000000136e+02
5.643999999999999773e+01
3.514000000000000057e+01
1.190300000000000011e+02
-6.453000000000000114e+01
-5.000999999999999801e+01
7.379999999999999716e+01
3.270000000000000284e+01
-5.196000000000000085e+01
2.757000000000000028e+01
-1.240999999999999943e+02
-4.879999999999999893e+00
-4.527000000000000313e+01
3.925999999999999801e+01
-1.091500000000000057e+02
8.420000000000000284e+01
2.444900000000000091e+02
-1.733799999999999955e+02
-9.362999999999999545e+01
-2.434399999999999977e+02
7.365000000000000568e+01
5.332000000000000028e+01
-1.210999999999999943e+01
-7.084999999999999432e+01
1.689199999999999875e+02
-9.681999999999999318e+01
-7.087000000000000455e+01
2.798000000000000043e+01
-1.853999999999999915e+01
-7.049999999999999822e+00
2.892000000000000171e+01
-1.808999999999999986e+01
-3.171000000000000085e+01
-6.590000000000000568e+01
-1.358499999999999943e+02
5.813000000000000256e+01
1.463499999999999943e+02
1.696999999999999886e+01
-5.167999999999999972e+01
-3.121000000000000085e+01
8.854999999999999716e+01
7.098000000000000398e+01
4.436999999999999744e+01
-1.119800000000000040e+02
-1.241899999999999977e+02
3.169999999999999929e+00
6.139000000000000057e+01
-4.490999999999999659e+01
3.713000000000000256e+01
7.631999999999999318e+01
1.707999999999999829e+01
2.794000000000000128e+01
-2.293400000000000034e+02
-1.274800000000000040e+02
2.205200000000000102e+02
-3.367000000000000171e+01
-3.640000000000000124e+00
5.686999999999999744e+01
1.921999999999999886e+01
-1.949999999999999956e+00
-3.740000000000000213e+00
-2.640000000000000124e+00
-1.939999999999999947e+00
-7.690000000000000391e+00
-1.438000000000000078e+01
1.331000000000000050e+01
7.209999999999999964e+00
-1.059999999999999964e+01
2.479999999999999982e+00
5.450000000000000178e+00
-8.289999999999999147e+00
-1.078999999999999915e+01
6.780000000000000249e+00
3.770000000000000018e+00
-1.134999999999999964e+01
1.270000000000000018e+00
8.990000000000000213e+00
-2.600000000000000089e+00
-2.620000000000000107e+00
8.890000000000000568e+00
-3.279999999999999805e+00
-1.311999999999999922e+01
1.134999999999999964e+01
6.150000000000000355e+00
-2.950000000000000178e+00
1.600000000000000089e+00
-1.989999999999999991e+00
-3.979999999999999982e+00
2.999999999999999889e-02
7.389999999999999680e+00
1.149999999999999911e+00
-1.533999999999999986e+01
6.899999999999999467e-01
8.269999999999999574e+00
2.735999999999999943e+01
1.158900000000000006e+02
7.598999999999999488e+01
-1.357100000000000080e+02
-3.231299999999999955e+02
2.452599999999999909e+02
2.353000000000000114e+01
4.929999999999999716e+00
1.198000000000000043e+01
3.740000000000000213e+00
-2.048000000000000043e+01
4.650000000000000355e+00
-3.900000000000000133e-01
-4.410000000000000142e+00
9.820000000000000284e+00
5.849999999999999645e+00
-2.049999999999999822e+00
3.499999999999999778e-01
7.530000000000000249e+00
-8.599999999999999867e-01
-7.110000000000000320e+00
7.900000000000000355e+00
2.149999999999999911e+00
-1.091000000000000014e+01
9.099999999999999645e+00
8.039999999999999147e+00
-5.400000000000000355e+00
-6.700000000000000400e-01
7.190000000000000391e+00
-2.600000000000000089e-01
-9.349999999999999645e+00
5.209999999999999964e+00
1.689999999999999947e+00
-1.009999999999999964e+01
4.780000000000000249e+00
6.839999999999999858e+00
-4.139999999999999680e+00
-9.439999999999999503e+00
1.132000000000000028e+01
1.914000000000000057e+01
1.682999999999999829e+01
-2.650000000000000000e+01
-2.592999999999999972e+01
-4.429999999999999716e+01
4.375000000000000000e+01
3.888000000000000256e+01
7.731999999999999318e+01
-9.154000000000000625e+01
3.813000000000000256e+01
-9.701000000000000512e+01
8.900000000000000133e-01
-2.500000000000000000e-01
-3.187999999999999901e+01
6.559999999999999609e+00
5.996000000000000085e+01
-3.182000000000000028e+01
-2.069999999999999840e+00
9.281000000000000227e+01
1.830000000000000071e+01
-2.317800000000000011e+02
1.225699999999999932e+02
4.039999999999999858e+01
-2.870000000000000107e+00
-5.192999999999999972e+01
-8.470999999999999375e+01
-8.037000000000000455e+01
-2.012999999999999901e+01
-5.752000000000000313e+01
5.710000000000000142e+01
-2.516000000000000014e+01
-5.482000000000000028e+01
4.580000000000000071e+00
2.367000000000000171e+01
-9.310000000000000497e+00
2.629999999999999893e+00
3.040000000000000036e+00
-3.688000000000000256e+01
-4.938000000000000256e+01
-3.300999999999999801e+01
3.013799999999999955e+02
-3.361999999999999744e+01
-3.659000000000000341e+01
8.989000000000000057e+01
-1.466999999999999993e+01
8.550000000000000711e+00
-4.807999999999999829e+01
-4.122999999999999687e+01
1.725000000000000000e+01
7.021999999999999886e+01
-3.114000000000000057e+01
3.080000000000000071e+00
3.734000000000000341e+01
-2.020000000000000018e+00
-4.164999999999999858e+01
1.361999999999999922e+01
-1.612999999999999901e+01
-5.275999999999999801e+01
-3.884000000000000341e+01
6.136999999999999744e+01
-2.719999999999999929e+01
-8.570000000000000284e+00
4.099999999999999645e+00
6.500000000000000222e-01
-2.042000000000000171e+01
9.789999999999999147e+00
2.129999999999999893e+00
-1.068999999999999950e+01
6.280000000000000249e+00
5.059999999999999609e+00
-5.629999999999999893e+00
-2.629999999999999893e+00
1.194999999999999929e+01
-1.399999999999999911e+00
-1.186999999999999922e+01
1.513000000000000078e+01
3.997999999999999687e+01
6.142000000000000171e+01
-5.388000000000000256e+01
-3.467999999999999972e+01
1.271500000000000057e+02
-3.101000000000000156e+01
4.557999999999999829e+01
-6.074000000000000199e+01
1.089399999999999977e+02
-2.573399999999999750e+02
7.434999999999999432e+01
7.004000000000000625e+01
6.485999999999999943e+01
-5.209999999999999964e+00
-1.093999999999999950e+01
-1.639999999999999902e+00
9.006000000000000227e+01
-1.349499999999999886e+02
1.305000000000000071e+01
4.782000000000000028e+01
1.889999999999999902e+00
-5.696000000000000085e+01
2.769999999999999929e+01
-4.765999999999999659e+01
1.652500000000000000e+02
-4.393999999999999773e+01
7.681999999999999318e+01
3.640000000000000124e+00
-7.606000000000000227e+01
-3.019399999999999977e+02
-2.925000000000000000e+01
8.812000000000000455e+01
-2.314000000000000057e+01
-4.309000000000000341e+01
-4.339999999999999858e+00
9.498999999999999488e+01
-2.430999999999999872e+01
-1.377999999999999936e+01
8.070000000000000284e+00
-9.349999999999999645e+00
6.349999999999999645e+00
1.056000000000000050e+01
-1.199000000000000021e+01
-6.500000000000000000e+00
1.590000000000000080e+00
3.410000000000000142e+00
-1.380000000000000071e+01
4.230000000000000426e+00
6.200000000000000178e+00
4.809999999999999609e+00
-6.799999999999999822e+00
2.080000000000000071e+00
3.129999999999999893e+00
-8.380000000000000782e+00
5.500000000000000000e+00
2.270000000000000018e+00
-4.679999999999999716e+00
-3.580000000000000071e+00
-6.320000000000000284e+00
-1.820000000000000062e+00
1.320000000000000062e+00
1.198000000000000043e+01
2.569999999999999840e+00
3.540000000000000036e+00
7.771999999999999886e+01
-1.397400000000000091e+02
8.650000000000000355e+00
2.965099999999999909e+02
1.321000000000000085e+01
-2.259300000000000068e+02
7.118000000000000682e+01
-2.198000000000000043e+01
-1.697700000000000102e+02
1.043999999999999950e+01
-2.457999999999999829e+01
-4.936999999999999744e+01
8.881000000000000227e+01
-2.523999999999999844e+01
-6.224000000000000199e+01
1.186599999999999966e+02
1.669600000000000080e+02
-7.176999999999999602e+01
4.757999999999999829e+01
4.857999999999999829e+01
1.539600000000000080e+02
-1.567700000000000102e+02
-2.593199999999999932e+02
3.131600000000000250e+02
3.522699999999999818e+02
-1.615600000000000023e+02
-1.105999999999999943e+02
5.250000000000000000e+00
9.179999999999999716e+00
-1.407000000000000028e+01
1.775000000000000000e+01
2.751999999999999957e+01
-1.233999999999999986e+01
-1.860000000000000098e+00
-4.157000000000000028e+01
9.000000000000000000e+00
-5.900999999999999801e+01
-4.234000000000000341e+01
2.436599999999999966e+02
-4.024000000000000199e+01
3.974000000000000199e+01
5.450000000000000000e+01
3.693899999999999864e+02
-1.937999999999999901e+01
-4.117200000000000273e+02
-9.170999999999999375e+01
3.378000000000000114e+01
-5.420000000000000284e+01
2.876999999999999957e+01
1.982000000000000028e+01
2.955000000000000071e+01
1.705999999999999872e+01
1.648000000000000043e+01
-3.099999999999999978e-01
-2.044999999999999929e+01
-6.467000000000000171e+01
2.521000000000000085e+01
4.485999999999999943e+01
3.910000000000000142e+00
-2.680000000000000160e+00
1.592999999999999972e+01
7.669999999999999929e+00
1.969000000000000128e+01
3.148999999999999844e+01
-1.408999999999999986e+01
-4.660000000000000142e+00
4.742000000000000171e+01
-5.150000000000000355e+00
-4.400999999999999801e+01
-2.970000000000000195e+00
1.101999999999999957e+01
-1.010999999999999943e+01
-1.493799999999999955e+02
1.223000000000000043e+01
1.486999999999999886e+02
4.067000000000000171e+01
-9.899999999999999911e-01
1.041000000000000014e+01
-5.829999999999999716e+01
1.756899999999999977e+02
-1.910999999999999943e+01
-5.695000000000000284e+01
-9.706000000000000227e+01
1.367500000000000000e+02
2.885000000000000142e+01
2.169999999999999929e+00
1.789000000000000057e+01
2.357000000000000028e+01
4.921000000000000085e+01
-9.662999999999999545e+01
3.128000000000000114e+01
-3.496999999999999886e+01
-9.289999999999999147e+00
1.136999999999999922e+01
6.219999999999999751e+00
-2.430000000000000071e+01
1.180000000000000071e+01
1.068999999999999950e+01
-6.650000000000000355e+00
-6.530000000000000249e+00
1.130000000000000071e+01
1.548000000000000043e+01
9.500000000000000000e+00
-3.171000000000000085e+01
2.635000000000000142e+01
-5.110000000000000142e+01
-2.778999999999999915e+01
-1.315000000000000036e+01
-3.703000000000000114e+01
2.557000000000000028e+01
3.717000000000000171e+01
3.602000000000000313e+01
7.179999999999999716e+00
-1.612999999999999901e+01
-5.139999999999999680e+00
-3.299999999999999822e+00
-6.629999999999999893e+00
5.860000000000000320e+00
3.772999999999999687e+01
5.774000000000000199e+01
-4.699000000000000199e+01
3.360999999999999943e+01
-1.024000000000000021e+01
4.696999999999999886e+01
2.230000000000000071e+01
-1.026800000000000068e+02
3.000000000000000000e+01
1.111999999999999922e+01
2.490000000000000213e+00
-3.120000000000000107e+00
-1.782999999999999829e+01
8.669999999999999929e+00
7.559999999999999609e+00
-4.519999999999999574e+00
2.229999999999999982e+00
6.549999999999999822e+00
4.699999999999999734e-01
-1.522000000000000064e+01
1.869999999999999929e+01
1.136999999999999922e+01
-5.450000000000000178e+00
-4.000000000000000083e-02
1.401999999999999957e+01
2.439999999999999947e+00
-5.500000000000000000e+00
1.125000000000000000e+01
6.440000000000000391e+00
-5.080000000000000071e+00
4.199999999999999845e-01
8.490000000000000213e+00
-1.479999999999999982e+00
-1.356000000000000050e+01
7.919999999999999929e+00
1.717000000000000171e+01
1.558999999999999986e+01
-8.589999999999999858e+00
-4.025000000000000000e+01
4.603999999999999915e+01
1.419499999999999886e+02
-2.507999999999999829e+01
-2.099900000000000091e+02
1.421100000000000136e+02
1.056099999999999994e+02
3.825000000000000000e+01
-7.970999999999999375e+01
-4.999000000000000199e+01
-4.722999999999999687e+01
1.891000000000000014e+01
-8.293000000000000682e+01
1.825000000000000000e+01
-5.653000000000000114e+01
-2.339999999999999858e+01
9.349999999999999645e+00
2.707000000000000028e+01
4.309999999999999609e+00
4.746000000000000085e+01
2.589999999999999858e+01
-3.596000000000000085e+01
1.510000000000000009e+00
2.846999999999999886e+01
1.284999999999999964e+01
-2.108999999999999986e+01
3.640000000000000124e+00
6.219999999999999751e+00
4.320000000000000284e+00
7.190000000000000391e+00
1.202999999999999936e+01
-8.449999999999999289e+00
-3.110999999999999943e+01
2.109999999999999876e+00
-2.279999999999999805e+00
-2.005999999999999872e+01
3.859999999999999876e+00
1.374000000000000021e+01
3.649999999999999911e+00
9.970000000000000639e+00
7.330000000000000071e+00
-2.971999999999999886e+01
-3.650000000000000000e+01
1.159999999999999964e+01
8.490000000000000213e+00
-1.074000000000000021e+01
-2.640000000000000124e+00
1.578999999999999915e+01
-2.301999999999999957e+01
-4.728999999999999915e+01
6.197999999999999687e+01
1.459999999999999964e+00
1.819000000000000128e+01
4.028999999999999915e+01
2.107999999999999829e+01
-1.485999999999999943e+01
-1.390000000000000036e+01
-1.224000000000000021e+01
-1.662999999999999901e+01
-2.810999999999999943e+01
-3.484000000000000341e+01
-1.201999999999999957e+01
4.882999999999999829e+01
7.598999999999999488e+01
5.139999999999999680e+00
-3.345000000000000284e+01
-2.219999999999999929e+01
-2.766000000000000014e+01
-1.057000000000000028e+01
-4.278999999999999915e+01
8.525000000000000000e+01
-4.064999999999999858e+01
-3.338000000000000256e+01
7.665999999999999659e+01
9.400000000000000355e+00
-5.078999999999999915e+01
-1.451999999999999957e+01
-2.973999999999999844e+01
-1.871999999999999886e+01
-2.791000000000000014e+01
1.133999999999999986e+01
2.685000000000000142e+01
-3.793999999999999773e+01
-5.622999999999999687e+01
-1.283700000000000045e+02
2.108499999999999943e+02
3.307999999999999829e+01
4.190000000000000391e+00
-3.020000000000000018e+00
-3.609999999999999876e+00
3.470000000000000195e+00
1.635999999999999943e+01
-2.962999999999999901e+01
6.750000000000000000e+00
-5.200000000000000178e-01
-2.287999999999999901e+01
2.117000000000000171e+01
3.477000000000000313e+01
7.490000000000000213e+00
-2.669999999999999929e+01
-2.214000000000000057e+01
-4.360000000000000320e+00
-2.246999999999999886e+01
-8.287000000000000455e+01
2.847900000000000205e+02
-1.349600000000000080e+02
-9.239000000000000057e+01
1.143799999999999955e+02
-1.915500000000000114e+02
-1.491100000000000136e+02
3.078399999999999750e+02
1.125799999999999983e+02
1.887000000000000099e+01
9.419999999999999929e+00
6.860000000000000320e+00
-2.573999999999999844e+01
-1.807000000000000028e+01
-2.460999999999999943e+01
-2.646000000000000085e+01
-1.539000000000000057e+01
1.075999999999999979e+01
-3.759999999999999787e+00
-7.099999999999999645e+00
-3.359999999999999876e+00
1.239999999999999991e+00
-8.410000000000000142e+00
-1.969999999999999973e+00
6.839999999999999858e+00
4.160000000000000142e+00
-1.240000000000000036e+01
1.621000000000000085e+01
-7.679999999999999716e+00
-1.541000000000000014e+01
1.186999999999999922e+01
5.580000000000000071e+00
-1.033000000000000007e+01
9.039999999999999147e+00
9.029999999999999361e+00
-8.650000000000000355e+00
9.599999999999999645e+00
1.100000000000000000e+01
-3.709999999999999964e+00
-7.299999999999999822e-01
6.629999999999999893e+00
-3.379999999999999893e+00
-1.118999999999999950e+01
9.320000000000000284e+00
4.349999999999999645e+00
-9.539999999999999147e+00
4.040000000000000036e+00
3.500000000000000000e+00
-1.492999999999999972e+01
-8.499999999999999778e-01
-7.469999999999999751e+00
-7.450000000000000178e+00
1.379999999999999893e+00
1.089000000000000057e+01
-5.980000000000000426e+00
-2.785999999999999943e+01
6.030000000000000249e+00
4.019999999999999574e+00
-1.426999999999999957e+01
1.978000000000000114e+01
1.400999999999999979e+01
-5.240000000000000213e+00
8.400000000000000355e+00
2.029999999999999805e+00
-1.557000000000000028e+01
-4.870000000000000107e+00
1.459999999999999964e+01
-3.900000000000000133e-01
-1.232000000000000028e+01
1.633999999999999986e+01
3.890000000000000124e+00
-1.914000000000000057e+01
1.066999999999999993e+01
1.896000000000000085e+01
-4.160000000000000142e+00
-5.059999999999999609e+00
6.330000000000000071e+00
-1.439999999999999947e+00
-1.417999999999999972e+01
1.748999999999999844e+01
1.151999999999999957e+01
-3.390000000000000124e+00
2.620000000000000107e+00
5.040000000000000036e+00
-6.269999999999999574e+00
-4.259999999999999787e+00
2.629999999999999893e+00
-7.769999999999999574e+00
-1.282000000000000028e+01
4.830000000000000071e+00
2.000000000000000111e-01
-1.696000000000000085e+01
5.450000000000000178e+00
-1.020000000000000018e+00
-1.276999999999999957e+01
6.009999999999999787e+00
1.270000000000000018e+00
-1.026999999999999957e+01
3.890000000000000124e+00
9.839999999999999858e+00
-1.340000000000000080e+00
-2.250000000000000000e+00
8.800000000000000711e+00
2.910000000000000142e+00
-1.065000000000000036e+01
7.440000000000000391e+00
2.069999999999999840e+00
-1.344999999999999929e+01
2.000000000000000000e+00
7.830000000000000071e+00
-2.080000000000000071e+00
-1.233000000000000007e+01
7.160000000000000142e+00
3.049999999999999822e+00
-1.076999999999999957e+01
8.140000000000000568e+00
7.250000000000000000e+00
-5.049999999999999822e+00
-1.109999999999999964e+01
8.429999999999999716e+00
5.709999999999999964e+00
-1.275999999999999979e+01
5.879999999999999893e+00
6.419999999999999929e+00
-5.809999999999999609e+00
-1.319999999999999929e+01
1.313000000000000078e+01
8.369999999999999218e+00
-9.949999999999999289e+00
-4.379999999999999893e+00
3.680000000000000160e+00
-4.830000000000000071e+00
-1.146000000000000085e+01
1.664999999999999858e+01
2.907000000000000028e+01
2.410000000000000142e+01
-7.531000000000000227e+01
1.325399999999999920e+02
-9.654999999999999716e+01
-7.967000000000000171e+01
4.821000000000000085e+01
7.837000000000000455e+01
-2.489000000000000057e+02
1.247099999999999937e+02
2.995500000000000114e+02
-2.653199999999999932e+02
1.503100000000000023e+02
4.692000000000000171e+01
2.101000000000000156e+01
-3.284100000000000250e+02
-2.052199999999999989e+02
4.341499999999999773e+02
4.299999999999999822e+00
2.035999999999999943e+01
-1.522599999999999909e+02
7.860999999999999943e+01
-1.103499999999999943e+02
-2.456599999999999966e+02
2.880999999999999872e+01
4.161999999999999886e+02
1.815099999999999909e+02
-4.393999999999999773e+01
-1.338799999999999955e+02
-1.411999999999999886e+02
-4.057000000000000028e+01
-6.621999999999999886e+01
-1.211099999999999994e+02
1.165499999999999972e+02
-5.604999999999999716e+01
6.530000000000000249e+00
1.111500000000000057e+02
2.292500000000000000e+02
-2.623100000000000023e+02
-1.936699999999999875e+02
-3.703000000000000114e+01
2.037000000000000099e+01
1.250999999999999979e+01
4.757999999999999829e+01
-5.650000000000000000e+01
2.480999999999999872e+01
2.776000000000000156e+01
-1.153999999999999915e+01
-1.484999999999999964e+01
4.367000000000000171e+01
-2.999999999999999889e-02
-7.839999999999999858e+00
3.240000000000000213e+00
-6.440000000000000391e+00
-1.465000000000000036e+01
1.699999999999999956e+00
-5.019999999999999574e+00
9.060000000000000497e+00
8.949999999999999289e+00
-9.880000000000000782e+00
1.107000000000000028e+01
7.059999999999999609e+00
-1.676999999999999957e+01
9.580000000000000071e+00
-1.125999999999999979e+01
-3.609999999999999876e+00
9.169999999999999929e+00
1.750000000000000000e+00
5.620000000000000107e+00
-4.463000000000000256e+01
2.600000000000000089e-01
2.862000000000000099e+01
-1.148000000000000043e+01
9.869999999999999218e+00
1.118999999999999950e+01
-8.529999999999999361e+00
-1.710999999999999943e+01
1.424000000000000021e+01
-5.200000000000000178e-01
-2.203999999999999915e+01
1.714999999999999858e+01
1.898999999999999844e+01
-6.899999999999999467e-01
-1.619999999999999929e+01
2.528000000000000114e+01
6.985999999999999943e+01
4.031999999999999886e+02
-1.675500000000000114e+02
-2.735000000000000142e+01
-8.820000000000000284e+01
4.679999999999999716e+00
-1.314900000000000091e+02
1.554600000000000080e+02
6.049000000000000199e+01
-2.307299999999999898e+02
2.272899999999999920e+02
7.385999999999999943e+01
1.675200000000000102e+02
-2.365300000000000011e+02
4.752000000000000313e+01
1.605300000000000011e+02
3.089999999999999858e+01
-5.350000000000000000e+01
1.109999999999999964e+01
-4.111999999999999744e+01
4.049999999999999822e+00
-1.148000000000000043e+01
-3.629999999999999893e+00
1.717100000000000080e+02
-1.749499999999999886e+02
-2.705400000000000205e+02
3.493199999999999932e+02
-1.003999999999999915e+01
-7.776999999999999602e+01
1.871000000000000085e+01
-2.505999999999999872e+01
5.318999999999999773e+01
1.798000000000000043e+01
4.829999999999999716e+01
1.102099999999999937e+02
-1.364199999999999875e+02
-1.045300000000000011e+02
-3.198999999999999844e+01
-8.879000000000000625e+01
1.331500000000000057e+02
2.503999999999999915e+01
-4.179999999999999716e+01
2.060000000000000142e+01
9.460000000000000853e+00
1.527999999999999936e+01
2.260000000000000142e+01
-6.164000000000000057e+01
1.985000000000000142e+01
5.064999999999999858e+01
-5.030000000000000249e+00
-1.842999999999999972e+01
9.779999999999999361e+00
-2.856700000000000159e+02
3.833100000000000023e+02
1.525200000000000102e+02
-1.526399999999999864e+02
6.815000000000000568e+01
7.332999999999999829e+01
-1.006599999999999966e+02
9.560999999999999943e+01
4.961999999999999744e+01
-5.192999999999999972e+01
6.165999999999999659e+01
1.349900000000000091e+02
-2.205699999999999932e+02
-2.810000000000000053e+00
-6.548000000000000398e+01
2.030699999999999932e+02
1.367199999999999989e+02
-1.960099999999999909e+02
6.998999999999999488e+01
1.377999999999999936e+01
-4.050099999999999909e+02
1.939799999999999898e+02
3.882000000000000028e+01
7.589999999999999858e+00
2.092000000000000171e+01
-4.547999999999999687e+01
-5.842999999999999972e+01
-2.196000000000000085e+01
-2.160000000000000142e+01
-5.071000000000000085e+01
5.300000000000000000e+01
-3.600000000000000000e+01
4.114000000000000057e+01
-7.299999999999999822e-01
-2.007400000000000091e+02
1.560200000000000102e+02
1.018999999999999950e+01
-4.292000000000000171e+01
1.136999999999999922e+01
4.532999999999999829e+01
1.034999999999999964e+01
-4.085999999999999943e+01
1.046000000000000085e+01
5.259999999999999787e+00
2.939999999999999947e+00
2.732999999999999829e+01
-2.779999999999999805e+00
-2.364999999999999858e+01
-3.296999999999999886e+01
-8.230000000000000426e+00
-1.592999999999999972e+01
7.612000000000000455e+01
2.801999999999999957e+01
2.351999999999999957e+01
2.778000000000000114e+01
-3.890999999999999659e+01
-3.167999999999999972e+01
8.320000000000000284e+00
1.689999999999999858e+01
2.026000000000000156e+01
-3.446999999999999886e+02
8.037999999999999545e+01
2.886600000000000250e+02
4.490000000000000213e+00
-5.739000000000000057e+01
-9.400000000000000355e+00
2.121999999999999886e+01
-4.750000000000000000e+00
-2.459999999999999964e+00
2.348000000000000043e+01
-4.730000000000000426e+00
-6.820000000000000284e+00
1.021000000000000085e+01
5.410000000000000142e+00
-2.020000000000000018e+00
-9.339999999999999858e+00
1.456000000000000050e+01
7.519999999999999574e+00
6.910000000000000142e+00
6.800000000000000488e-01
-8.919999999999999929e+00
8.869999999999999218e+00
5.500000000000000444e-01
-9.320000000000000284e+00
4.099999999999999756e-01
2.089999999999999858e+00
-1.090000000000000080e+00
2.200000000000000011e-01
1.879999999999999893e+00
-1.008999999999999986e+01
-1.894999999999999929e+01
6.719999999999999751e+00
4.290000000000000036e+00
-1.310000000000000053e+00
-9.599999999999999645e-01
-7.500000000000000000e-01
4.389999999999999680e+00
2.378000000000000114e+01
1.147000000000000064e+01
5.549999999999999822e+00
-3.259999999999999787e+00
-1.383999999999999986e+01
-2.119999999999999929e+01
-4.160000000000000142e+00
7.709999999999999964e+00
2.160999999999999943e+01
1.285999999999999943e+01
-1.109999999999999964e+01
-1.700000000000000122e-01
3.220000000000000195e+00
-2.720000000000000195e+00
-8.730000000000000426e+00
2.220000000000000195e+00
2.375000000000000000e+01
2.592000000000000171e+01
-3.960999999999999943e+01
1.365000000000000036e+01
1.042300000000000040e+02
3.967999999999999972e+01
-1.067800000000000011e+02
4.280000000000000249e+00
-1.030000000000000071e+01
1.612000000000000099e+01
-9.454999999999999716e+01
-3.892999999999999972e+01
1.138100000000000023e+02
-7.464000000000000057e+01
7.868999999999999773e+01
2.926000000000000156e+01
1.808999999999999986e+01
-5.219999999999999751e+00
-1.250000000000000000e+01
1.669999999999999929e+00
-4.740000000000000213e+00
-4.419999999999999929e+00
7.600000000000000089e-01
-3.890000000000000124e+00
-8.399999999999999689e-01
-7.000000000000000000e+00
5.589999999999999858e+00
-5.379999999999999893e+00
-5.190000000000000391e+00
2.178999999999999915e+01
9.031999999999999318e+01
-6.929000000000000625e+01
-2.825899999999999750e+02
1.830900000000000034e+02
6.253000000000000114e+01
1.160999999999999943e+01
6.309999999999999609e+00
1.799999999999999933e-01
8.410000000000000142e+00
5.620000000000000284e+01
-1.116200000000000045e+02
-2.530999999999999872e+01
5.782000000000000028e+01
-3.534000000000000341e+01
-7.718999999999999773e+01
1.407000000000000028e+01
9.685999999999999943e+01
-3.395000000000000284e+01
-4.029999999999999716e+01
9.006000000000000227e+01
-5.567999999999999972e+01
5.721000000000000085e+01
2.152100000000000080e+02
-3.864000000000000057e+01
-2.356800000000000068e+02
1.490000000000000000e+02
1.750000000000000000e+01
-1.292700000000000102e+02
1.575300000000000011e+02
8.053000000000000114e+01
-2.751000000000000156e+01
-7.712999999999999545e+01
-3.774000000000000199e+01
4.719999999999999751e+00
2.442999999999999972e+01
3.699000000000000199e+01
-1.648999999999999844e+01
8.119999999999999218e+00
-1.450000000000000000e+01
-1.989000000000000057e+01
6.800000000000000488e-01
3.410000000000000142e+00
-1.159999999999999920e+00
4.899999999999999911e-01
5.139999999999999680e+00
-1.429999999999999938e+00
-1.009999999999999964e+01
8.039999999999999147e+00
-2.850000000000000089e+00
-1.210999999999999943e+01
1.324000000000000021e+01
9.890000000000000568e+00
-2.800000000000000266e-01
-7.519999999999999574e+00
1.121000000000000085e+01
6.700000000000000400e-01
-1.694000000000000128e+01
7.719999999999999751e+00
8.589999999999999858e+00
-8.740000000000000213e+00
-9.799999999999999822e-01
7.070000000000000284e+00
-1.860000000000000098e+00
-8.759999999999999787e+00
9.949999999999999289e+00
7.269999999999999574e+00
-2.989000000000000057e+01
-5.280000000000000249e+00
1.623000000000000043e+01
-4.959999999999999964e+00
-2.910000000000000142e+00
1.632000000000000028e+01
-9.669999999999999929e+00
-2.276999999999999957e+01
2.182000000000000028e+01
9.750000000000000000e+00
-2.648999999999999844e+01
1.465000000000000036e+01
1.594999999999999929e+01
-3.770000000000000018e+00
-1.771999999999999886e+01
2.028000000000000114e+01
6.440000000000000391e+00
-1.533000000000000007e+01
-2.630999999999999872e+01
-1.035999999999999943e+02
5.631000000000000227e+01
2.669499999999999886e+02
-1.376999999999999957e+01
3.089999999999999858e+01
-1.661899999999999977e+02
1.115000000000000036e+01
1.349000000000000057e+02
-1.485999999999999943e+02
1.465300000000000011e+02
1.388799999999999955e+02
-2.653399999999999750e+02
1.306899999999999977e+02
1.303999999999999915e+01
5.767000000000000171e+01
-1.194599999999999937e+02
-9.326000000000000512e+01
-2.151000000000000156e+01
2.546200000000000045e+02
-1.558999999999999986e+01
-2.629399999999999977e+02
-1.985999999999999943e+01
3.212300000000000182e+02
-1.556100000000000136e+02
-8.798000000000000398e+01
-1.444199999999999875e+02
-1.798000000000000043e+01
6.495000000000000284e+01
2.828999999999999915e+01
-1.342299999999999898e+02
-5.665999999999999659e+01
2.078600000000000136e+02
-1.260499999999999972e+02
9.484000000000000341e+01
-8.743999999999999773e+01
5.375999999999999801e+01
-1.150000000000000000e+01
1.230600000000000023e+02
4.857999999999999829e+01
5.570000000000000284e+00
-7.517000000000000171e+01
-1.381399999999999864e+02
1.314099999999999966e+02
5.325000000000000000e+01
1.484999999999999964e+01
-5.490000000000000213e+00
2.460999999999999943e+01
-4.459999999999999964e+00
-3.831000000000000227e+01
-2.814999999999999858e+01
2.200000000000000000e+01
-2.899999999999999911e+00
-3.023999999999999844e+01
8.730000000000000426e+00
-5.360000000000000320e+00
5.049999999999999822e+00
-1.519999999999999929e+01
-4.836999999999999744e+01
6.235000000000000142e+01
4.663000000000000256e+01
-3.920000000000000284e+01
-1.225999999999999979e+01
1.144999999999999929e+01
-7.089999999999999858e+00
1.707000000000000028e+01
-1.998000000000000043e+01
-1.680999999999999872e+01
1.939999999999999947e+00
-1.590000000000000080e+00
-4.217999999999999972e+01
3.732000000000000028e+01
3.042999999999999972e+01
-2.807999999999999829e+01
-2.200000000000000000e+01
8.670000000000000284e+01
-2.533999999999999986e+01
-2.705999999999999872e+01
1.928000000000000114e+01
1.143999999999999950e+01
-1.719999999999999929e+01
1.138000000000000078e+01
1.150000000000000000e+01
-1.400000000000000000e+01
-2.125000000000000000e+01
8.109999999999999432e+00
1.161999999999999922e+01
-9.970000000000000639e+00
2.205999999999999872e+01
1.571000000000000085e+01
-2.999999999999999889e-02
2.569999999999999840e+00
1.188000000000000078e+01
-2.600000000000000089e-01
-1.500000000000000000e+01
5.639999999999999680e+00
-7.399999999999999911e-01
-1.958999999999999986e+01
1.682000000000000028e+01
1.909999999999999920e+00
-1.592999999999999972e+01
-5.360000000000000320e+00
2.053000000000000114e+01
-7.919999999999999929e+00
-1.910999999999999943e+01
2.323000000000000043e+01
-6.530000000000000249e+00
-2.346999999999999886e+01
1.157000000000000028e+01
1.916000000000000014e+01
-1.148000000000000043e+01
1.208999999999999986e+01
2.048999999999999844e+01
-4.360000000000000320e+00
-2.755000000000000071e+01
8.080000000000000071e+00
4.139999999999999680e+00
-1.438000000000000078e+01
1.097000000000000064e+01
-1.133999999999999986e+01
-5.495000000000000284e+01
-2.660000000000000142e+00
3.825000000000000000e+01
2.819999999999999840e+00
-8.873000000000000398e+01
-9.112999999999999545e+01
-1.394099999999999966e+02
1.840999999999999943e+02
1.621800000000000068e+02
-1.208000000000000007e+01
1.830999999999999872e+01
-3.053999999999999915e+01
-8.580000000000000071e+00
1.090000000000000080e+00
-4.910000000000000142e+00
-1.243999999999999950e+01
1.151999999999999957e+01
2.607000000000000028e+01
9.285999999999999943e+01
1.054300000000000068e+02
-1.030100000000000051e+02
-2.222899999999999920e+02
-2.764000000000000057e+01
1.851000000000000156e+01
-6.009999999999999787e+00
-1.557000000000000028e+01
-2.539999999999999858e+01
-1.709999999999999964e+00
9.045999999999999375e+01
7.257999999999999829e+01
-2.128999999999999915e+01
-2.700000000000000000e+01
2.212000000000000099e+01
-1.349000000000000021e+01
6.648999999999999488e+01
-4.136999999999999744e+01
7.084000000000000341e+01
-1.123499999999999943e+02
3.250400000000000205e+02
-2.589300000000000068e+02
-6.260000000000000142e+01
3.596000000000000085e+01
1.718000000000000114e+02
6.676000000000000512e+01
-4.863000000000000256e+01
9.373999999999999488e+01
5.382000000000000028e+01
1.404199999999999875e+02
-8.209999999999999432e+01
-9.395000000000000284e+01
-8.009000000000000341e+01
-7.729000000000000625e+01
5.240999999999999659e+01
4.590999999999999659e+01
2.758999999999999986e+01
5.236999999999999744e+01
-2.494999999999999929e+01
1.060499999999999972e+02
2.541000000000000014e+01
-1.204800000000000040e+02
-3.192999999999999972e+01
-3.210999999999999943e+01
7.018000000000000682e+01
-7.934999999999999432e+01
-1.379000000000000057e+02
1.021299999999999955e+02
4.731000000000000227e+01
4.670000000000000284e+01
1.644099999999999966e+02
-1.717299999999999898e+02
-5.097999999999999687e+01
-6.975000000000000000e+01
5.781000000000000227e+01
8.023999999999999488e+01
1.910999999999999943e+01
-7.570000000000000284e+00
3.296000000000000085e+01
-4.175999999999999801e+01
-1.303999999999999915e+01
-1.068999999999999950e+01
-2.339999999999999858e+00
4.389999999999999680e+00
2.259999999999999787e+00
1.330000000000000071e+01
-3.756000000000000227e+01
1.152999999999999936e+01
2.123000000000000043e+01
-4.150000000000000355e+00
-1.151999999999999957e+01
1.350000000000000089e+00
-2.479999999999999982e+00
3.771000000000000085e+01
-2.748999999999999844e+01
-7.910000000000000142e+00
5.765999999999999659e+01
-2.507999999999999829e+01
-8.903000000000000114e+01
3.850999999999999801e+01
2.223000000000000043e+01
-7.309999999999999432e+01
-4.222999999999999687e+01
4.692999999999999972e+01
1.319999999999999929e+01
-3.148000000000000043e+01
2.586200000000000045e+02
2.843700000000000045e+02
-1.555800000000000125e+02
-1.179099999999999966e+02
-1.327599999999999909e+02
-4.284000000000000341e+01
-2.626999999999999957e+01
-1.318999999999999950e+01
3.900000000000000133e-01
-3.209999999999999964e+00
-3.430000000000000160e+00
1.036999999999999922e+01
8.689999999999999503e+00
-8.619999999999999218e+00
1.413000000000000078e+01
1.682000000000000028e+01
6.120000000000000107e+00
8.039999999999999147e+00
1.596000000000000085e+01
4.849999999999999645e+00
-1.150000000000000000e+01
2.344000000000000128e+01
-3.379999999999999893e+00
-6.354999999999999716e+01
-4.156000000000000227e+01
-3.421899999999999977e+02
4.459000000000000341e+01
7.553500000000000227e+02
9.040000000000000568e+01
-2.745400000000000205e+02
-1.748199999999999932e+02
-1.841000000000000014e+01
-2.230999999999999872e+01
-7.071999999999999886e+01
3.693999999999999773e+01
5.089000000000000057e+01
-8.509999999999999787e+00
1.044999999999999929e+01
5.349999999999999645e+00
-7.360000000000000320e+00
9.000000000000000000e+00
1.379999999999999893e+00
-2.544000000000000128e+01
-2.110000000000000142e+01
2.532000000000000028e+01
3.166000000000000014e+01
1.258000000000000007e+01
4.210999999999999943e+01
1.141999999999999993e+01
3.207000000000000028e+01
5.349999999999999645e+00
2.379999999999999893e+00
-1.510999999999999943e+01
-2.364000000000000057e+01
-2.312000000000000099e+01
-2.248999999999999844e+01
5.000000000000000000e+00
9.179999999999999716e+00
-2.146000000000000085e+01
3.089999999999999858e+00
6.600000000000000311e-01
-2.610999999999999943e+01
-4.580000000000000071e+00
1.510000000000000009e+00
-4.230000000000000426e+00
1.289000000000000057e+01
1.084999999999999964e+01
-1.316000000000000014e+01
1.191000000000000014e+01
2.550000000000000000e+01
-1.669000000000000128e+01
4.799999999999999822e+00
2.246000000000000085e+01
-6.169999999999999929e+00
-4.007000000000000028e+01
6.219999999999999751e+00
1.076999999999999957e+01
-7.280000000000000249e+00
5.879999999999999893e+00
6.549999999999999822e+00
-9.070000000000000284e+00
-2.180000000000000160e+00
7.339999999999999858e+00
0.000000000000000000e+00
-4.559999999999999609e+00
2.021000000000000085e+01
7.669999999999999929e+00
-2.107999999999999829e+01
-4.450000000000000178e+00
7.990000000000000213e+00
-1.919999999999999929e+00
-2.241000000000000014e+01
8.650000000000000355e+00
2.137999999999999901e+01
8.640000000000000568e+00
-5.759999999999999787e+00
2.660000000000000142e+00
-1.732000000000000028e+01
-3.126999999999999957e+01
-1.775000000000000000e+01
-1.855000000000000071e+01
1.522299999999999898e+02
-5.518999999999999773e+01
-5.409000000000000341e+01
5.360000000000000320e+00
1.386999999999999922e+01
2.848999999999999844e+01
6.654999999999999716e+01
8.953000000000000114e+01
-4.735999999999999943e+01
-2.682999999999999829e+01
-7.926000000000000512e+01
-1.495399999999999920e+02
2.279399999999999977e+02
-4.572999999999999687e+01
-5.814999999999999858e+01
-8.000000000000000167e-02
-1.664000000000000057e+01
4.540000000000000036e+00
1.433999999999999986e+01
2.192999999999999972e+01
3.279999999999999805e+00
-8.710000000000000853e+00
1.305000000000000071e+01
1.471000000000000085e+01
-1.240000000000000036e+01
-1.439999999999999947e+00
1.101999999999999957e+01
6.459999999999999964e+00
2.126999999999999957e+01
2.728999999999999915e+01
4.384000000000000341e+01
-5.104999999999999716e+01
-2.067999999999999972e+01
-1.247000000000000064e+01
-2.428000000000000114e+01
1.003999999999999915e+01
6.199999999999999956e-01
-1.116999999999999993e+01
-1.165000000000000036e+01
1.632000000000000028e+01
-3.839999999999999858e+00
-1.937999999999999901e+01
7.160000000000000142e+00
2.680000000000000071e+01
-9.970000000000000639e+00
-8.089999999999999858e+00
5.400000000000000355e-01
3.400000000000000244e-01
-1.475000000000000000e+01
2.216000000000000014e+01
-4.370000000000000107e+00
-1.593999999999999950e+01
-4.469999999999999751e+00
-4.150000000000000000e+01
1.171000000000000085e+01
4.321999999999999886e+01
3.675999999999999801e+01
9.899999999999999911e-01
-1.532000000000000028e+01
-5.500000000000000000e+00
8.689999999999999503e+00
7.169999999999999929e+00
-6.080000000000000071e+00
3.128999999999999915e+01
2.053000000000000114e+01
-2.428000000000000114e+01
-1.842000000000000171e+01
4.320000000000000284e+00
-3.600000000000000089e+00
-3.496000000000000085e+01
2.003000000000000114e+01
7.690000000000000391e+00
-1.152999999999999936e+01
-1.075999999999999979e+01
1.375000000000000000e+01
9.800000000000000711e+00
-1.082000000000000028e+01
1.055000000000000071e+01
5.280000000000000249e+00
-1.480000000000000071e+01
4.240000000000000213e+00
1.073000000000000043e+01
-1.121000000000000085e+01
-1.289000000000000057e+01
7.919999999999999929e+00
1.000000000000000000e+00
-1.619999999999999929e+01
1.103999999999999915e+01
7.150000000000000355e+00
-1.252999999999999936e+01
1.116000000000000014e+01
4.610000000000000320e+00
-1.143999999999999950e+01
4.370000000000000107e+00
1.216000000000000014e+01
-6.169999999999999929e+00
-9.310000000000000497e+00
2.192000000000000171e+01
3.064999999999999858e+01
4.178999999999999915e+01
-8.087999999999999545e+01
-3.821999999999999886e+01
-3.639000000000000057e+01
-7.331999999999999318e+01
1.010499999999999972e+02
5.321000000000000085e+01
3.365999999999999659e+01
-5.469999999999999751e+00
1.664999999999999858e+01
-1.639999999999999902e+00
-3.028999999999999915e+01
2.937000000000000099e+01
2.666000000000000014e+01
-3.173999999999999844e+01
1.612000000000000099e+01
2.571000000000000085e+01
-2.816000000000000014e+01
-3.164999999999999858e+01
-1.909999999999999920e+00
7.469999999999999751e+00
-7.099999999999999645e+00
5.549999999999999822e+00
1.177999999999999936e+01
-1.467999999999999972e+01
-2.380000000000000071e+01
8.630000000000000782e+00
-1.241999999999999993e+01
-7.030000000000000249e+00
4.514000000000000057e+01
6.751000000000000512e+01
3.041000000000000014e+01
-1.259000000000000057e+02
-3.580000000000000071e+00
7.519999999999999574e+00
-2.000000000000000000e+00
2.096000000000000085e+01
1.739999999999999858e+01
-8.169999999999999929e+00
1.646000000000000085e+01
3.112000000000000099e+01
-4.650999999999999801e+01
5.219999999999999751e+00
2.626000000000000156e+01
-1.679999999999999938e+00
-3.850000000000000089e+00
-5.969999999999999751e+00
-2.176999999999999957e+01
-1.049000000000000021e+01
7.700000000000000178e-01
2.879999999999999893e+00
-4.719999999999999751e+00
-6.019999999999999574e+00
4.709999999999999964e+00
2.149999999999999911e+00
-1.069999999999999929e+01
2.819999999999999840e+00
5.450000000000000178e+00
-1.024000000000000021e+01
1.939999999999999947e+00
8.779999999999999361e+00
-6.139999999999999680e+00
-4.389999999999999680e+00
4.610000000000000320e+00
-2.520000000000000018e+00
-1.519999999999999929e+01
7.379999999999999893e+00
2.180000000000000160e+00
-1.321000000000000085e+01
7.070000000000000284e+00
9.890000000000000568e+00
-3.899999999999999911e+00
-5.490000000000000213e+00
1.309999999999999964e+01
3.689999999999999947e+00
-1.405000000000000071e+01
6.669999999999999929e+00
9.580000000000000071e+00
-2.500000000000000000e+00
2.540000000000000036e+00
3.899999999999999911e+00
-8.519999999999999574e+00
-2.064999999999999858e+01
8.470000000000000639e+00
6.940000000000000391e+00
-1.450999999999999979e+01
1.190000000000000036e+01
4.559999999999999609e+00
-8.820000000000000284e+00
6.530000000000000249e+00
1.247000000000000064e+01
2.999999999999999889e-01
-8.519999999999999574e+00
7.139999999999999680e+00
3.729999999999999982e+00
-1.261999999999999922e+01
7.700000000000000178e+00
7.330000000000000071e+00
-5.549999999999999822e+00
2.149999999999999911e+00
9.199999999999999289e+00
-5.219999999999999751e+00
-1.486999999999999922e+01
8.330000000000000071e+00
3.640000000000000124e+00
-1.424000000000000021e+01
7.889999999999999680e+00
9.779999999999999361e+00
-8.990000000000000213e+00
-1.419999999999999929e+00
9.349999999999999645e+00
-3.120000000000000107e+00
-1.869999999999999929e+01
1.181000000000000050e+01
8.500000000000000000e+00
-1.350000000000000000e+01
5.370000000000000107e+00
1.317999999999999972e+01
-5.830000000000000071e+00
-1.605000000000000071e+01
1.093999999999999950e+01
-9.750000000000000000e+00
-5.129999999999999893e+00
1.296000000000000085e+01
1.369999999999999929e+01
-3.720000000000000195e+00
-6.629999999999999893e+00
1.173000000000000043e+01
3.250000000000000000e+00
-1.491000000000000014e+01
1.168999999999999950e+01
5.599999999999999645e+00
-1.222000000000000064e+01
4.750000000000000000e+00
7.599999999999999645e+00
-4.339999999999999858e+00
-7.280000000000000249e+00
1.298000000000000043e+01
-1.660999999999999943e+01
5.400000000000000355e-01
3.592999999999999972e+01
-5.700000000000000178e+00
-2.205000000000000071e+01
1.294999999999999929e+01
1.800000000000000044e+00
-6.120000000000000107e+00
-1.959999999999999964e+00
1.100999999999999979e+01
-1.899999999999999911e+00
3.629999999999999893e+00
-1.080000000000000071e+01
-1.199999999999999956e+00
1.402999999999999936e+01
9.029999999999999361e+00
-6.200000000000000178e+00
-2.069999999999999929e+01
-4.860000000000000320e+00
1.660000000000000142e+01
-3.446999999999999886e+01
5.303000000000000114e+01
1.215000000000000000e+02
-1.360699999999999932e+02
-4.738000000000000256e+01
-2.421000000000000085e+01
2.812000000000000099e+01
-2.259999999999999787e+00
-2.092000000000000171e+01
8.119999999999999218e+00
3.313000000000000256e+01
-2.967999999999999972e+01
-1.280000000000000071e+01
8.439999999999999503e+00
-2.589999999999999858e+00
3.250000000000000000e+00
1.926000000000000156e+01
-4.467000000000000171e+01
-6.199999999999999956e-01
1.876000000000000156e+01
4.049999999999999822e+00
-2.508999999999999986e+01
1.737000000000000099e+01
1.408999999999999986e+01
-7.950000000000000178e+00
2.149999999999999911e+00
2.080000000000000071e+01
-2.314000000000000057e+01
-8.630000000000000782e+00
4.629999999999999893e+00
-1.301999999999999957e+01
9.080000000000000071e+00
1.584999999999999964e+01
-6.440000000000000391e+00
-1.603000000000000114e+01
-2.403000000000000114e+01
7.000000000000000000e+00
-7.549999999999999822e+00
1.742999999999999972e+01
1.169999999999999929e+00
-4.620000000000000107e+00
2.073999999999999844e+01
4.469999999999999751e+00
-8.990000000000000213e+00
2.110999999999999943e+01
7.190000000000000391e+00
-1.296000000000000085e+01
4.849999999999999645e+00
3.700000000000000178e+00
-3.899999999999999911e+00
-1.741000000000000014e+01
1.276999999999999957e+01
1.008000000000000007e+01
-9.009999999999999787e+00
6.469999999999999751e+00
-6.200000000000000178e+00
-1.794000000000000128e+01
1.481000000000000050e+01
1.157000000000000028e+01
-1.141000000000000014e+01
-1.000000000000000000e+01
1.008999999999999986e+01
3.189999999999999947e+00
-1.039000000000000057e+01
1.394999999999999929e+01
1.321000000000000085e+01
5.610000000000000320e+00
-6.469999999999999751e+00
2.003000000000000114e+01
8.029999999999999361e+00
-3.890999999999999659e+01
1.550000000000000000e+01
-1.174000000000000021e+01
-5.314999999999999858e+01
-3.123000000000000043e+01
2.400000000000000000e+01
-1.233000000000000007e+01
-2.767999999999999972e+01
-6.220000000000000284e+01
-2.560199999999999818e+02
1.511899999999999977e+02
2.819399999999999977e+02
8.592000000000000171e+01
-9.882999999999999829e+01
-7.629999999999999893e+00
-2.748999999999999844e+01
-4.307999999999999829e+01
8.089999999999999858e+00
-4.879999999999999893e+00
-6.940000000000000391e+00
-5.832999999999999829e+01
-1.542800000000000011e+02
2.605899999999999750e+02
1.341500000000000057e+02
-8.018000000000000682e+01
-4.728000000000000114e+01
1.945699999999999932e+02
-6.375999999999999801e+01
-1.430900000000000034e+02
-4.719999999999999751e+00
3.235000000000000142e+01
2.403000000000000114e+01
4.140999999999999659e+01
-1.719999999999999929e+01
2.239000000000000057e+01
-2.632000000000000028e+01
1.448199999999999932e+02
-2.640000000000000124e+00
5.085000000000000142e+01
-1.791000000000000014e+01
1.586999999999999922e+01
5.950999999999999801e+01
-6.156000000000000227e+01
-1.263700000000000045e+02
-1.264000000000000057e+02
8.698000000000000398e+01
2.894000000000000128e+01
-5.102000000000000313e+01
3.671999999999999886e+01
1.817299999999999898e+02
1.569999999999999929e+01
-4.011999999999999886e+02
1.368700000000000045e+02
-1.099000000000000021e+01
-3.750000000000000000e+00
-1.923999999999999844e+01
-2.007000000000000028e+01
2.698000000000000043e+01
-1.299000000000000021e+01
4.103000000000000114e+01
-5.947999999999999687e+01
8.910000000000000142e+00
-2.901999999999999957e+01
3.012000000000000099e+01
-6.979999999999999716e+01
-9.943000000000000682e+01
2.952599999999999909e+02
-3.940999999999999659e+01
-2.348999999999999844e+01
-5.803999999999999915e+01
8.519999999999999574e+00
1.214000000000000057e+01
3.003999999999999915e+01
3.275999999999999801e+01
-9.328000000000000114e+01
4.578000000000000114e+01
-4.453999999999999915e+01
4.217999999999999972e+01
4.918999999999999773e+01
-2.446000000000000085e+01
-1.784699999999999989e+02
-2.005999999999999872e+01
4.082000000000000028e+01
2.312100000000000080e+02
9.482999999999999829e+01
4.572999999999999687e+01
1.380000000000000071e+01
-1.201999999999999957e+01
1.897299999999999898e+02
1.305900000000000034e+02
-1.024200000000000017e+02
-3.874000000000000199e+01
2.137000000000000099e+01
-2.714000000000000057e+01
2.289000000000000057e+01
-1.701999999999999957e+01
-1.296000000000000085e+01
-3.105999999999999872e+01
-2.115800000000000125e+02
9.032999999999999829e+01
8.481999999999999318e+01
2.357999999999999829e+01
3.319999999999999840e+00
4.424000000000000199e+01
1.160799999999999983e+02
-8.273999999999999488e+01
-9.800000000000000000e+01
-4.057999999999999829e+01
-5.042000000000000171e+01
1.282500000000000000e+02
-1.929999999999999938e+00
1.687999999999999901e+01
-2.101999999999999957e+01
3.198999999999999844e+01
2.364999999999999858e+01
-3.464999999999999858e+01
-1.368999999999999950e+01
-1.197000000000000064e+01
6.940000000000000391e+00
1.439999999999999947e+00
-1.973999999999999844e+01
-6.570000000000000284e+00
4.925000000000000000e+01
-5.531000000000000227e+01
5.396000000000000085e+01
5.579999999999999716e+01
-8.629999999999999716e+01
3.649999999999999911e+00
-6.429000000000000625e+01
1.754600000000000080e+02
-4.093999999999999773e+01
-9.495999999999999375e+01
8.210000000000000853e+00
1.449600000000000080e+02
-1.534099999999999966e+02
1.855099999999999909e+02
-8.607999999999999829e+01
-2.798000000000000043e+01
1.716599999999999966e+02
-8.657999999999999829e+01
-5.179999999999999716e+00
-3.206000000000000227e+01
-6.250999999999999801e+01
-1.333199999999999932e+02
5.428000000000000114e+01
2.627099999999999795e+02
-7.434999999999999432e+01
-8.214000000000000057e+01
-8.429000000000000625e+01
-1.757000000000000028e+01
6.804000000000000625e+01
6.045000000000000284e+01
-2.914000000000000057e+01
-4.665999999999999659e+01
-7.280000000000000249e+00
-2.049999999999999822e+00
-1.240000000000000036e+01
1.047000000000000064e+01
6.490000000000000213e+00
-1.322000000000000064e+01
-1.414000000000000057e+01
1.776000000000000156e+01
5.379999999999999893e+00
3.819999999999999840e+00
7.049999999999999822e+00
1.669999999999999929e+00
-1.608999999999999986e+01
5.990000000000000213e+00
1.353999999999999915e+01
-8.353000000000000114e+01
-5.335000000000000142e+01
-2.169999999999999929e+00
7.082999999999999829e+01
1.914799999999999898e+02
1.610999999999999943e+01
-6.328000000000000114e+01
-8.601999999999999602e+01
2.150800000000000125e+02
5.579999999999999716e+01
-2.126599999999999966e+02
-1.750000000000000000e+00
7.000000000000000000e+00
-9.849999999999999645e+00
-5.150000000000000355e+00
1.880000000000000071e+01
2.664999999999999858e+01
-5.070000000000000284e+00
-1.560000000000000053e+00
-1.585999999999999943e+01
-3.743999999999999773e+01
4.067999999999999972e+01
6.760999999999999943e+01
1.111999999999999922e+01
-6.820000000000000284e+00
-6.580000000000000071e+00
-2.998000000000000043e+01
-5.540000000000000036e+00
2.250000000000000000e+01
8.160000000000000142e+00
-1.766000000000000014e+01
1.047000000000000064e+01
-8.839999999999999858e+00
-2.755999999999999872e+01
-2.500000000000000000e+00
8.339999999999999858e+00
-2.264000000000000057e+01
-4.580000000000000071e+00
1.006000000000000050e+01
1.300000000000000044e+00
-1.550999999999999979e+01
-1.141000000000000014e+01
1.243999999999999950e+01
1.328999999999999915e+01
3.870000000000000107e+00
2.520000000000000018e+00
2.209999999999999964e+00
-1.571000000000000085e+01
4.620000000000000107e+00
-1.566000000000000014e+01
-1.302500000000000000e+02
2.632799999999999727e+02
2.321299999999999955e+02
-6.925000000000000000e+01
-1.024399999999999977e+02
-1.971999999999999886e+01
-2.196000000000000085e+01
-6.571999999999999886e+01
-5.610000000000000142e+01
5.734000000000000341e+01
-2.117999999999999972e+01
-1.725000000000000000e+01
-9.284999999999999432e+01
5.885999999999999943e+01
1.372000000000000064e+01
4.547999999999999687e+01
-6.615000000000000568e+01
2.392000000000000171e+01
3.053000000000000114e+01
5.267999999999999972e+01
-1.851999999999999957e+01
-2.277100000000000080e+02
1.908999999999999986e+01
1.874099999999999966e+02
-9.540000000000000568e+01
1.978600000000000136e+02
-3.585000000000000142e+01
-1.422400000000000091e+02
1.590000000000000080e+00
1.151999999999999957e+01
-1.703999999999999915e+01
8.759999999999999787e+00
7.389999999999999680e+00
-2.450000000000000178e+00
-1.239000000000000057e+01
2.069999999999999929e+01
4.036999999999999744e+01
-8.532999999999999829e+01
3.130000000000000071e+01
2.080000000000000071e+01
-3.740000000000000213e+00
-8.369999999999999218e+00
8.470000000000000639e+00
-4.490000000000000213e+00
-1.601000000000000156e+01
5.429999999999999716e+00
5.110000000000000320e+00
-2.353999999999999915e+01
3.660000000000000142e+00
8.039999999999999147e+00
1.530000000000000027e+00
-9.799999999999999822e-01
8.759999999999999787e+00
-9.320000000000000284e+00
-1.040000000000000036e+00
1.950000000000000000e+01
-4.629999999999999893e+00
-1.183000000000000007e+01
1.165000000000000036e+01
4.330000000000000071e+00
-1.767000000000000171e+01
7.709999999999999964e+00
7.299999999999999822e-01
-2.148999999999999844e+01
1.197000000000000064e+01
1.409999999999999920e+00
-2.998000000000000043e+01
-1.302999999999999936e+01
-4.665999999999999659e+01
1.256500000000000057e+02
1.157000000000000028e+01
1.671800000000000068e+02
-2.617900000000000205e+02
9.703000000000000114e+01
-1.380999999999999943e+02
2.197899999999999920e+02
-1.030000000000000071e+01
1.289000000000000057e+01
6.537000000000000455e+01
9.349999999999999645e+00
-3.032400000000000091e+02
2.063499999999999943e+02
2.576999999999999957e+01
-4.179900000000000091e+02
1.346000000000000085e+01
1.679600000000000080e+02
-2.359999999999999876e+00
5.435999999999999943e+01
2.537999999999999901e+01
-8.599999999999999867e-01
-6.959999999999999964e+00
7.080000000000000071e+00
4.969999999999999751e+00
-8.630000000000000782e+00
-2.375000000000000000e+01
-1.300999999999999979e+01
-3.810999999999999943e+01
2.939000000000000057e+01
2.021000000000000085e+01
-2.140000000000000124e+00
1.193999999999999950e+01
1.499000000000000021e+01
-9.109999999999999432e+00
-7.223999999999999488e+01
-8.667000000000000171e+01
8.292000000000000171e+01
2.294999999999999929e+01
-1.810000000000000142e+01
8.089999999999999858e+00
4.669999999999999929e+00
-8.070000000000000284e+00
2.285000000000000142e+01
5.902000000000000313e+01
5.396999999999999886e+01
-1.566200000000000045e+02
-3.378999999999999915e+01
-4.299999999999999933e-01
8.478000000000000114e+01
1.344999999999999929e+01
-1.912000000000000099e+01
-1.073700000000000045e+02
-2.746000000000000085e+01
9.820000000000000284e+01
-6.189000000000000057e+01
1.842999999999999972e+01
3.021000000000000085e+01
4.299999999999999933e-01
5.393999999999999773e+01
-4.154999999999999716e+01
1.725000000000000000e+01
-1.172999999999999972e+02
9.306999999999999318e+01
9.589999999999999858e+00
1.899999999999999911e+00
5.700000000000000178e+00
2.720000000000000195e+00
-3.678000000000000114e+01
-1.241999999999999993e+01
-2.029999999999999805e+00
3.875000000000000000e+01
-2.282000000000000028e+01
-2.117999999999999972e+01
1.483199999999999932e+02
5.243999999999999773e+01
-8.443000000000000682e+01
-1.442899999999999920e+02
-4.321000000000000085e+01
7.780000000000000249e+00
3.005999999999999872e+01
6.179999999999999716e+00
-7.460999999999999943e+01
-4.071999999999999886e+01
-1.037800000000000011e+02
1.617500000000000000e+02
1.021299999999999955e+02
-1.785999999999999943e+01
-5.381000000000000227e+01
-5.893999999999999773e+01
3.407000000000000028e+01
3.649999999999999911e+00
-1.707000000000000028e+01
-4.110000000000000320e+00
-9.929999999999999716e+00
-2.253999999999999915e+01
3.419999999999999929e+00
7.549999999999999822e+00
5.035999999999999943e+01
-9.815000000000000568e+01
1.176200000000000045e+02
-3.415999999999999659e+01
-1.089599999999999937e+02
6.232000000000000028e+01
2.055999999999999872e+01
-1.353999999999999915e+01
1.366999999999999993e+01
1.710000000000000142e+01
-4.139999999999999858e+01
-1.414000000000000057e+01
-6.796999999999999886e+01
6.890999999999999659e+01
-1.816000000000000014e+01
6.059999999999999609e+00
-8.456000000000000227e+01
-7.640000000000000568e+01
3.472999999999999687e+01
1.921699999999999875e+02
4.288600000000000136e+02
-9.593999999999999773e+01
-2.235500000000000114e+02
-1.991200000000000045e+02
1.747299999999999898e+02
-5.552000000000000313e+01
-1.021599999999999966e+02
1.057600000000000051e+02
3.984000000000000341e+01
-1.364399999999999977e+02
2.801999999999999957e+01
2.698000000000000043e+01
2.328999999999999915e+01
-9.525000000000000000e+01
1.628100000000000023e+02
6.030000000000000249e+00
-2.426999999999999957e+01
9.010999999999999943e+01
-1.251999999999999957e+01
-1.796000000000000085e+01
6.150000000000000355e+00
-6.459999999999999964e+00
-3.940999999999999659e+01
-1.575999999999999979e+01
7.589999999999999858e+00
8.949999999999999289e+00
-1.560999999999999943e+01
6.019999999999999574e+00
2.819999999999999840e+00
-8.619999999999999218e+00
1.592999999999999972e+01
2.162999999999999901e+01
2.710000000000000142e+01
9.320000000000000284e+00
-3.835999999999999943e+01
-7.778000000000000114e+01
-1.374199999999999875e+02
6.668000000000000682e+01
6.464000000000000057e+01
2.817999999999999972e+01
3.053999999999999915e+01
8.429999999999999716e+00
-2.640000000000000124e+00
-5.009999999999999787e+00
9.039999999999999147e+00
-1.419999999999999929e+00
2.000000000000000000e+00
8.490000000000000213e+00
1.388000000000000078e+01
-1.401999999999999957e+01
-1.442999999999999972e+01
6.570000000000000284e+00
-1.163000000000000078e+01
1.214000000000000057e+01
1.184999999999999964e+01
6.669999999999999929e+00
2.370000000000000107e+00
-3.146000000000000085e+01
-6.490000000000000213e+00
8.060000000000000497e+00
1.814000000000000057e+01
-5.080000000000000071e+00
-1.530000000000000027e+00
1.093999999999999950e+01
5.400000000000000355e-01
-8.080000000000000071e+00
6.230000000000000426e+00
6.339999999999999858e+00
-4.259999999999999787e+00
-2.500000000000000000e-01
6.690000000000000391e+00
-2.069999999999999840e+00
-5.250000000000000000e+00
5.690000000000000391e+00
-3.399999999999999911e+00
-4.429999999999999716e+00
1.790000000000000036e+00
6.750000000000000000e+00
-3.750000000000000000e+00
3.850000000000000089e+00
2.187000000000000099e+01
1.701000000000000156e+01
-2.826999999999999957e+01
-2.176999999999999957e+01
-1.125000000000000000e+01
-1.989999999999999991e+00
2.403000000000000114e+01
4.785000000000000142e+01
-6.789000000000000057e+01
9.279999999999999361e+00
3.032999999999999829e+01
-8.115000000000000568e+01
-9.170999999999999375e+01
1.463000000000000078e+01
7.500000000000000000e+00
3.534000000000000341e+01
4.685000000000000142e+01
-1.558999999999999986e+01
-1.114000000000000057e+01
1.582000000000000028e+01
-4.530000000000000249e+00
-2.709999999999999964e+00
2.344000000000000128e+01
6.442000000000000171e+01
-8.820000000000000284e+01
6.965000000000000568e+01
-9.626000000000000512e+01
-2.619000000000000128e+01
-1.161999999999999922e+01
-8.804000000000000625e+01
5.757999999999999829e+01
-2.390000000000000124e+00
5.814000000000000057e+01
-6.604000000000000625e+01
-3.392000000000000171e+01
4.457000000000000028e+01
5.860000000000000320e+00
-5.389999999999999680e+00
1.358000000000000007e+01
-8.019999999999999574e+00
-6.040000000000000036e+00
-9.980000000000000426e+00
2.367999999999999972e+01
1.605999999999999872e+01
-1.411999999999999922e+01
-4.000000000000000083e-02
2.839999999999999858e+00
-9.830000000000000071e+00
1.000000000000000000e+00
8.199999999999999289e+00
-5.440000000000000391e+00
-1.469999999999999973e+00
1.138000000000000078e+01
-2.169999999999999929e+00
-8.259999999999999787e+00
8.810000000000000497e+00
5.769999999999999574e+00
-1.033000000000000007e+01
8.369999999999999218e+00
8.140000000000000568e+00
-3.569999999999999840e+00
3.850000000000000089e+00
9.310000000000000497e+00
-4.639999999999999680e+00
-7.780000000000000249e+00
8.910000000000000142e+00
-8.419999999999999929e+00
-1.086999999999999922e+01
1.261999999999999922e+01
3.864999999999999858e+01
-4.150000000000000000e+01
-1.973999999999999844e+01
-5.849999999999999645e+00
-3.400000000000000244e-01
-1.101999999999999957e+01
9.910000000000000142e+00
2.069000000000000128e+01
1.630999999999999872e+01
-2.546999999999999886e+01
-2.666000000000000014e+01
6.950000000000000178e+00
1.812000000000000099e+01
1.496000000000000085e+01
-4.490000000000000213e+00
-1.566999999999999993e+01
2.259999999999999787e+00
4.509999999999999787e+00
-5.349999999999999645e+00
-2.939999999999999947e+00
8.460000000000000853e+00
-2.629999999999999893e+00
-7.309999999999999609e+00
6.320000000000000284e+00
1.399999999999999911e+00
-6.230000000000000426e+00
-9.000000000000000222e-01
8.080000000000000071e+00
1.280000000000000027e+00
-7.980000000000000426e+00
3.790000000000000036e+00
2.490000000000000213e+00
-4.599999999999999645e+00
8.599999999999999645e+00
-3.419999999999999929e+00
-1.111999999999999922e+01
-1.044999999999999929e+01
9.949999999999999289e+00
1.409999999999999920e+00
-1.178999999999999915e+01
1.080000000000000071e+00
9.039999999999999147e+00
-3.240000000000000213e+00
-2.910000000000000142e+00
7.059999999999999609e+00
-3.709999999999999964e+00
-1.301999999999999957e+01
1.830000000000000071e+00
1.050999999999999979e+01
-3.839999999999999858e+00
-8.009999999999999787e+00
8.060000000000000497e+00
-5.300000000000000266e-01
-6.719999999999999751e+00
9.089999999999999858e+00
1.030000000000000027e+00
-1.244999999999999929e+01
3.259999999999999787e+00
1.491999999999999993e+01
-9.200000000000000400e-01
-1.492999999999999972e+01
3.790000000000000036e+00
1.576999999999999957e+01
-1.323000000000000043e+01
6.669999999999999929e+00
4.849999999999999645e+00
-1.240000000000000036e+01
2.520000000000000018e+00
-2.689999999999999947e+00
-7.030000000000000249e+00
-4.809999999999999609e+00
8.599999999999999645e+00
2.500000000000000000e-01
-2.051000000000000156e+01
8.599999999999999867e-01
2.235999999999999943e+01
-3.770000000000000018e+00
5.740000000000000213e+00
1.610000000000000098e+00
-6.150000000000000355e+00
-2.612000000000000099e+01
6.129999999999999893e+00
4.259999999999999787e+00
-1.574000000000000021e+01
1.771999999999999886e+01
3.121000000000000085e+01
2.509999999999999787e+00
-1.046000000000000085e+01
1.860000000000000098e+00
-1.410999999999999943e+01
-7.809999999999999609e+00
1.128999999999999915e+01
5.500000000000000000e+00
-8.259999999999999787e+00
5.440000000000000391e+00
8.080000000000000071e+00
-1.389999999999999902e+00
-4.679999999999999716e+00
2.485000000000000142e+01
1.280000000000000027e+00
-1.166899999999999977e+02
3.529999999999999805e+00
3.897999999999999687e+01
1.967999999999999972e+01
4.195000000000000284e+01
4.053999999999999915e+01
-2.107199999999999989e+02
-5.040000000000000036e+00
1.067500000000000000e+02
-1.380699999999999932e+02
4.245000000000000284e+01
-3.374000000000000199e+01
-1.263000000000000078e+01
1.885999999999999943e+01
-1.764099999999999966e+02
4.285999999999999943e+01
4.800000000000000000e+01
-7.440000000000000568e+01
-7.518999999999999773e+01
6.459000000000000341e+01
2.005099999999999909e+02
1.277300000000000040e+02
1.320399999999999920e+02
-2.455000000000000000e+02
-4.764999999999999858e+01
-8.895999999999999375e+01
-1.148100000000000023e+02
2.806299999999999955e+02
-4.763000000000000256e+01
3.843999999999999773e+01
-8.668000000000000682e+01
6.370000000000000107e+00
3.112999999999999901e+01
-1.310000000000000053e+00
-7.806000000000000227e+01
2.916000000000000014e+01
2.604700000000000273e+02
-5.940999999999999659e+01
3.609999999999999876e+00
-2.792099999999999795e+02
3.274800000000000182e+02
-2.226299999999999955e+02
1.217099999999999937e+02
-1.323899999999999864e+02
1.583000000000000007e+01
1.351999999999999957e+01
7.239000000000000057e+01
1.723999999999999844e+01
-4.384300000000000068e+02
1.870300000000000011e+02
2.544300000000000068e+02
-3.574000000000000199e+01
-1.067699999999999960e+02
-8.720999999999999375e+01
-1.358000000000000007e+01
8.443999999999999773e+01
6.554999999999999716e+01
-7.829999999999999716e+01
-8.976999999999999602e+01
4.327000000000000313e+01
2.069999999999999929e+01
1.030900000000000034e+02
5.178000000000000114e+01
2.425000000000000000e+01
-4.790999999999999659e+01
-5.346999999999999886e+01
-3.153999999999999915e+01
-5.421000000000000085e+01
2.278499999999999943e+02
-1.208700000000000045e+02
4.220000000000000284e+01
4.120000000000000107e+00
-2.762599999999999909e+02
5.290000000000000036e+00
8.181000000000000227e+01
-6.962999999999999545e+01
-1.878000000000000114e+01
-7.881000000000000227e+01
3.012999999999999901e+01
1.450399999999999920e+02
-1.542500000000000000e+02
1.395000000000000000e+02
3.768999999999999773e+01
5.120000000000000284e+01
1.100799999999999983e+02
1.330000000000000000e+02
-1.371000000000000085e+01
-2.094199999999999875e+02
-9.342000000000000171e+01
-2.467899999999999920e+02
2.258799999999999955e+02
1.511699999999999875e+02
-7.204000000000000625e+01
-5.099999999999999645e+00
-3.134900000000000091e+02
1.337599999999999909e+02
9.190000000000000568e+01
4.447999999999999687e+01
9.419999999999999929e+00
-5.464999999999999858e+01
3.103000000000000114e+01
9.199999999999999289e+00
-1.075999999999999979e+01
-1.792000000000000171e+01
1.560000000000000053e+00
-7.110000000000000320e+00
-2.214999999999999858e+01
1.325999999999999979e+01
1.669999999999999929e+01
-1.393999999999999950e+01
-4.040000000000000036e+00
7.070000000000000284e+00
-3.151999999999999957e+01
-7.165999999999999659e+01
1.622100000000000080e+02
1.651000000000000156e+01
-1.131000000000000050e+01
6.954000000000000625e+01
-6.998999999999999488e+01
5.889000000000000057e+01
-1.282000000000000028e+01
1.657999999999999829e+01
2.540000000000000036e+00
-2.592999999999999972e+01
2.959999999999999964e+00
1.590000000000000036e+01
-8.960000000000000853e+00
-8.210000000000000853e+00
1.728999999999999915e+01
2.101000000000000156e+01
-8.223999999999999488e+01
3.158999999999999986e+01
2.490000000000000213e+00
-2.101000000000000156e+01
5.599999999999999645e+00
1.191999999999999993e+01
-4.669999999999999929e+00
-7.839999999999999858e+00
1.533999999999999986e+01
-2.000000000000000000e+00
-5.772999999999999687e+01
-5.031000000000000227e+01
1.939000000000000057e+01
-4.846000000000000085e+01
3.593999999999999773e+01
-5.595000000000000284e+01
-2.966000000000000014e+01
-9.320000000000000284e+00
3.879999999999999893e+00
-2.028999999999999915e+01
-2.148999999999999844e+01
1.384999999999999964e+01
1.812999999999999901e+01
-7.620000000000000107e+00
1.352999999999999936e+01
1.767000000000000171e+01
-1.100000000000000089e+00
-2.330000000000000071e+01
3.950999999999999801e+01
7.070000000000000284e+00
-1.703000000000000114e+01
-4.299000000000000199e+01
2.953999999999999915e+01
-1.263000000000000078e+01
-3.178000000000000114e+01
-6.900000000000000355e+00
-2.446000000000000085e+01
3.492000000000000171e+01
2.448999999999999844e+01
-2.602799999999999727e+02
-2.430000000000000160e+00
1.585099999999999909e+02
-4.220000000000000284e+01
1.493999999999999950e+01
-2.023999999999999844e+01
-2.821999999999999886e+01
-4.179999999999999716e+01
-4.679999999999999716e+01
2.914000000000000057e+01
-1.076999999999999957e+01
7.807999999999999829e+01
1.826000000000000156e+01
6.096999999999999886e+01
-7.807999999999999829e+01
4.159000000000000341e+01
1.509999999999999964e+01
-3.839999999999999858e+00
2.700000000000000178e-01
-4.899999999999999911e-01
-9.929999999999999716e+00
9.859999999999999432e+00
-2.790000000000000036e+00
-2.049999999999999822e+00
1.710000000000000142e+01
-3.279999999999999805e+00
3.126000000000000156e+01
1.397299999999999898e+02
-3.672500000000000000e+02
8.339000000000000057e+01
1.276099999999999994e+02
-1.807400000000000091e+02
-2.417100000000000080e+02
4.959000000000000341e+01
2.065300000000000011e+02
2.908999999999999986e+01
-1.037399999999999949e+02
-8.906000000000000227e+01
4.075000000000000000e+01
4.721000000000000085e+01
2.710000000000000142e+01
-1.221599999999999966e+02
2.098999999999999844e+01
2.253999999999999915e+01
-8.529999999999999361e+00
-5.729999999999999716e+01
1.046599999999999966e+02
-6.528000000000000114e+01
-8.019999999999999574e+00
-1.319499999999999886e+02
1.656999999999999886e+02
-4.219999999999999751e+00
1.876999999999999957e+01
-5.790000000000000036e+00
2.485000000000000142e+01
1.460999999999999943e+01
-3.060999999999999943e+01
1.424000000000000021e+01
1.256000000000000050e+01
-1.424000000000000021e+01
1.235999999999999943e+01
-3.370000000000000107e+00
-2.137999999999999901e+01
2.864000000000000057e+01
-1.760000000000000009e+00
-1.211999999999999922e+01
2.970000000000000195e+00
2.080000000000000071e+00
-7.740000000000000213e+00
1.570000000000000062e+00
7.730000000000000426e+00
-9.539999999999999147e+00
-6.490000000000000213e+00
1.511999999999999922e+01
-1.419999999999999929e+00
-6.629999999999999893e+00
1.459999999999999964e+01
4.389999999999999680e+00
-4.092999999999999972e+01
3.792999999999999972e+01
-3.390000000000000124e+00
-8.089999999999999858e+00
1.169999999999999929e+00
4.150000000000000355e+00
3.759999999999999787e+00
-2.705999999999999872e+01
8.480000000000000426e+00
1.199999999999999956e+00
4.349999999999999645e+00
-1.029099999999999966e+02
2.166000000000000014e+01
1.840000000000000000e+02
8.050000000000000711e+00
-2.762999999999999901e+01
-7.270999999999999375e+01
-1.033400000000000034e+02
4.892999999999999972e+01
-1.544999999999999929e+01
6.267000000000000171e+01
5.749000000000000199e+01
-7.610000000000000320e+00
2.689999999999999947e+00
9.839999999999999858e+00
-2.019999999999999929e+01
3.436999999999999744e+01
-3.357999999999999829e+01
-2.137000000000000099e+01
2.580999999999999872e+01
4.036999999999999744e+01
1.540000000000000036e+01
-5.382999999999999829e+01
-2.898999999999999844e+01
-7.817000000000000171e+01
3.297999999999999687e+01
4.989999999999999858e+01
1.612000000000000099e+01
3.784000000000000341e+01
-1.504000000000000057e+02
6.673000000000000398e+01
2.282000000000000028e+01
4.718500000000000227e+02
-9.975000000000000000e+01
-2.612000000000000099e+01
-3.793000000000000114e+02
9.770000000000000284e+01
1.719600000000000080e+02
5.440000000000000391e+00
-2.145900000000000034e+02
5.196000000000000085e+01
1.982599999999999909e+02
-7.085999999999999943e+01
-2.406100000000000136e+02
-1.552500000000000000e+02
2.374199999999999875e+02
2.437299999999999898e+02
-7.196999999999999886e+01
-2.750000000000000000e+00
-3.723199999999999932e+02
1.401699999999999875e+02
-2.848999999999999844e+01
-3.986999999999999744e+01
-3.187999999999999901e+01
1.920200000000000102e+02
-2.726999999999999957e+01
-1.203999999999999915e+01
2.398999999999999844e+01
-2.069999999999999929e+01
-6.690000000000000568e+01
1.224500000000000028e+02
-1.994999999999999929e+01
-1.660200000000000102e+02
1.676599999999999966e+02
-1.816699999999999875e+02
-3.101999999999999957e+01
7.143000000000000682e+01
-2.007199999999999989e+02
1.581200000000000045e+02
1.661899999999999977e+02
-1.479099999999999966e+02
-2.052599999999999909e+02
2.603999999999999915e+01
-2.455000000000000071e+01
3.964999999999999858e+01
1.921000000000000085e+01
-2.728000000000000114e+01
5.965999999999999659e+01
-3.604999999999999716e+01
3.624000000000000199e+01
-6.800000000000000488e-01
-1.964000000000000057e+01
-1.914699999999999989e+02
-1.327899999999999920e+02
3.236999999999999886e+02
-7.995999999999999375e+01
-1.156299999999999955e+02
1.215400000000000063e+02
-6.582999999999999829e+01
-2.770000000000000018e+00
1.450999999999999979e+01
9.740000000000000213e+00
-7.040000000000000036e+00
-2.830999999999999872e+01
1.269999999999999929e+01
2.664999999999999858e+01
4.210000000000000142e+01
-5.379999999999999716e+01
-3.543999999999999773e+01
1.492199999999999989e+02
-1.270199999999999960e+02
-4.368999999999999773e+01
1.278999999999999915e+01
-4.260000000000000142e+01
-5.800000000000000000e+01
-7.959999999999999964e+00
-6.419999999999999929e+00
2.675000000000000000e+01
-6.277000000000000313e+01
-4.797999999999999687e+01
6.623999999999999488e+01
7.360999999999999943e+01
-7.698999999999999488e+01
-5.217000000000000171e+01
-3.846000000000000085e+01
-3.091000000000000014e+01
4.702000000000000313e+01
-9.119999999999999218e+00
-2.714999999999999858e+01
2.004399999999999977e+02
2.278999999999999915e+01
-2.592400000000000091e+02
2.010000000000000142e+01
1.905300000000000011e+02
-1.366800000000000068e+02
-3.138799999999999955e+02
7.962999999999999545e+01
3.604999999999999716e+01
9.087999999999999545e+01
-1.558400000000000034e+02
8.178000000000000114e+01
6.687999999999999545e+01
1.341999999999999993e+01
-4.285999999999999943e+01
4.503999999999999915e+01
-1.700000000000000122e-01
-6.017000000000000171e+01
-4.171999999999999886e+01
3.220299999999999727e+02
3.557000000000000028e+01
1.798499999999999943e+02
-5.175999999999999801e+01
5.715999999999999659e+01
-4.289999999999999858e+01
-2.120999999999999943e+02
1.500399999999999920e+02
9.323000000000000398e+01
-3.559000000000000341e+01
-1.539000000000000057e+01
1.147999999999999972e+02
3.992999999999999972e+01
5.290000000000000036e+00
1.344799999999999898e+02
-2.089199999999999875e+02
-1.427999999999999936e+01
3.564000000000000057e+01
9.039999999999999147e+00
-3.799000000000000199e+01
-7.349999999999999645e+00
7.860000000000000320e+00
-2.067999999999999972e+01
-4.689999999999999858e+01
-1.260999999999999943e+01
-1.245699999999999932e+02
1.002999999999999936e+01
1.844900000000000091e+02
5.267999999999999972e+01
1.052999999999999936e+01
2.810000000000000053e+00
-1.293999999999999950e+01
-1.153999999999999915e+01
-2.441000000000000014e+01
1.361299999999999955e+02
-9.618999999999999773e+01
2.090500000000000114e+02
-5.660999999999999943e+01
-3.228999999999999915e+01
-1.513000000000000078e+01
1.803000000000000114e+01
-5.346000000000000085e+01
6.542000000000000171e+01
1.013400000000000034e+02
-3.214000000000000057e+01
-1.083499999999999943e+02
3.173999999999999844e+01
-2.470000000000000195e+00
-2.549999999999999822e+00
1.742999999999999972e+01
2.632000000000000028e+01
-3.546999999999999886e+01
4.432999999999999829e+01
3.932000000000000028e+01
-5.438000000000000256e+01
1.889000000000000057e+01
5.132000000000000028e+01
-1.052999999999999972e+02
2.057000000000000028e+01
-1.110600000000000023e+02
9.914000000000000057e+01
1.164500000000000028e+02
5.003000000000000114e+01
-6.562000000000000455e+01
1.300600000000000023e+02
2.330000000000000071e+00
-7.756000000000000227e+01
-3.368999999999999773e+01
3.618999999999999773e+01
2.089999999999999858e+00
1.969999999999999929e+01
-3.014000000000000057e+01
-5.650000000000000355e+00
4.867999999999999972e+01
4.370000000000000107e+00
3.804999999999999716e+01
1.649300000000000068e+02
-8.706000000000000227e+01
-1.274599999999999937e+02
8.515999999999999659e+01
2.705699999999999932e+02
-1.072900000000000063e+02
-2.846000000000000227e+02
-1.186999999999999922e+01
7.856999999999999318e+01
4.482000000000000028e+01
9.984000000000000341e+01
-9.371999999999999886e+01
-3.596999999999999886e+01
-1.209999999999999964e+01
5.871999999999999886e+01
-2.960999999999999943e+01
1.461999999999999922e+01
1.982999999999999829e+01
-1.066299999999999955e+02
-1.355900000000000034e+02
2.021899999999999977e+02
4.640999999999999659e+01
1.546000000000000085e+01
1.260999999999999943e+01
5.978000000000000114e+01
-1.634600000000000080e+02
-4.139000000000000057e+01
-1.292299999999999898e+02
5.980000000000000426e+00
1.136800000000000068e+02
-1.142800000000000011e+02
-1.976399999999999864e+02
2.841000000000000227e+02
-3.804999999999999716e+01
1.888799999999999955e+02
-1.271299999999999955e+02
-4.339999999999999858e+01
-1.819399999999999977e+02
-9.335999999999999943e+01
-2.603199999999999932e+02
3.570099999999999909e+02
3.810400000000000205e+02
-1.349799999999999898e+02
-1.159399999999999977e+02
1.457899999999999920e+02
-2.375999999999999943e+02
1.648999999999999844e+01
1.903000000000000114e+01
-8.500000000000000000e+01
1.050000000000000000e+02
-6.465000000000000568e+01
1.109999999999999964e+01
-1.763600000000000136e+02
7.340000000000000568e+01
6.893000000000000682e+01
-2.823000000000000043e+01
4.960999999999999943e+01
1.763700000000000045e+02
-9.012000000000000455e+01
6.575000000000000000e+01
1.242999999999999972e+01
8.000000000000000167e-02
-8.932999999999999829e+01
2.714999999999999858e+01
1.067999999999999972e+01
-1.250000000000000000e+00
-1.651000000000000156e+01
-1.600000000000000089e+00
-1.389999999999999902e+00
2.899999999999999800e-01
-5.704999999999999716e+01
-6.620000000000000107e+00
7.156999999999999318e+01
1.316000000000000014e+01
-6.268999999999999773e+01
7.290000000000000036e+00
9.454999999999999716e+01
1.432000000000000028e+01
-8.135999999999999943e+01
-4.652000000000000313e+01
-9.599999999999999645e+00
-6.814000000000000057e+01
1.707999999999999829e+01
4.717999999999999972e+01
-4.790999999999999659e+01
1.862999999999999901e+01
-4.857999999999999829e+01
1.658600000000000136e+02
-3.784000000000000341e+01
7.546999999999999886e+01
-1.404099999999999966e+02
8.440999999999999659e+01
-4.439000000000000057e+01
-1.590000000000000080e+00
-1.216200000000000045e+02
-1.885999999999999943e+01
-3.740000000000000213e+00
-9.348999999999999488e+01
1.405300000000000011e+02
5.432000000000000028e+01
-8.170000000000000284e+01
-1.438499999999999943e+02
-5.249000000000000199e+01
8.112000000000000455e+01
-1.075799999999999983e+02
9.710000000000000853e+00
7.278000000000000114e+01
-1.600000000000000033e-01
-2.193499999999999943e+02
4.646999999999999886e+01
2.013700000000000045e+02
6.468000000000000682e+01
5.592000000000000171e+01
-4.442000000000000171e+01
-7.779000000000000625e+01
5.381000000000000227e+01
1.672800000000000011e+02
1.505200000000000102e+02
-1.801100000000000136e+02
-1.441299999999999955e+02
1.344000000000000057e+02
4.078999999999999915e+01
-1.018999999999999950e+01
1.270999999999999943e+02
-9.699999999999999734e-01
2.650000000000000000e+01
3.930000000000000160e+00
8.519999999999999574e+00
6.759999999999999787e+00
2.076000000000000156e+01
-7.690000000000000391e+00
-8.839999999999999858e+00
-6.671999999999999886e+01
-6.510999999999999943e+01
-6.500000000000000000e+00
-1.246000000000000085e+01
7.998999999999999488e+01
5.585999999999999943e+01
8.368000000000000682e+01
-9.123999999999999488e+01
-8.653000000000000114e+01
-2.692000000000000171e+01
6.175000000000000000e+01
-3.664999999999999858e+01
-8.570000000000000284e+01
7.529000000000000625e+01
8.987000000000000455e+01
8.051000000000000512e+01
3.187000000000000099e+01
-3.625000000000000000e+01
1.894000000000000128e+01
6.356000000000000227e+01
1.812199999999999989e+02
-4.085000000000000142e+01
-3.371299999999999955e+02
-1.160400000000000063e+02
-7.550000000000000000e+01
-3.540400000000000205e+02
4.019800000000000182e+02
-2.133400000000000034e+02
8.673000000000000398e+01
-1.236200000000000045e+02
8.267000000000000171e+01
-4.809000000000000341e+01
5.871000000000000085e+01
-3.599000000000000199e+01
6.053999999999999915e+01
1.272099999999999937e+02
-1.057800000000000011e+02
-1.147500000000000000e+02
3.478999999999999915e+01
9.587000000000000455e+01
-1.420900000000000034e+02
8.873999999999999488e+01
5.184000000000000341e+01
1.945200000000000102e+02
-2.492899999999999920e+02
-2.578600000000000136e+02
1.463400000000000034e+02
5.096999999999999886e+01
5.252999999999999545e+02
2.100699999999999932e+02
-3.067699999999999818e+02
-2.459199999999999875e+02
-2.716499999999999773e+02
2.172400000000000091e+02
1.481299999999999955e+02
7.729999999999999716e+01
7.129000000000000625e+01
3.572999999999999687e+01
-3.466800000000000068e+02
-6.594500000000000455e+02
2.606899999999999977e+02
3.223899999999999864e+02
6.206000000000000227e+01
-5.265999999999999659e+01
1.931899999999999977e+02
-1.099000000000000021e+01
1.044399999999999977e+02
-1.428700000000000045e+02
1.255799999999999983e+02
1.903199999999999932e+02
-4.863000000000000256e+01
-3.252200000000000273e+02
3.939999999999999858e+01
-3.517400000000000091e+02
1.630800000000000125e+02
1.909900000000000091e+02
1.141500000000000057e+02
-1.343999999999999950e+01
1.882800000000000011e+02
1.832299999999999898e+02
-8.021999999999999886e+01
-1.016700000000000017e+02
-1.184599999999999937e+02
9.618999999999999773e+01
-9.443000000000000682e+01
-1.061400000000000006e+02
-1.918400000000000034e+02
2.366000000000000014e+01
1.087600000000000051e+02
1.491200000000000045e+02
-1.964000000000000057e+01
-5.545000000000000284e+01
3.356100000000000136e+02
-2.941000000000000014e+01
-2.071599999999999966e+02
-1.245799999999999983e+02
1.746299999999999955e+02
-1.166599999999999966e+02
-4.750000000000000000e+00
5.721999999999999886e+01
6.684000000000000341e+01
-1.005499999999999972e+02
6.846999999999999886e+01
-1.559999999999999964e+01
-6.612000000000000455e+01
-6.740000000000000213e+00
4.271000000000000085e+01
3.605000000000000000e+02
-2.078400000000000034e+02
-2.749700000000000273e+02
2.625000000000000000e+01
9.201999999999999602e+01
3.483999999999999773e+02
-7.804999999999999716e+01
-1.460999999999999943e+02
-4.057000000000000028e+01
5.940000000000000391e+00
1.059399999999999977e+02
-1.183299999999999983e+02
-3.203999999999999915e+01
2.752099999999999795e+02
-5.299999999999999822e+00
-1.820800000000000125e+02
4.129999999999999716e+01
1.212300000000000040e+02
-2.171699999999999875e+02
2.013600000000000136e+02
2.144999999999999929e+01
-4.350000000000000000e+01
-6.784000000000000341e+01
-3.253000000000000114e+01
-4.217000000000000171e+01
-5.482000000000000028e+01
-5.982999999999999829e+01
3.500000000000000000e+01
8.039999999999999147e+00
7.620000000000000107e+00
-1.001999999999999957e+01
-7.419999999999999929e+00
-3.339999999999999858e+01
1.066999999999999993e+01
2.983999999999999986e+01
7.459000000000000341e+01
-3.543999999999999773e+01
2.435000000000000142e+01
-4.740999999999999659e+01
-4.217000000000000171e+01
2.126000000000000156e+01
-3.778000000000000114e+01
1.291699999999999875e+02
-2.942000000000000171e+01
-1.007000000000000028e+02
-1.169200000000000017e+02
-2.187500000000000000e+02
1.952599999999999909e+02
-1.494699999999999989e+02
2.894000000000000128e+01
3.239000000000000057e+01
-1.626999999999999957e+01
-1.675000000000000000e+01
5.300000000000000266e-01
-4.106000000000000227e+01
9.782999999999999829e+01
-4.129999999999999893e+00
2.132999999999999829e+01
1.111800000000000068e+02
-7.640999999999999659e+01
2.121999999999999886e+01
2.362000000000000099e+01
-1.297599999999999909e+02
2.089000000000000057e+01
3.392000000000000171e+01
-2.176000000000000156e+01
-1.580000000000000071e+01
-4.029999999999999716e+01
5.486999999999999744e+01
-3.185000000000000142e+01
2.357000000000000028e+01
7.170999999999999375e+01
1.110199999999999960e+02
-1.851000000000000156e+01
-1.021000000000000085e+01
4.679999999999999716e+01
-3.846000000000000085e+01
5.356000000000000227e+01
6.370000000000000107e+00
-8.721999999999999886e+01
2.120399999999999920e+02
-1.216299999999999955e+02
2.932000000000000028e+01
-1.073499999999999943e+02
-8.117000000000000171e+01
7.214000000000000057e+01
2.159399999999999977e+02
-2.798000000000000043e+01
-1.109399999999999977e+02
-4.588000000000000256e+01
-4.596000000000000085e+01
1.519999999999999929e+01
-1.479999999999999982e+00
-1.096000000000000085e+01
-8.431000000000000227e+01
-7.950000000000000178e+00
7.700000000000000000e+01
4.814999999999999858e+01
3.014000000000000057e+01
9.310000000000000497e+00
-1.375000000000000000e+01
-4.799999999999999822e+00
-3.432000000000000028e+01
-4.290000000000000036e+00
1.967000000000000171e+01
-1.323000000000000043e+01
-7.301999999999999602e+01
6.719999999999999751e+00
-4.035000000000000142e+01
-1.365399999999999920e+02
2.004699999999999989e+02
9.206000000000000227e+01
9.919999999999999929e+00
1.642000000000000171e+01
1.352999999999999936e+01
-7.830000000000000071e+00
9.189999999999999503e+00
2.889999999999999858e+01
6.469999999999999751e+00
6.595999999999999375e+01
2.225800000000000125e+02
-1.870900000000000034e+02
-7.209000000000000341e+01
-1.533000000000000007e+01
-2.420699999999999932e+02
-4.667000000000000171e+01
-6.914000000000000057e+01
4.085000000000000142e+01
1.163100000000000023e+02
8.965000000000000568e+01
-4.020500000000000114e+02
-5.278000000000000114e+01
-3.977000000000000313e+01
-1.096899999999999977e+02
3.018600000000000136e+02
4.821000000000000085e+01
-1.425300000000000011e+02
-1.176999999999999957e+01
1.580000000000000071e+00
-6.335000000000000142e+01
1.525000000000000000e+01
1.343999999999999950e+01
-7.570000000000000284e+00
1.034999999999999964e+01
-1.399999999999999911e+00
-5.142999999999999972e+01
-6.614000000000000057e+01
1.330699999999999932e+02
-3.617000000000000171e+01
-4.372999999999999687e+01
1.983700000000000045e+02
-1.283499999999999943e+02
-6.354999999999999716e+01
7.156000000000000227e+01
1.217000000000000028e+02
-8.351000000000000512e+01
3.803999999999999915e+01
6.519999999999999574e+00
-5.152000000000000313e+01
1.278999999999999915e+01
-1.762000000000000099e+01
-7.570999999999999375e+01
2.957000000000000028e+01
2.921399999999999864e+02
-4.271000000000000085e+01
-1.277999999999999936e+01
1.324000000000000021e+01
-3.067999999999999972e+01
8.943999999999999773e+01
1.007000000000000028e+01
7.969999999999999751e+00
1.271000000000000085e+01
-2.885000000000000142e+01
-2.585999999999999943e+01
1.218999999999999950e+01
3.993999999999999773e+01
9.150000000000000355e+00
-1.969000000000000128e+01
-1.889999999999999858e+01
2.120500000000000114e+02
-2.158000000000000114e+02
-9.742000000000000171e+01
-3.213000000000000256e+01
1.723999999999999844e+01
1.068999999999999950e+01
-2.001000000000000156e+01
-1.682000000000000028e+01
1.782999999999999829e+01
-1.071400000000000006e+02
6.580000000000000071e+00
1.159999999999999964e+01
4.325999999999999801e+01
9.418000000000000682e+01
-4.038000000000000256e+01
-2.619999999999999929e+01
2.951999999999999957e+01
-2.123999999999999844e+01
-1.565000000000000036e+01
2.382999999999999829e+01
-5.899999999999999689e-01
2.396299999999999955e+02
-2.154399999999999977e+02
-3.621000000000000085e+01
1.249000000000000057e+02
1.160999999999999943e+02
7.320000000000000284e+00
4.429999999999999716e+00
-5.825000000000000000e+01
2.973000000000000043e+01
-1.663700000000000045e+02
-6.299999999999999822e+00
-6.307000000000000028e+01
-1.374699999999999989e+02
4.639000000000000057e+01
2.169600000000000080e+02
1.049699999999999989e+02
2.011399999999999864e+02
-1.661500000000000057e+02
-9.818000000000000682e+01
-6.673000000000000398e+01
6.259999999999999787e+00
-2.617000000000000171e+01
-1.239899999999999949e+02
3.342999999999999972e+01
4.718999999999999773e+01
-5.332999999999999829e+01
1.789999999999999858e+01
-1.484999999999999964e+01
-3.607999999999999829e+01
4.228000000000000114e+01
5.507999999999999829e+01
-3.198999999999999844e+01
3.509000000000000341e+01
-7.435999999999999943e+01
-4.750999999999999801e+01
-7.987999999999999545e+01
7.820000000000000284e+00
9.390000000000000568e+01
1.784099999999999966e+02
1.023299999999999983e+02
-1.274000000000000021e+01
7.203000000000000114e+01
6.943999999999999773e+01
-8.609999999999999432e+00
-2.708999999999999986e+01
7.154999999999999716e+01
-8.520999999999999375e+01
-8.500000000000000000e+00
-3.959999999999999964e+00
-6.142999999999999972e+01
1.334399999999999977e+02
-1.037300000000000040e+02
-2.509799999999999898e+02
3.915999999999999659e+01
1.198299999999999983e+02
6.321999999999999886e+01
1.083100000000000023e+02
-3.053000000000000114e+01
-1.571000000000000085e+01
-2.120000000000000107e+00
2.470000000000000195e+00
-6.862999999999999545e+01
-6.820000000000000284e+00
3.885999999999999943e+01
-2.189000000000000057e+01
1.455000000000000071e+01
4.349999999999999645e+00
-9.240000000000000213e+00
2.014999999999999858e+01
6.128000000000000114e+01
-6.565000000000000568e+01
-2.010000000000000142e+01
6.064000000000000057e+01
5.910000000000000142e+00
-3.456000000000000227e+01
4.381000000000000227e+01
1.208000000000000007e+01
-5.282000000000000028e+01
-1.486999999999999922e+01
3.553999999999999915e+01
2.067999999999999972e+01
8.490000000000000213e+00
-3.989999999999999858e+01
-6.232000000000000028e+01
2.235999999999999943e+01
6.801000000000000512e+01
-6.361999999999999744e+01
-7.190999999999999659e+01
1.300000000000000044e-01
-1.100199999999999960e+02
3.807999999999999829e+01
5.157000000000000028e+01
-8.199999999999999512e-01
2.676000000000000156e+01
2.367999999999999972e+01
-8.325000000000000000e+01
4.889000000000000057e+01
-9.468999999999999773e+01
1.039000000000000057e+01
4.870000000000000107e+00
1.043599999999999994e+02
-1.015799999999999983e+02
-1.235499999999999972e+02
9.478000000000000114e+01
-7.248000000000000398e+01
-1.014800000000000040e+02
-9.796999999999999886e+01
1.623000000000000114e+02
9.684999999999999432e+01
-1.825000000000000000e+01
1.418100000000000023e+02
-6.419999999999999929e+00
-2.255099999999999909e+02
-2.973100000000000023e+02
2.548700000000000045e+02
-4.318999999999999773e+01
6.800000000000000000e+01
-1.350000000000000089e+00
3.603000000000000114e+01
-5.600000000000000533e-01
-1.692999999999999972e+01
1.128999999999999915e+01
-1.032000000000000028e+01
-3.228999999999999915e+01
-1.991000000000000014e+01
1.016000000000000014e+01
4.400000000000000355e+00
6.629999999999999893e+00
9.949999999999999289e+00
-8.310000000000000497e+00
3.499999999999999778e-01
8.789999999999999147e+00
-1.372000000000000064e+01
-1.342999999999999972e+01
5.610000000000000320e+00
-2.479999999999999982e+00
-1.188000000000000078e+01
1.180000000000000071e+01
4.799999999999999822e+00
-1.343999999999999950e+01
7.790000000000000036e+00
3.640000000000000124e+00
-1.008000000000000007e+01
-1.260000000000000009e+00
1.331000000000000050e+01
-3.699999999999999956e-01
-1.216999999999999993e+01
1.275000000000000000e+01
1.025000000000000000e+01
-1.584999999999999964e+01
6.400000000000000355e+00
8.730000000000000426e+00
-1.290000000000000036e+00
-1.944000000000000128e+01
7.809999999999999609e+00
7.889999999999999680e+00
-8.130000000000000782e+00
-1.100000000000000006e-01
1.199000000000000021e+01
-4.000000000000000083e-02
-1.551999999999999957e+01
1.080000000000000071e+01
4.980000000000000426e+00
-1.090000000000000036e+01
5.059999999999999609e+00
5.639999999999999680e+00
9.000000000000000222e-01
1.714999999999999858e+01
5.379999999999999893e+00
-2.709999999999999964e+00
-1.933999999999999986e+01
1.072000000000000064e+01
5.559999999999999609e+00
-1.281000000000000050e+01
8.400000000000000355e+00
-5.139999999999999680e+00
-9.320000000000000284e+00
1.798999999999999844e+01
1.215000000000000036e+01
-2.014999999999999858e+01
-3.080000000000000071e+00
2.548000000000000043e+01
4.324000000000000199e+01
-1.084999999999999964e+01
8.168999999999999773e+01
4.490000000000000213e+00
-4.243999999999999773e+01
-4.534000000000000341e+01
-1.345800000000000125e+02
2.138600000000000136e+02
2.051000000000000156e+01
-1.023000000000000043e+01
1.916000000000000014e+01
3.904999999999999716e+01
5.932000000000000028e+01
-5.096000000000000085e+01
-6.778000000000000114e+01
2.235000000000000142e+01
5.179999999999999716e+00
5.765999999999999659e+01
8.912999999999999545e+01
-1.022399999999999949e+02
-1.643000000000000114e+02
1.143100000000000023e+02
1.702700000000000102e+02
-1.524799999999999898e+02
-1.414099999999999966e+02
4.593999999999999773e+01
2.563899999999999864e+02
-1.368100000000000023e+02
-8.423000000000000398e+01
-1.403700000000000045e+02
1.117699999999999960e+02
3.807799999999999727e+02
-9.414000000000000057e+01
4.699999999999999734e-01
1.149999999999999911e+00
8.109999999999999432e+00
-7.070000000000000284e+00
2.282000000000000028e+01
-7.654999999999999716e+01
-9.142000000000000171e+01
2.039000000000000057e+01
2.077100000000000080e+02
-1.749099999999999966e+02
3.689999999999999858e+01
4.392999999999999972e+01
1.153799999999999955e+02
7.589999999999999858e+00
-1.157199999999999989e+02
2.292999999999999972e+01
4.485000000000000142e+01
-2.269399999999999977e+02
1.369300000000000068e+02
1.842999999999999972e+01
1.174000000000000021e+01
3.310000000000000142e+01
2.439999999999999947e+00
-3.611999999999999744e+01
3.765999999999999659e+01
-3.464999999999999858e+01
-1.642000000000000171e+01
7.759999999999999787e+00
1.051999999999999957e+01
-7.049999999999999822e+00
3.189000000000000057e+01
8.576000000000000512e+01
5.100999999999999801e+01
-2.412700000000000102e+02
8.820000000000000284e+01
9.087999999999999545e+01
8.962000000000000455e+01
-1.810000000000000053e+00
2.153999999999999915e+01
6.270000000000000284e+01
-4.086999999999999744e+01
-2.157000000000000028e+01
6.429999999999999716e+00
-4.835999999999999943e+01
-2.541000000000000014e+01
4.365999999999999659e+01
-3.706000000000000227e+01
3.203999999999999915e+01
-4.171000000000000085e+01
8.309000000000000341e+01
-1.227500000000000000e+02
-1.506000000000000050e+01
1.076599999999999966e+02
1.062800000000000011e+02
2.065000000000000000e+02
-2.543799999999999955e+02
4.020000000000000284e+01
1.338100000000000023e+02
-1.996100000000000136e+02
2.750000000000000000e+01
1.297800000000000011e+02
2.590600000000000023e+02
-2.656700000000000159e+02
-6.238000000000000256e+01
-2.149999999999999911e+00
-7.360000000000000320e+00
4.714999999999999858e+01
3.565999999999999659e+01
-1.766899999999999977e+02
7.818999999999999773e+01
6.682999999999999829e+01
-1.015000000000000036e+01
-6.434999999999999432e+01
-1.475999999999999979e+01
-1.708999999999999986e+01
1.887999999999999901e+01
-1.068299999999999983e+02
-1.316999999999999993e+01
8.345000000000000284e+01
-1.810000000000000053e+00
4.259999999999999787e+00
-7.849999999999999645e+00
9.376999999999999602e+01
-1.141700000000000017e+02
1.494199999999999875e+02
1.140600000000000023e+02
-5.011999999999999744e+01
-1.419499999999999886e+02
-2.614000000000000057e+01
1.503899999999999864e+02
2.969999999999999929e+01
1.425999999999999979e+01
7.399999999999999911e-01
-6.349000000000000199e+01
-7.020000000000000284e+01
-1.484000000000000057e+02
1.971200000000000045e+02
2.012000000000000099e+01
1.800000000000000044e+00
4.410000000000000142e+00
-1.399000000000000021e+01
-7.519999999999999574e+00
-3.863000000000000256e+01
-2.885999999999999943e+01
-6.240000000000000213e+00
2.808999999999999986e+01
-3.490000000000000213e+00
3.699999999999999956e-01
1.833999999999999986e+01
2.100000000000000089e+00
-8.689999999999999503e+00
1.083999999999999986e+01
2.919999999999999929e+00
-8.810000000000000497e+00
8.080000000000000071e+00
5.019999999999999574e+00
2.160000000000000142e+00
-1.250000000000000000e+00
1.186999999999999922e+01
8.449999999999999289e+00
-4.367999999999999972e+01
-3.399999999999999911e+00
-2.129999999999999893e+00
-1.971999999999999886e+01
1.801000000000000156e+01
1.484999999999999964e+01
-1.748999999999999844e+01
1.192999999999999972e+01
1.242999999999999972e+01
3.321999999999999886e+01
8.720000000000000284e+01
-7.328000000000000114e+01
-1.235100000000000051e+02
-2.898000000000000043e+01
7.890000000000000568e+01
2.942000000000000171e+01
-5.225000000000000000e+01
-1.769499999999999886e+02
-1.412100000000000080e+02
1.653700000000000045e+02
6.261999999999999744e+01
-2.469999999999999929e+01
-2.062999999999999901e+01
9.039999999999999147e+00
2.794999999999999929e+01
2.923000000000000043e+01
6.485999999999999943e+01
1.566399999999999864e+02
-9.021999999999999886e+01
-1.883100000000000023e+02
1.513799999999999955e+02
-7.425000000000000000e+01
-2.008999999999999986e+01
-4.685999999999999943e+01
5.820000000000000284e+00
8.679999999999999716e+00
1.187699999999999960e+02
7.168999999999999773e+01
-4.271000000000000085e+01
-4.522999999999999687e+01
-1.068999999999999950e+01
9.300000000000000711e+00
-3.509999999999999787e+00
-1.396000000000000085e+01
4.540999999999999659e+01
2.019000000000000128e+01
2.848999999999999844e+01
7.726999999999999602e+01
-8.943000000000000682e+01
-4.114000000000000057e+01
-5.089999999999999858e+01
-1.036800000000000068e+02
1.273900000000000006e+02
1.727100000000000080e+02
-1.637000000000000099e+01
-9.964000000000000057e+01
-9.337000000000000455e+01
-4.799000000000000199e+01
-1.572299999999999898e+02
2.268499999999999943e+02
-4.878000000000000114e+01
1.066000000000000014e+01
1.294600000000000080e+02
1.490000000000000036e+01
-1.926399999999999864e+02
-1.623000000000000043e+01
1.477999999999999936e+01
-2.729999999999999982e+00
-2.425000000000000000e+01
1.199000000000000021e+01
-6.290000000000000036e+00
-2.057000000000000028e+01
-3.392999999999999972e+01
-1.451500000000000057e+02
-1.000600000000000023e+02
1.850500000000000114e+02
4.396999999999999886e+01
-1.903499999999999943e+02
1.761699999999999875e+02
1.306899999999999977e+02
-1.396899999999999977e+02
-1.958799999999999955e+02
1.093799999999999955e+02
-2.328999999999999915e+01
-2.798000000000000043e+01
9.959999999999999432e+01
-1.721999999999999886e+02
2.530500000000000114e+02
1.093700000000000045e+02
1.155900000000000034e+02
-9.410999999999999943e+01
-1.932599999999999909e+02
1.566599999999999966e+02
-8.517000000000000171e+01
1.057000000000000028e+01
-5.614000000000000057e+01
1.816000000000000014e+01
1.257800000000000011e+02
4.429999999999999716e+00
-6.035999999999999943e+01
2.946999999999999886e+01
8.640000000000000568e+00
3.886999999999999744e+01
-3.083999999999999986e+01
-5.265999999999999659e+01
-1.162699999999999960e+02
-5.634000000000000341e+01
1.923499999999999943e+02
5.160999999999999943e+01
-2.825000000000000000e+01
1.346000000000000085e+01
3.881000000000000227e+01
-7.278000000000000114e+01
-5.209000000000000341e+01
2.264999999999999858e+01
5.610000000000000320e+00
-5.725999999999999801e+01
-1.127000000000000028e+02
2.118899999999999864e+02
-5.419999999999999929e+00
4.320000000000000284e+00
-2.945099999999999909e+02
1.310800000000000125e+02
6.473999999999999488e+01
-1.385999999999999943e+01
-2.514999999999999858e+01
2.517999999999999972e+01
5.740000000000000213e+00
1.929999999999999938e+00
-1.808999999999999986e+01
-8.509999999999999787e+00
1.173000000000000043e+01
-8.539999999999999147e+00
1.525999999999999979e+01
1.333899999999999864e+02
-1.683100000000000023e+02
-4.678000000000000114e+01
-1.550999999999999979e+01
-6.207999999999999829e+01
1.829600000000000080e+02
2.460300000000000011e+02
-1.793700000000000045e+02
-3.108700000000000045e+02
-4.299000000000000199e+01
2.798399999999999750e+02
3.814000000000000057e+01
4.274000000000000199e+01
-7.009999999999999787e+00
-4.952000000000000313e+01
1.175999999999999979e+01
-1.281000000000000050e+01
-1.860999999999999943e+01
2.073999999999999844e+01
1.113499999999999943e+02
-1.291100000000000136e+02
-7.089000000000000057e+01
4.360999999999999943e+01
1.274000000000000021e+01
-7.175000000000000000e+01
9.237999999999999545e+01
8.960000000000000853e+00
-3.438000000000000256e+01
-3.800999999999999801e+01
-3.522999999999999687e+01
1.302199999999999989e+02
3.055999999999999872e+01
-1.275199999999999960e+02
4.003000000000000114e+01
2.705999999999999872e+01
-8.760999999999999943e+01
-3.427000000000000313e+01
6.459999999999999964e+00
2.533999999999999986e+01
9.654000000000000625e+01
1.284399999999999977e+02
-3.060000000000000142e+01
3.609999999999999876e+00
3.307999999999999829e+01
-6.007999999999999829e+01
5.402000000000000313e+01
-5.918999999999999773e+01
7.771999999999999886e+01
-4.818999999999999773e+01
-4.249000000000000199e+01
1.342899999999999920e+02
7.917000000000000171e+01
1.001999999999999957e+01
3.760999999999999943e+01
-1.038299999999999983e+02
-9.921999999999999886e+01
6.920999999999999375e+01
-7.818000000000000682e+01
4.452000000000000313e+01
-1.149999999999999911e+00
-1.484499999999999886e+02
1.122500000000000000e+02
-3.950000000000000178e+00
1.503999999999999915e+01
8.643999999999999773e+01
-4.296999999999999886e+01
-4.740999999999999659e+01
1.660000000000000142e+01
1.347000000000000064e+01
-1.664999999999999858e+01
5.146000000000000085e+01
1.970800000000000125e+02
-1.299000000000000057e+02
-2.585000000000000142e+01
1.261899999999999977e+02
-9.160999999999999943e+01
4.243999999999999773e+01
6.090999999999999659e+01
-6.989000000000000057e+01
-8.537000000000000455e+01
-1.916000000000000014e+01
-4.052000000000000313e+01
1.559999999999999964e+01
1.350500000000000114e+02
-9.840000000000000568e+01
1.626699999999999875e+02
-3.874000000000000199e+01
-2.262999999999999901e+01
-6.320000000000000284e+01
-5.811999999999999744e+01
3.735000000000000142e+01
-5.228000000000000114e+01
7.196999999999999886e+01
4.332999999999999829e+01
2.136500000000000057e+02
-2.629399999999999977e+02
-1.006400000000000006e+02
7.515000000000000568e+01
5.128999999999999915e+01
-2.512299999999999898e+02
5.642999999999999972e+01
-7.799999999999999822e+00
1.602199999999999989e+02
-6.122999999999999687e+01
-1.973999999999999844e+01
-1.177999999999999936e+01
3.825999999999999801e+01
-1.782400000000000091e+02
1.590300000000000011e+02
1.011299999999999955e+02
-1.505000000000000071e+01
-1.585999999999999943e+01
7.385999999999999943e+01
-2.594999999999999929e+01
-2.839999999999999858e+01
3.399999999999999911e+00
1.570000000000000062e+00
-1.519999999999999929e+01
1.300999999999999979e+01
2.339000000000000057e+01
-5.179999999999999716e+00
1.159999999999999920e+00
1.442999999999999972e+01
4.139999999999999680e+00
4.349999999999999645e+00
3.194000000000000128e+01
2.237999999999999901e+01
-1.400800000000000125e+02
-6.109000000000000341e+01
6.429999999999999716e+00
6.551000000000000512e+01
1.445000000000000000e+02
-3.105000000000000071e+01
4.302000000000000313e+01
8.768000000000000682e+01
-2.197100000000000080e+02
-1.950000000000000000e+01
2.657000000000000028e+01
3.742000000000000171e+01
-1.256000000000000050e+01
-1.416200000000000045e+02
-7.500000000000000000e+01
3.123600000000000136e+02
2.836800000000000068e+02
-1.835699999999999932e+02
-2.114199999999999875e+02
9.684000000000000341e+01
8.515000000000000568e+01
-5.338000000000000256e+01
-2.314000000000000057e+01
1.418100000000000023e+02
4.598700000000000045e+02
-3.410999999999999943e+01
-2.080000000000000000e+02
-7.470999999999999375e+01
9.985999999999999943e+01
4.100999999999999801e+01
1.096099999999999994e+02
-1.769300000000000068e+02
-1.550500000000000114e+02
9.340999999999999659e+01
1.675099999999999909e+02
-3.720000000000000195e+00
2.082000000000000028e+01
2.380999999999999872e+01
-1.108999999999999986e+01
5.259999999999999787e+00
1.762999999999999901e+01
1.010000000000000009e+00
1.060000000000000053e+00
4.230000000000000426e+00
-1.840000000000000080e+00
4.799999999999999822e+00
2.773000000000000043e+01
7.204000000000000625e+01
2.885799999999999841e+02
-2.516299999999999955e+02
-1.779300000000000068e+02
-1.054500000000000028e+02
1.739099999999999966e+02
-1.416999999999999993e+01
4.585000000000000142e+01
-4.179999999999999716e+00
-5.835000000000000142e+01
-1.452100000000000080e+02
3.833500000000000227e+02
-1.155799999999999983e+02
-1.420600000000000023e+02
2.117000000000000171e+01
1.151999999999999957e+01
5.849999999999999645e+00
4.103000000000000114e+01
1.998300000000000125e+02
-1.052300000000000040e+02
4.000000000000000000e+01
4.929999999999999716e+01
-7.648999999999999488e+01
-2.253999999999999915e+01
3.285999999999999943e+01
-3.035999999999999943e+01
5.620000000000000107e+00
1.223299999999999983e+02
-1.610800000000000125e+02
3.112999999999999901e+01
-6.370000000000000107e+00
-1.531399999999999864e+02
-5.697999999999999687e+01
7.165999999999999659e+01
6.349000000000000199e+01
1.789999999999999858e+01
-6.618000000000000682e+01
2.687000000000000099e+01
2.810000000000000142e+01
-1.144999999999999929e+01
-2.942000000000000171e+01
1.993300000000000125e+02
-4.299000000000000199e+01
-2.246399999999999864e+02
1.912400000000000091e+02
3.135000000000000142e+01
-2.450000000000000178e+00
2.492999999999999972e+01
-2.071999999999999886e+01
-5.606000000000000227e+01
6.929999999999999716e+00
3.807999999999999829e+01
4.000000000000000222e-01
6.440000000000000391e+00
4.919999999999999929e+00
-8.000000000000000167e-02
-1.375999999999999979e+01
2.426000000000000156e+01
6.999999999999999556e-01
-3.785000000000000142e+01
1.459999999999999964e+01
4.186999999999999744e+01
9.990000000000000213e+00
-2.569999999999999929e+01
3.060000000000000053e+00
-1.800000000000000000e+01
-2.333999999999999986e+01
1.129999999999999893e+00
-2.919999999999999929e+00
3.879999999999999893e+00
9.259999999999999787e+00
-4.589999999999999858e+00
-2.226000000000000156e+01
1.356000000000000050e+01
2.740000000000000213e+00
-1.463000000000000078e+01
-1.933999999999999986e+01
2.492000000000000171e+01
2.033999999999999986e+01
-4.856000000000000227e+01
8.800000000000000711e+00
2.720000000000000195e+00
-2.259999999999999787e+00
-6.280000000000000249e+00
-1.043999999999999950e+01
2.950000000000000178e+00
7.389999999999999680e+00
7.849999999999999645e+00
4.730000000000000426e+00
-1.396000000000000085e+01
6.000000000000000000e+00
-4.400000000000000022e-01
-2.014999999999999858e+01
-5.821000000000000085e+01
5.900000000000000000e+01
1.184000000000000057e+02
-1.281200000000000045e+02
5.950999999999999801e+01
-1.907000000000000028e+01
1.810999999999999943e+01
1.425000000000000000e+01
-1.005799999999999983e+02
1.087399999999999949e+02
9.500000000000000000e+00
9.854000000000000625e+01
-2.404000000000000057e+02
-3.546000000000000085e+01
-3.532000000000000028e+01
-2.387000000000000099e+01
1.699799999999999898e+02
1.796299999999999955e+02
-2.143899999999999864e+02
8.757999999999999829e+01
1.817800000000000011e+02
-3.116999999999999886e+02
-1.750000000000000000e+00
-1.127900000000000063e+02
2.319900000000000091e+02
-4.228999999999999915e+01
-1.281000000000000050e+01
4.075000000000000000e+01
-1.080799999999999983e+02
4.631000000000000227e+01
-3.042000000000000171e+01
1.919399999999999977e+02
-7.557999999999999829e+01
-1.787500000000000000e+02
2.430399999999999920e+02
-1.140000000000000036e+01
-9.870000000000000284e+01
-2.664999999999999858e+01
-1.064000000000000057e+01
-1.258100000000000023e+02
-2.983999999999999986e+01
7.729999999999999716e+01
2.620000000000000107e+00
2.044000000000000128e+01
-2.394999999999999929e+01
1.075000000000000000e+02
-9.934000000000000341e+01
2.326999999999999886e+02
7.260999999999999943e+01
6.321000000000000085e+01
-1.961299999999999955e+02
-3.928999999999999915e+01
-1.004599999999999937e+02
-5.807000000000000028e+01
4.157999999999999829e+01
-8.554000000000000625e+01
7.101000000000000512e+01
1.160799999999999983e+02
2.587400000000000091e+02
-1.837100000000000080e+02
-1.658400000000000034e+02
3.427799999999999727e+02
1.143599999999999994e+02
-5.968500000000000227e+02
-4.175000000000000000e+02
3.527099999999999795e+02
6.797300000000000182e+02
-2.448400000000000034e+02
3.218999999999999773e+01
-1.369999999999999929e+01
-9.076000000000000512e+01
-1.239099999999999966e+02
1.739799999999999898e+02
-6.104999999999999716e+01
-5.287999999999999545e+02
1.501399999999999864e+02
2.967900000000000205e+02
-6.706999999999999318e+01
4.099999999999999756e-01
1.377500000000000000e+02
-1.655900000000000034e+02
2.177700000000000102e+02
-1.079800000000000040e+02
2.887000000000000099e+01
-7.589000000000000057e+01
5.803999999999999915e+01
3.325000000000000000e+01
-4.717000000000000171e+01
9.465999999999999659e+01
-5.057999999999999829e+01
-5.410000000000000142e+01
5.475000000000000000e+01
-4.031000000000000227e+01
-9.445999999999999375e+01
-7.593000000000000682e+01
1.107300000000000040e+02
6.454999999999999716e+01
-5.000000000000000278e-02
-7.298999999999999488e+01
-6.504999999999999716e+01
-1.786899999999999977e+02
3.259999999999999787e+00
9.790000000000000568e+01
1.438000000000000078e+01
-6.125999999999999801e+01
4.043999999999999773e+01
2.092000000000000171e+01
3.009999999999999787e+00
-3.361999999999999744e+01
7.269999999999999574e+00
-3.080000000000000071e+00
-1.306000000000000050e+01
-7.469999999999999751e+00
-4.750000000000000000e+00
1.556000000000000050e+01
-8.000000000000000000e+00
-1.991000000000000014e+01
1.667000000000000171e+01
-3.310000000000000053e+00
-1.531000000000000050e+01
1.628000000000000114e+01
9.050000000000000711e+00
-1.234999999999999964e+01
-1.610000000000000098e+00
7.169999999999999929e+00
-9.839999999999999858e+00
-9.980000000000000426e+00
1.213000000000000078e+01
2.040000000000000036e+00
-1.912000000000000099e+01
1.156000000000000050e+01
5.699999999999999512e-01
-1.769000000000000128e+01
1.673999999999999844e+01
7.509999999999999787e+00
-9.289999999999999147e+00
4.540000000000000036e+00
6.839999999999999858e+00
-7.849999999999999645e+00
-5.589999999999999858e+00
1.427999999999999936e+01
-2.729999999999999982e+00
-1.826999999999999957e+01
1.515000000000000036e+01
7.929999999999999716e+00
-3.153000000000000114e+01
-3.542000000000000171e+01
1.696999999999999886e+01
9.230000000000000426e+00
-3.985999999999999943e+01
-4.328000000000000114e+01
1.249000000000000021e+01
-1.466999999999999993e+01
1.467999999999999972e+01
5.752000000000000313e+01
8.400000000000000355e+00
7.682999999999999829e+01
1.128900000000000006e+02
5.459099999999999682e+02
-4.284300000000000068e+02
-8.470999999999999375e+01
-2.469999999999999929e+01
2.136800000000000068e+02
-3.574000000000000199e+01
-2.751000000000000156e+01
9.529999999999999361e+00
2.326999999999999957e+01
-8.199999999999999289e+00
-5.000999999999999801e+01
1.282000000000000028e+01
1.089000000000000057e+01
-3.155999999999999872e+01
3.478999999999999915e+01
1.526999999999999957e+01
-1.644999999999999929e+01
1.383999999999999986e+01
6.110000000000000320e+00
-1.227999999999999936e+01
-5.709999999999999964e+00
2.376999999999999957e+01
-1.139000000000000057e+01
-3.224000000000000199e+01
2.403999999999999915e+01
-5.169999999999999929e+00
-3.925000000000000000e+01
2.767000000000000171e+01
1.819000000000000128e+01
-2.412999999999999901e+01
1.932999999999999829e+01
2.307999999999999829e+01
-1.416999999999999993e+01
-1.853999999999999915e+01
1.798000000000000043e+01
-7.070000000000000284e+00
-3.066000000000000014e+01
2.308999999999999986e+01
6.559999999999999609e+00
-3.385999999999999943e+01
3.176999999999999957e+01
1.301999999999999957e+01
-2.921999999999999886e+01
1.919000000000000128e+01
2.146000000000000085e+01
-2.405000000000000071e+01
-3.089999999999999858e+00
2.089999999999999858e+01
-6.889999999999999680e+00
-1.488000000000000078e+01
1.989999999999999858e+01
3.899999999999999911e+00
-2.941000000000000014e+01
1.434999999999999964e+01
9.050000000000000711e+00
-3.632999999999999829e+01
2.298000000000000043e+01
1.464000000000000057e+01
-2.855999999999999872e+01
1.801999999999999957e+01
2.332999999999999829e+01
-3.148999999999999844e+01
-7.370000000000000107e+00
2.492000000000000171e+01
-1.435999999999999943e+01
-2.975000000000000000e+01
-5.549999999999999822e+00
-3.860000000000000142e+01
9.467000000000000171e+01
-7.865999999999999659e+01
1.292700000000000102e+02
2.950000000000000000e+01
-1.358999999999999986e+01
-4.967999999999999972e+01
1.810000000000000053e+00
-2.605000000000000071e+01
-3.664000000000000057e+01
8.915000000000000568e+01
1.599000000000000021e+01
-6.707999999999999829e+01
4.553000000000000114e+01
5.281000000000000227e+01
1.810000000000000053e+00
2.882000000000000028e+01
-2.273999999999999844e+01
3.781000000000000227e+01
-4.842999999999999972e+01
-4.222999999999999687e+01
6.321000000000000085e+01
1.283799999999999955e+02
-7.129999999999999716e+01
-3.720000000000000284e+01
9.475000000000000000e+01
-3.364999999999999858e+01
2.039000000000000057e+01
1.755000000000000071e+01
-5.659000000000000341e+01
5.879999999999999893e+00
4.361999999999999744e+01
-6.240000000000000213e+00
2.328999999999999915e+01
-7.589999999999999858e+00
9.096999999999999886e+01
4.070000000000000284e+00
-2.957000000000000028e+01
-1.093799999999999955e+02
5.242999999999999972e+01
7.115999999999999659e+01
-8.956000000000000227e+01
-1.081599999999999966e+02
2.250000000000000000e+01
1.010300000000000011e+02
-7.456000000000000227e+01
-3.624000000000000199e+01
8.165999999999999659e+01
-8.834000000000000341e+01
-1.382000000000000028e+01
-1.429999999999999938e+00
-1.720000000000000000e+02
2.135999999999999943e+01
9.645000000000000284e+01
-5.797999999999999687e+01
-1.528799999999999955e+02
1.333700000000000045e+02
-2.421699999999999875e+02
3.001999999999999957e+01
1.871699999999999875e+02
-8.698000000000000398e+01
-6.111999999999999744e+01
-6.754000000000000625e+01
8.990000000000000213e+00
1.873499999999999943e+02
-7.587000000000000455e+01
-6.121999999999999886e+01
-1.261099999999999994e+02
6.915000000000000568e+01
2.113000000000000114e+02
-1.322299999999999898e+02
-7.321999999999999886e+01
-1.475600000000000023e+02
-5.510000000000000142e+01
-7.410999999999999943e+01
5.450999999999999801e+01
3.636600000000000250e+02
-1.097199999999999989e+02
1.870800000000000125e+02
2.178999999999999915e+01
-8.715999999999999659e+01
-1.407000000000000028e+01
1.113799999999999955e+02
-1.729799999999999898e+02
1.366399999999999864e+02
2.930000000000000071e+01
1.608799999999999955e+02
-4.614000000000000057e+01
-2.181399999999999864e+02
-2.167000000000000171e+01
4.307000000000000028e+01
-9.582999999999999829e+01
-2.301999999999999957e+01
-3.357000000000000028e+01
1.795600000000000023e+02
-5.268999999999999773e+01
1.705000000000000071e+01
-1.771999999999999886e+01
4.417999999999999972e+01
-4.807000000000000028e+01
-4.432999999999999829e+01
-1.278599999999999994e+02
-6.146000000000000085e+01
7.985999999999999943e+01
8.431000000000000227e+01
-1.238700000000000045e+02
-2.936000000000000227e+02
1.290200000000000102e+02
-1.317599999999999909e+02
2.807599999999999909e+02
-9.070999999999999375e+01
-3.378999999999999915e+01
3.235000000000000142e+01
-7.787999999999999545e+01
-3.770000000000000284e+01
6.770999999999999375e+01
-1.383600000000000136e+02
-1.003299999999999983e+02
1.718400000000000034e+02
4.350400000000000205e+02
-2.513199999999999932e+02
-2.848000000000000114e+02
-5.988000000000000256e+01
-1.220199999999999960e+02
-7.669999999999999929e+00
-8.148000000000000398e+01
-4.964999999999999858e+01
7.218000000000000682e+01
-9.810999999999999943e+01
1.274000000000000021e+01
2.516000000000000014e+01
-9.931999999999999318e+01
4.150000000000000000e+01
-1.268999999999999950e+01
2.169000000000000128e+01
2.623999999999999844e+01
-4.871000000000000085e+01
6.199000000000000199e+01
3.550999999999999801e+01
-5.489000000000000057e+01
-2.229999999999999982e+00
-6.299999999999999822e+00
-6.929999999999999716e+00
-6.431000000000000227e+01
2.401999999999999957e+01
1.658999999999999986e+01
7.873000000000000398e+01
-7.548000000000000398e+01
-1.111200000000000045e+02
6.834999999999999432e+01
4.835999999999999943e+01
-6.269999999999999574e+00
-1.215000000000000036e+01
8.181000000000000227e+01
8.199999999999999512e-01
-2.430000000000000071e+01
1.260999999999999943e+01
5.721999999999999886e+01
-7.115999999999999659e+01
-2.028000000000000114e+01
9.095000000000000284e+01
-8.906000000000000227e+01
-5.085999999999999943e+01
1.172900000000000063e+02
-1.065799999999999983e+02
1.244999999999999929e+01
5.128000000000000114e+01
-1.175999999999999979e+01
7.551999999999999602e+01
-1.767999999999999972e+01
-1.732100000000000080e+02
1.900600000000000023e+02
4.010000000000000142e+01
-2.589999999999999858e+01
-1.333199999999999932e+02
-1.785399999999999920e+02
-9.993999999999999773e+01
3.287599999999999909e+02
-1.869000000000000057e+02
-1.901999999999999957e+01
4.565999999999999659e+01
-1.386999999999999922e+01
1.511999999999999922e+01
-2.648999999999999844e+01
4.193999999999999773e+01
2.353999999999999915e+01
-6.468999999999999773e+01
-1.084099999999999966e+02
1.192999999999999972e+02
1.773999999999999844e+01
-9.068000000000000682e+01
3.915999999999999659e+01
1.604000000000000057e+02
-2.298300000000000125e+02
-1.237300000000000040e+02
5.611999999999999744e+01
-1.463000000000000078e+01
2.841000000000000014e+01
1.038199999999999932e+02
-2.278000000000000114e+01
-1.078999999999999915e+01
3.782999999999999829e+01
8.070000000000000284e+00
-1.799999999999999933e-01
6.769999999999999574e+00
-3.479999999999999716e+01
-3.010999999999999943e+01
1.011999999999999922e+01
1.095100000000000051e+02
9.990000000000000568e+01
-3.243299999999999841e+02
1.553600000000000136e+02
-5.410000000000000142e+00
6.731000000000000227e+01
-1.589499999999999886e+02
1.295800000000000125e+02
1.296999999999999886e+02
1.111999999999999922e+01
-2.304600000000000080e+02
1.346399999999999864e+02
4.664999999999999858e+01
1.729699999999999989e+02
-2.160800000000000125e+02
1.691000000000000014e+01
1.848999999999999844e+01
9.339999999999999858e+00
8.325000000000000000e+01
-3.071000000000000085e+01
8.220999999999999375e+01
-7.050000000000000000e+01
-4.570000000000000284e+00
-6.167999999999999972e+01
-2.099999999999999922e-01
7.199999999999999734e-01
-2.717000000000000171e+01
1.025999999999999979e+01
-8.060000000000000497e+00
4.617000000000000171e+01
-4.289000000000000057e+01
-4.940999999999999659e+01
1.864999999999999858e+01
9.581999999999999318e+01
1.113400000000000034e+02
-2.358600000000000136e+02
1.246700000000000017e+02
8.175000000000000000e+01
-1.110000000000000000e+02
1.096000000000000085e+01
6.493999999999999773e+01
4.339999999999999858e+00
1.798000000000000043e+01
-1.762999999999999901e+01
-1.080000000000000071e+01
-6.781999999999999318e+01
5.999000000000000199e+01
-2.576999999999999957e+01
-6.418999999999999773e+01
1.217999999999999972e+01
5.600000000000000533e-01
-1.193299999999999983e+02
9.062999999999999545e+01
7.956000000000000227e+01
-3.200000000000000000e+01
-2.330000000000000071e+00
6.534000000000000341e+01
-9.560000000000000497e+00
1.172000000000000064e+01
-2.919999999999999929e+00
-3.682999999999999829e+01
-3.836999999999999744e+01
-6.171999999999999886e+01
6.595000000000000284e+01
7.726999999999999602e+01
-1.100799999999999983e+02
1.129999999999999893e+00
-5.899999999999999689e-01
-2.551000000000000156e+01
-1.086999999999999922e+01
-4.950000000000000000e+01
5.089999999999999858e+00
1.298700000000000045e+02
9.476000000000000512e+01
-5.207999999999999829e+01
-1.754199999999999875e+02
2.201999999999999957e+01
5.385800000000000409e+02
-1.860099999999999909e+02
-1.862500000000000000e+02
-1.325699999999999932e+02
-1.352199999999999989e+02
4.316399999999999864e+02
1.405800000000000125e+02
-4.804999999999999716e+01
-3.497300000000000182e+02
4.607000000000000028e+01
6.604999999999999716e+01
-1.433999999999999986e+01
2.858999999999999986e+01
-1.138199999999999932e+02
9.473000000000000398e+01
1.705900000000000034e+02
-1.038700000000000045e+02
-8.212999999999999545e+01
3.310999999999999943e+01
-5.392000000000000171e+01
2.876000000000000156e+01
-1.454499999999999886e+02
-6.920000000000000284e+01
1.407000000000000028e+01
-4.824000000000000199e+01
-7.682999999999999829e+01
9.281000000000000227e+01
-5.969999999999999751e+00
-1.390000000000000036e+01
-8.880000000000000782e+00
7.700000000000000178e-01
4.870000000000000107e+00
6.639999999999999680e+00
-8.980000000000000426e+00
7.320000000000000284e+00
-5.040000000000000036e+00
-1.031299999999999955e+02
2.431299999999999955e+02
-5.039000000000000057e+01
-5.522999999999999687e+01
-1.008000000000000007e+01
-1.256000000000000050e+01
5.417999999999999972e+01
-3.067000000000000171e+01
4.422999999999999687e+01
5.913000000000000256e+01
-1.849499999999999886e+02
9.709999999999999432e+01
-3.730400000000000205e+02
1.648799999999999955e+02
1.443300000000000125e+02
5.085000000000000142e+01
2.213700000000000045e+02
-8.199999999999999289e+00
2.231100000000000136e+02
-1.605000000000000000e+02
7.001000000000000512e+01
-3.301499999999999773e+02
1.181599999999999966e+02
4.688199999999999932e+02
1.807000000000000028e+01
-2.332899999999999920e+02
-7.001999999999999602e+01
-4.688000000000000256e+01
3.586999999999999744e+01
2.086500000000000057e+02
-1.309699999999999989e+02
-4.010000000000000142e+01
5.207000000000000028e+01
-2.362000000000000099e+01
-4.509999999999999787e+00
1.610000000000000142e+01
3.228000000000000114e+01
6.182000000000000028e+01
-2.448199999999999932e+02
4.235999999999999943e+01
5.135000000000000142e+01
8.119999999999999218e+00
4.086999999999999744e+01
7.969999999999999751e+00
1.830999999999999872e+01
2.999999999999999889e-02
-1.101899999999999977e+02
-1.905900000000000034e+02
7.137999999999999545e+01
7.150000000000000000e+01
1.678799999999999955e+02
-5.420000000000000284e+01
-2.899999999999999911e+00
-8.953000000000000114e+01
-1.189999999999999947e+00
1.215100000000000051e+02
2.991000000000000014e+01
1.119899999999999949e+02
-2.928199999999999932e+02
1.070000000000000000e+02
-1.353700000000000045e+02
5.060000000000000142e+01
1.017199999999999989e+02
3.524000000000000199e+01
-2.919999999999999929e+01
-1.320500000000000114e+02
7.121999999999999886e+01
-5.943999999999999773e+01
-7.875000000000000000e+01
-9.657999999999999829e+01
-1.481800000000000068e+02
1.178400000000000034e+02
1.272800000000000011e+02
-2.368499999999999943e+02
9.165999999999999659e+01
1.053499999999999943e+02
8.269999999999999574e+00
-9.031999999999999318e+01
5.115999999999999659e+01
-9.121999999999999886e+01
2.535099999999999909e+02
-2.579200000000000159e+02
-1.930000000000000071e+01
1.240000000000000036e+01
1.648999999999999844e+01
9.789999999999999147e+00
1.181700000000000017e+02
2.757000000000000028e+01
