1593104418.00
64.000000
-0.00
-0.00
-0.00
-0.00
-0.00
-0.00
-0.00
-0.00
-0.00
-0.00
0.00
0.01
0.01
-0.00
-0.03
-0.05
-0.05
0.00
0.13
0.36
0.66
1.01
1.37
1.72
2.06
2.40
2.79
3.24
3.80
4.42
5.06
5.66
6.20
6.68
7.15
7.68
8.31
9.14
10.09
11.04
11.88
12.56
13.14
13.76
14.65
15.96
17.91
20.32
22.90
25.38
27.58
29.57
31.68
34.32
37.81
42.54
48.15
54.10
59.83
64.97
69.58
74.14
79.34
85.71
93.76
103.00
112.62
121.73
129.77
136.75
143.30
150.75
157.77
166.64
177.95
191.79
206.97
220.57
228.25
225.36
208.53
176.87
132.76
80.05
23.07
-34.94
-92.44
-149.16
-205.23
-260.37
-313.74
-363.87
-409.83
-450.91
-486.50
-515.74
-537.23
-549.22
-549.96
-538.37
-514.21
-478.67
-433.88
-382.45
-327.02
-269.84
-212.63
-156.66
-102.95
-52.37
-5.90
35.58
71.43
101.35
125.50
144.38
158.69
169.15
176.37
180.75
182.57
182.07
179.51
175.23
169.65
163.18
156.15
148.81
141.30
133.69
126.02
118.33
110.69
103.16
95.80
88.68
81.83
75.25
68.95
62.95
57.25
51.86
46.78
42.01
37.57
33.45
29.65
26.15
22.91
19.87
17.02
14.35
11.92
9.78
7.99
6.57
5.45
4.54
3.71
2.89
2.07
1.32
0.72
0.35
0.21
0.23
0.26
0.13
-0.26
-0.88
-1.57
-2.10
-2.25
-1.96
-1.41
-0.95
-0.98
-1.77
-3.23
-4.94
-6.24
-6.59
-5.81
-4.31
-2.91
-2.53
-3.74
-6.40
-9.64
-12.19
-13.03
-11.83
-9.30
-6.89
-6.15
-7.99
-12.14
-17.18
-21.15
-22.59
-21.09
-17.58
-13.87
-11.69
-12.15
-15.62
-21.89
-30.21
-38.82
-44.36
-42.19
-27.98
-0.47
36.54
74.51
103.14
114.99
108.77
89.57
65.72
44.34
28.29
16.18
5.05
-6.68
-17.74
-25.19
-26.79
-22.68
-15.33
-7.84
-2.36
1.06
3.71
7.08
11.96
18.27
25.48
33.16
41.19
49.24
56.45
60.68
59.29
50.10
32.38
7.43
-21.44
-49.72
-72.60
-85.94
-87.09
-75.41
-52.73
-23.45
6.18
29.70
42.49
43.49
35.44
23.54
12.96
6.52
3.84
2.33
-0.76
-6.54
-13.92
-20.61
-24.67
-25.81
-25.36
-24.95
-25.13
-24.65
-21.27
-13.24
-0.94
12.84
23.93
28.49
25.03
15.14
2.80
-7.46
-12.14
-10.02
-1.95
9.84
22.34
32.46
37.61
36.13
27.64
13.56
-3.56
-20.51
-33.49
-41.04
-44.54
-47.15
-51.69
-59.83
-68.96
-74.97
-73.95
-64.01
-46.54
-25.70
-6.60
6.86
13.58
15.88
17.96
24.11
37.02
56.93
81.65
107.54
130.37
145.98
151.01
143.17
122.13
90.18
51.88
13.40
-19.10
-41.13
-51.02
-49.82
-40.65
-27.54
-14.47
-5.05
-2.08
-7.27
-20.92
-41.81
-67.35
-94.23
-119.17
-139.63
-154.08
-161.49
-161.16
-152.75
-136.75
-114.77
-89.38
-63.68
-40.24
-20.07
-1.79
17.38
39.57
64.41
88.54
106.70
113.88
107.47
88.69
62.99
37.84
19.89
12.60
15.84
26.88
41.88
57.17
67.68
68.41
57.56
38.34
16.15
-4.53
-21.04
-32.37
-38.82
-42.23
-42.29
-37.64
-26.86
-9.92
10.80
30.78
45.01
50.29
45.12
32.44
17.65
5.72
-1.69
-6.59
-12.41
-21.02
-30.84
-36.87
-33.72
-20.45
-1.55
16.01
26.87
29.36
25.27
18.12
11.22
6.78
5.30
6.49
9.90
15.27
22.23
29.82
36.07
38.23
34.60
24.08
8.07
-9.62
-24.22
-32.14
-32.50
-27.34
-20.35
-15.02
-13.20
-14.61
-17.53
-20.28
-22.25
-23.91
-26.15
-29.41
-33.37
-36.67
-38.15
-37.22
-34.24
-30.29
-26.72
-24.44
-23.63
-23.77
-24.01
-23.63
-22.36
-20.50
-18.76
-17.88
-18.16
-19.39
-20.91
-21.88
-21.65
-19.90
-16.68
-12.30
-7.14
-1.54
4.34
10.47
16.88
23.51
30.16
36.46
41.89
45.94
48.24
48.73
47.64
45.46
42.71
39.81
36.97
34.19
31.38
28.45
25.47
22.61
20.07
17.92
16.01
14.07
11.82
9.17
6.32
3.66
1.60
0.37
-0.17
-0.47
-1.10
-2.50
-4.74
-7.45
-10.01
-11.79
-12.51
-12.44
-12.32
-13.02
-14.99
-17.88
-20.31
-20.45
-16.85
-9.10
1.84
14.02
25.02
32.61
34.98
31.02
20.64
5.41
-11.01
-23.42
-26.60
-17.53
2.89
29.87
56.57
76.93
87.86
89.64
84.70
75.70
64.37
51.38
37.14
22.38
8.13
-4.75
-15.97
-25.76
-34.31
-41.31
-46.25
-49.00
-50.34
-51.65
-54.03
-57.11
-58.81
-56.08
-46.41
-29.08
-5.48
21.63
49.21
74.63
95.51
109.25
113.02
104.46
83.11
51.46
14.81
-20.22
-47.79
-64.51
-69.92
-65.76
-54.76
-39.75
-23.20
-7.25
6.35
16.47
23.04
26.90
29.39
31.41
32.90
32.80
29.79
23.23
13.83
3.47
-5.66
-12.26
-16.66
-20.65
-26.30
-34.56
-44.32
-52.64
-56.00
-51.79
-39.42
-20.53
1.85
24.18
43.38
57.46
65.90
69.90
72.14
75.97
83.86
95.79
108.44
116.05
112.73
95.36
65.56
29.61
-3.56
-25.80
-32.72
-25.32
-9.35
6.97
15.98
13.42
0.10
-18.10
-32.24
-33.83
-18.62
11.02
46.51
75.92
88.45
78.26
46.28
-0.81
-53.22
-101.01
-136.33
-154.45
-154.14
-137.70
-110.68
-81.07
-57.49
-46.86
-52.37
-72.82
-103.17
-136.37
-165.13
-183.53
-187.95
-177.51
-154.42
-123.69
-92.13
-66.67
-52.30
-50.27
-57.81
-69.33
-78.71
-81.84
-77.94
-69.00
-57.73
-45.67
-32.45
-16.78
1.89
22.26
41.20
55.27
62.38
62.88
58.93
53.23
47.64
42.51
37.52
31.76
24.17
13.81
0.36
-15.63
-32.77
-49.11
-62.65
-71.39
-75.03
-75.08
-74.12
-74.05
-75.35
-77.33
-79.01
-79.85
-78.69
-75.12
-69.41
-62.02
-52.43
-39.16
-20.38
5.86
41.29
88.56
147.57
213.53
276.75
326.01
352.35
352.12
328.64
280.82
217.02
152.39
101.01
66.54
42.94
20.55
-8.89
-47.08
-90.26
-129.87
-157.92
-165.44
-147.81
-105.00
-42.28
28.88
93.61
137.79
153.93
142.41
111.57
74.57
44.66
29.53
26.94
27.52
21.06
3.70
-20.45
-41.62
-49.71
-39.84
-9.96
32.29
73.30
103.28
122.95
138.61
153.46
166.27
169.66
157.32
127.21
83.49
34.63
-11.26
-47.42
-72.27
-88.51
-100.03
-108.48
-113.28
-112.09
-103.05
-87.19
-68.93
-54.30
-46.84
-45.60
-45.16
-39.87
-27.42
-11.34
-0.41
-4.67
-30.08
-73.62
-122.90
-159.67
-167.25
-137.23
-73.19
9.80
90.47
148.49
171.39
157.84
116.98
64.03
14.86
-18.51
-30.50
-22.20
-0.09
26.40
47.52
55.70
47.14
22.17
-15.20
-58.79
-101.83
-138.42
-164.15
-176.70
-176.16
-165.22
-148.74
-132.49
-121.49
-118.06
-121.09
-126.73
-130.24
-128.00
-118.66
-103.10
-83.45
-62.24
-41.70
-23.67
-9.43
0.44
6.40
9.96
13.04
17.15
22.55
28.27
32.82
35.26
35.88
36.00
37.18
40.10
44.11
47.57
48.80
47.11
43.23
38.97
36.31
36.44
39.24
43.44
47.24
49.15
48.54
45.79
42.13
39.18
38.45
40.66
45.54
51.66
56.97
59.50
58.08
52.72
44.52
35.04
25.58
16.82
8.71
0.91
-6.83
-14.29
-20.90
-25.97
-28.98
-29.87
-28.91
-26.57
-23.31
-19.34
-14.68
-9.24
-3.02
3.72
10.54
16.96
22.81
28.31
34.02
40.28
46.83
52.48
55.56
54.61
49.19
40.17
29.50
19.43
11.67
6.89
4.74
4.33
4.66
5.09
5.37
5.57
5.87
6.41
7.24
8.23
9.19
9.93
10.38
10.57
10.66
10.81
11.15
11.74
12.59
13.71
15.04
16.48
17.88
19.12
20.21
21.35
22.87
25.05
27.93
31.17
34.05
35.71
35.42
32.98
28.91
24.36
20.73
19.20
20.37
24.13
29.85
36.72
43.95
51.01
57.62
63.70
69.24
74.23
78.58
82.07
84.35
85.11
84.18
81.63
77.76
72.95
67.46
61.33
54.46
46.76
38.31
29.42
20.63
12.67
6.34
2.30
0.79
1.27
2.28
1.70
-2.74
-12.68
-28.35
-48.39
-70.19
-90.75
-107.76
-120.32
-128.97
-135.05
-139.83
-143.85
-146.88
-148.36
-148.02
-146.22
-143.79
-141.54
-139.73
-137.98
-135.57
-132.00
-127.19
-121.35
-114.52
-106.29
-95.87
-82.62
-66.64
-49.30
-33.10
-20.98
-15.28
-16.70
-23.85
-33.63
-42.34
-47.18
-47.38
-44.37
-40.94
-39.86
-42.50
-48.27
-55.05
-60.27
-62.12
-60.31
-56.24
-52.57
-52.66
-59.69
-75.66
-100.53
-131.33
-162.11
-184.93
-192.23
-179.85
-149.10
-106.96
-63.54
-28.15
-5.63
5.13
9.72
14.89
25.10
41.01
60.17
79.28
96.31
111.18
124.89
138.07
149.99
158.78
162.52
160.42
153.36
143.40
132.83
123.05
114.06
104.81
93.93
80.84
66.13
51.65
39.61
31.47
26.89
23.52
17.85
6.87
-10.19
-31.24
-51.81
-66.83
-72.47
-67.37
-52.74
-31.60
-7.87
14.38
31.40
40.22
39.28
29.06
12.28
-6.65
-22.81
-32.22
-32.82
-24.76
-9.95
8.65
27.87
45.06
58.57
67.95
73.55
76.02
75.65
72.24
65.45
55.57
44.08
33.52
26.62
25.03
28.39
34.20
38.72
38.38
31.08
16.83
-2.52
-23.87
-43.74
-58.83
-66.72
-66.40
-58.71
-46.16
-31.68
-16.73
0.20
23.43
57.91
106.08
165.34
227.62
281.63
316.67
325.99
308.41
267.64
210.59
145.53
80.84
23.92
-19.67
-47.12
-58.85
-58.16
-49.96
-39.37
-30.31
-24.94
-24.08
-27.45
-33.88
-41.34
-47.36
-49.88
-48.18
-42.42
-33.28
-21.85
-9.49
2.25
11.79
17.36
17.39
10.24
-4.02
-23.67
-46.56
-71.04
-95.97
-119.96
-141.38
-158.15
-169.40
-173.73
-169.75
-157.94
-141.34
-125.04
-114.11
-112.62
-121.96
-141.58
-166.09
-186.12
-191.66
-175.15
-133.46
-67.79
15.61
111.09
197.38
248.59
252.93
220.25
171.83
125.44
89.67
58.63
24.42
-18.73
-68.97
-117.67
-155.36
-171.66
-163.51
-133.85
-90.02
-40.58
5.44
42.04
66.79
79.13
79.20
67.57
46.79
21.00
-4.87
-27.72
-45.68
-57.75
-63.71
-64.30
-61.74
-59.06
-59.79
-66.69
-81.00
-100.77
-121.17
-136.25
-142.00
-138.54
-129.38
-119.50
-112.52
-109.29
-107.57
-103.49
-92.85
-73.80
-47.68
-17.99
10.98
34.88
49.65
51.99
40.71
19.89
-3.05
-19.37
-21.42
-4.63
31.11
81.40
138.97
196.17
249.86
298.09
338.13
366.06
378.49
374.50
356.55
330.21
302.50
283.45
278.88
287.61
303.00
317.83
328.23
334.57
339.87
322.50
272.68
196.69
112.59
36.78
-22.70
-64.43
-90.56
-104.99
-110.20
-107.56
-97.82
-83.22
-67.49
-54.14
-45.24
-41.68
-43.61
-51.80
-62.55
-72.14
-79.10
-84.32
-89.46
-95.57
-102.73
-110.21
-116.71
-119.04
-114.88
-104.30
-89.52
-73.33
-57.87
-44.33
-33.21
-24.63
-17.75
-11.94
-7.22
-3.99
-2.38
-2.07
-2.78
-4.62
-8.26
-14.28
-23.00
-34.28
-47.10
-59.66
-69.80
-75.71
-76.58
-72.86
-66.00
-57.90
-50.32
-44.42
-40.76
-39.34
-39.95
-42.29
-45.92
-50.15
-54.01
-56.40
-56.34
-53.36
-47.67
-40.05
-31.72
-23.97
-17.93
-14.40
-13.78
-15.94
-20.25
-25.62
-30.71
-34.27
-35.42
-33.87
-29.93
-24.38
-18.29
-12.76
-8.77
-6.99
-7.72
-10.75
-15.36
-20.56
-25.27
-28.71
-30.55
-30.95
-30.27
-28.77
-26.33
-22.39
-16.35
-7.90
2.64
14.32
25.89
36.27
44.83
51.33
55.71
57.85
57.52
54.66
49.55
42.95
35.92
29.51
24.40
20.80
18.52
17.18
16.27
15.26
13.67
11.14
7.55
3.11
-1.66
-6.16
-9.93
-12.77
-14.80
-16.29
-17.49
-18.59
-19.72
-21.04
-22.68
-24.74
-27.22
-29.95
-32.63
-34.87
-36.19
-36.15
-34.33
-30.52
-24.88
-18.06
-11.12
-5.25
-1.38
0.08
-0.77
-3.55
-7.96
-13.87
-21.26
-29.90
-39.25
-48.45
-56.65
-63.22
-67.92
-70.79
-71.93
-71.32
-68.94
-64.97
-59.91
-54.61
-50.03
-47.00
-46.08
-47.52
-51.35
-57.44
-65.45
-74.78
-84.60
-94.04
-102.46
-109.74
-116.28
-122.83
-130.15
-138.71
-148.62
-159.59
-171.02
-181.80
-190.25
-194.20
-191.32
-179.83
-159.02
-129.44
-92.50
-49.98
-3.65
44.44
91.57
134.04
167.74
189.32
197.55
193.96
182.29
167.03
151.82
138.48
127.15
117.26
108.59
101.66
97.46
96.78
99.57
104.87
111.23
117.24
121.99
125.25
127.18
128.08
128.15
127.37
125.64
122.84
119.05
114.46
109.26
103.51
96.95
89.19
79.73
68.40
55.50
41.91
28.84
17.55
8.88
3.06
-0.26
-1.91
-2.82
-3.89
-5.79
-8.91
-13.35
-18.87
-24.94
-30.84
-35.88
-39.52
-41.65
-42.50
-42.61
-42.51
-42.51
-42.55
-42.22
-40.97
-38.34
-34.24
-28.99
-23.20
-17.54
-12.46
-8.07
-4.12
-0.14
4.29
9.35
14.96
20.76
26.19
30.62
33.40
33.91
31.75
26.83
19.56
10.72
1.32
-7.72
-15.76
-22.53
-27.98
-32.16
-35.01
-36.43
-36.33
-34.87
-32.49
-29.88
-27.77
-26.76
-27.07
-28.48
-30.40
-32.04
-32.66
-31.77
-29.33
-25.69
-21.44
-17.18
-13.33
-10.04
-7.26
-4.88
-2.92
-1.54
-0.95
-1.16
-1.93
-2.72
-2.94
-2.28
-0.77
1.20
3.16
4.82
6.18
7.43
8.65
9.61
9.78
8.47
5.27
0.19
-6.19
-12.89
-18.84
-23.15
-25.34
-25.27
-23.07
-18.96
-13.14
-5.81
2.72
11.95
21.18
29.57
36.35
41.00
43.29
43.30
41.27
37.54
32.51
26.71
20.83
15.65
11.91
10.05
10.12
11.73
14.24
16.89
18.99
19.93
19.22
16.50
11.66
5.02
-2.63
-10.07
-15.93
-19.09
-18.95
-15.60
-9.83
-2.90
3.69
8.57
10.80
10.09
6.94
2.43
-2.12
-5.61
-7.64
-8.57
-9.30
-10.72
-13.14
-15.88
-17.38
-15.75
-9.74
0.43
12.72
23.71
29.77
28.47
19.66
5.51
-10.38
-24.53
-34.78
-40.53
-42.22
-40.23
-34.07
-22.49
-4.10
21.77
54.95
94.43
138.37
183.59
224.84
254.61
264.21
246.41
198.59
124.85
35.72
-54.66
-132.86
-189.94
-223.26
-235.81
-233.85
-224.17
-212.06
-200.66
-191.25
-183.98
-178.51
-174.13
-169.67
-163.18
-152.33
-135.39
-112.42
-85.99
-60.75
-41.86
-32.58
-32.92
-39.65
-48.01
-53.94
-55.86
-54.94
-53.71
-54.03
-55.40
-55.11
-49.63
-36.51
-15.66
10.55
38.39
64.29
86.13
104.02
119.23
132.96
145.42
155.81
162.94
165.95
164.84
160.50
155.21
150.73
147.34
143.99
139.41
133.12
125.61
118.00
111.21
107.46
107.40
109.29
109.92
106.74
99.48
89.89
80.64
73.86
73.48
80.90
93.82
107.44
117.54
122.75
124.35
125.12
128.20
140.60
167.13
207.53
256.10
304.45
344.67
370.86
380.24
347.25
263.09
141.67
13.28
-95.79
-175.78
-229.91
-265.60
-288.51
-301.19
-300.17
-283.36
-253.34
-216.97
-181.50
-150.98
-127.05
-109.95
-99.68
-93.02
-87.06
-80.55
-73.49
-65.27
-53.69
-36.11
-11.09
20.57
55.87
89.06
112.24
118.29
104.47
74.00
34.22
-6.84
-43.51
-72.77
-94.27
-108.91
-117.36
-119.37
-114.58
-103.96
-90.37
-77.60
-68.42
-63.51
-61.63
-60.61
-58.70
-55.35
-51.41
-48.35
-47.34
-48.61
-51.28
-53.94
-55.27
-54.65
-52.33
-49.22
-46.34
-44.35
-43.28
-42.47
-40.96
-37.89
-32.95
-26.41
-19.11
-12.07
-6.18
-1.96
0.54
1.61
1.72
1.34
0.80
0.24
-0.35
-1.08
-2.00
-3.12
-4.33
-5.48
-6.43
-7.11
-7.53
-7.74
-7.78
-7.68
-7.42
-6.95
-6.26
-5.38
-4.42
-3.55
-3.01
-3.04
-3.80
-5.30
-7.34
-9.60
-11.72
-13.40
-14.52
-15.10
-15.32
-15.32
-15.23
-15.06
-14.77
-14.31
-13.65
-12.86
-12.10
-11.60
-11.51
-11.89
-12.63
-13.47
-14.13
-14.36
-14.02
-13.09
-11.61
-9.64
-7.20
-4.27
-0.91
2.81
6.70
10.52
13.97
16.78
18.82
20.05
20.67
20.92
21.06
21.18
21.25
21.11
20.63
19.77
18.63
17.37
16.18
15.16
14.32
13.61
12.96
12.27
11.52
10.68
9.77
8.84
7.90
6.95
5.98
4.97
3.93
2.89
1.81
0.66
-0.64
-2.11
-3.70
-5.30
-6.74
-7.92
-8.77
-9.33
-9.65
-9.84
-10.07
-10.58
-11.61
-13.29
-15.47
-17.69
-19.27
-19.61
-18.41
-15.80
-12.25
-8.37
-4.65
-1.35
1.55
4.19
6.74
9.23
11.57
13.60
15.15
16.11
16.50
16.47
16.17
15.78
15.39
15.09
14.88
14.74
14.62
14.47
14.25
13.94
13.53
13.02
12.37
11.53
10.48
9.31
8.15
7.19
6.47
5.97
5.49
4.89
4.07
3.09
2.02
0.95
-0.13
-1.24
-2.40
-3.52
-4.52
-5.31
-5.93
-6.49
-7.22
-8.28
-9.81
-11.77
-13.96
-16.03
-17.54
-18.09
-17.47
-15.73
-13.15
-10.10
-6.87
-3.57
-0.17
3.36
6.92
10.29
13.16
15.33
16.80
17.73
18.34
18.76
19.02
19.02
18.67
17.95
16.96
15.89
14.97
14.37
14.18
14.33
14.61
14.79
14.62
13.95
12.82
11.34
9.69
7.99
6.37
4.85
3.51
2.36
1.41
0.57
-0.30
-1.34
-2.65
-4.23
-5.99
-7.75
-9.37
-10.74
-11.85
-12.76
-13.62
-14.63
-15.91
-17.52
-19.36
-21.20
-22.69
-23.44
-23.14
-21.65
-19.06
-15.71
-12.09
-8.66
-5.72
-3.32
-1.30
0.57
2.44
4.27
5.94
7.22
7.98
8.21
8.02
7.60
7.17
6.88
6.83
7.01
7.31
7.60
7.76
7.71
7.46
7.06
6.54
5.97
5.37
4.81
4.34
3.95
3.59
3.14
2.50
1.63
0.61
-0.43
-1.37
-2.16
-2.86
-3.52
-4.19
-4.89
-5.58
-6.32
-7.24
-8.48
-10.14
-12.16
-14.31
-16.23
-17.54
-17.92
-17.21
-15.43
-12.78
-9.57
-6.19
-2.90
0.11
2.83
5.37
7.76
10.01
11.99
13.57
14.62
15.16
15.27
15.09
14.76
14.37
14.00
13.73
13.54
13.42
13.29
13.02
12.53
11.81
10.91
9.97
9.11
8.37
7.70
7.03
6.25
5.35
4.37
3.34
2.30
1.21
0.00
-1.39
-2.95
-4.62
-6.26
-7.76
-9.08
-10.22
-11.27
-12.28
-13.32
-14.44
-15.70
-17.16
-18.84
-20.67
-22.44
-23.90
-24.71
-24.64
-23.57
-21.55
-18.79
-15.56
-12.14
-8.74
-5.50
-2.49
0.23
2.64
4.70
6.45
7.94
9.18
10.16
10.80
11.04
10.91
10.55
10.22
10.15
10.45
11.06
11.75
12.27
12.45
12.27
11.81
11.24
10.68
10.20
9.84
9.57
9.30
8.97
8.46
7.68
6.64
5.40
4.13
2.99
2.10
1.43
0.91
0.33
-0.47
-1.57
-2.94
-4.41
-5.78
-6.89
-7.72
-8.40
-9.13
-10.14
-11.53
-13.26
-15.09
-16.64
-17.55
-17.54
-16.53
-14.66
-12.22
-9.48
-6.62
-3.68
-0.60
2.63
5.90
8.95
11.48
13.25
14.25
14.65
14.75
14.79
14.88
14.93
14.81
14.42
13.78
13.04
12.41
12.02
11.92
12.02
12.15
12.11
11.78
11.10
10.15
9.07
8.02
7.15
6.53
6.10
5.74
5.27
4.60
3.69
2.66
1.62
0.70
-0.06
-0.75
-1.47
-2.34
-3.39
-4.60
-5.86
-7.13
-8.33
-9.44
-10.48
-11.45
-12.44
-13.56
-14.96
-16.66
-18.54
-20.22
-21.23
-21.11
-19.63
-16.93
-13.42
-9.62
-5.98
-2.71
0.19
2.87
5.46
7.97
10.22
12.02
13.18
13.72
13.79
13.61
13.38
13.14
12.84
12.38
11.74
11.02
10.38
9.97
9.81
9.82
9.84
9.75
9.49
9.05
8.44
7.67
6.72
5.60
4.38
3.12
1.86
0.65
-0.53
-1.69
-2.82
-3.93
-5.01
-6.06
-7.08
-8.08
-9.08
-10.06
-11.05
-12.03
-12.98
-13.88
-14.71
-15.50
-16.31
-17.17
-18.07
-18.84
-19.24
-19.00
-17.93
-15.98
-13.26
-9.99
-6.48
-2.98
0.27
3.12
5.51
7.48
9.06
10.32
11.29
11.96
12.32
12.35
12.08
11.57
10.93
10.30
9.80
9.46
9.23
8.97
8.55
7.92
7.14
6.36
5.73
5.33
5.09
4.82
4.37
3.64
2.61
1.36
0.00
-1.34
-2.56
-3.61
-4.49
-5.23
-5.93
-6.66
-7.48
-8.39
-9.43
-10.57
-11.80
-13.04
-14.18
-15.15
-15.93
-16.62
-17.41
-18.43
-19.63
-20.78
-21.47
-21.33
-20.13
-17.86
-14.73
-11.04
-7.13
-3.29
0.27
3.39
5.96
7.94
9.40
10.40
11.07
11.54
11.88
12.19
12.50
12.78
12.97
12.97
12.69
12.16
11.48
10.82
10.33
10.04
9.91
9.74
9.36
8.62
7.58
6.36
5.19
4.25
3.56
3.01
2.40
1.54
0.43
-0.79
-1.87
-2.63
-3.01
-3.18
-3.37
-3.78
-4.50
-5.46
-6.54
-7.61
-8.65
-9.68
-10.78
-12.05
-13.50
-15.13
-16.82
-18.40
-19.62
-20.28
-20.19
-19.26
-17.50
-14.98
-11.91
-8.50
-5.01
-1.63
1.50
4.31
6.76
8.81
10.40
11.54
12.25
12.65
12.85
12.96
13.01
12.97
12.81
12.47
11.99
11.40
10.78
10.23
9.82
9.61
9.59
9.66
9.69
9.56
9.14
8.45
7.57
6.63
5.80
5.14
4.66
4.29
3.90
3.40
2.74
1.94
1.08
0.25
-0.50
-1.18
-1.88
-2.68
-3.65
-4.77
-5.95
-7.06
-7.95
-8.62
-9.17
-9.82
-10.78
-12.21
-14.03
-16.00
-17.79
-19.05
-19.57
-19.23
-18.06
-16.14
-13.57
-10.53
-7.20
-3.86
-0.76
1.91
4.11
5.94
7.58
9.11
10.57
11.80
12.68
13.09
13.08
12.75
12.28
11.75
11.23
10.70
10.15
9.63
9.22
8.97
8.89
8.88
8.84
8.64
8.23
7.65
7.01
6.41
5.93
5.53
5.14
4.69
4.15
3.56
2.96
2.38
1.80
1.16
0.42
-0.45
-1.46
-2.63
-3.98
-5.47
-7.01
-8.43
-9.58
-10.47
-11.22
-12.06
-13.17
-14.58
-16.14
-17.61
-18.74
-19.38
-19.46
-18.93
-17.75
-15.90
-13.39
-10.35
-6.96
-3.47
-0.12
2.88
5.42
7.42
8.90
9.92
10.60
11.06
11.37
11.63
11.87
12.15
12.50
12.88
13.20
13.33
13.15
12.68
12.02
11.33
10.71
10.17
9.63
8.99
8.19
7.29
6.41
5.64
5.06
4.59
4.08
3.31
2.16
0.66
-0.98
-2.45
-3.43
-3.78
-3.65
-3.38
-3.42
-4.04
-5.30
-6.98
-8.70
-10.16
-11.19
-11.89
-12.47
-13.19
-14.19
-15.46
-16.85
-18.09
-18.89
-19.01
-18.32
-16.82
-14.58
-11.81
-8.74
-5.62
-2.61
0.16
2.68
4.91
6.82
8.31
9.31
9.81
9.94
9.88
9.81
9.85
9.95
10.00
9.86
9.50
8.96
8.33
7.70
7.12
6.62
6.23
6.05
6.11
6.39
6.74
6.96
6.86
6.38
5.64
4.81
4.04
3.34
2.65
1.90
1.06
0.25
-0.42
-0.88
-1.24
-1.64
-2.29
-3.23
-4.37
-5.52
-6.52
-7.28
-7.89
-8.49
-9.26
-10.35
-11.79
-13.47
-15.13
-16.36
-16.78
-16.09
-14.29
-11.60
-8.45
-5.27
-2.34
0.29
2.69
4.95
7.04
8.84
10.17
10.92
11.18
11.15
11.10
11.21
11.48
11.81
11.97
11.84
11.38
10.70
9.98
9.43
9.13
9.05
9.06
9.00
8.76
8.30
7.68
6.95
6.16
5.30
4.39
3.45
2.55
1.75
1.06
0.39
-0.38
-1.35
-2.50
-3.67
-4.65
-5.31
-5.65
-5.87
-6.22
-6.86
-7.83
-9.02
-10.26
-11.42
-12.48
-13.55
-14.75
-16.15
-17.63
-18.89
-19.60
-19.44
-18.31
-16.33
-13.78
-10.98
-8.15
-5.42
-2.80
-0.29
2.10
4.29
6.19
7.74
8.91
9.67
9.98
9.92
9.60
9.21
8.96
8.90
8.97
9.07
9.10
9.10
9.20
9.49
9.95
10.39
10.55
10.24
9.45
8.36
7.24
6.31
5.63
5.13
4.69
4.16
3.51
2.78
2.06
1.39
0.75
0.06
-0.73
-1.61
-2.52
-3.36
-4.08
-4.74
-5.42
-6.20
-7.06
-7.87
-8.51
-8.98
-9.46
-10.22
-11.45
-13.16
-15.08
-16.74
-17.64
-17.46
-16.15
-13.90
-11.10
-8.14
-5.31
-2.71
-0.37
1.79
3.79
5.63
7.25
8.60
9.68
10.53
11.17
11.57
11.71
11.53
11.10
10.55
10.03
9.63
9.31
8.97
8.48
7.84
7.14
6.52
6.11
5.88
5.73
5.54
5.22
4.72
4.08
3.35
2.52
1.62
0.68
-0.21
-0.95
-1.47
-1.82
-2.10
-2.48
-3.08
-3.85
-4.66
-5.35
-5.89
-6.40
-7.14
-8.31
-9.95
-11.86
-13.68
-15.14
-16.05
-16.43
-16.35
-15.86
-14.89
-13.35
-11.18
-8.48
-5.46
-2.43
0.34
2.69
4.52
5.85
6.73
7.26
7.57
7.82
8.10
8.46
8.85
9.15
9.26
9.15
8.90
8.66
8.57
8.66
8.85
8.98
8.91
8.60
8.11
7.56
7.05
6.59
6.14
5.61
4.98
4.26
3.50
2.69
1.78
0.68
-0.62
-2.05
-3.44
-4.64
-5.57
-6.27
-6.86
-7.45
-8.11
-8.81
-9.49
-10.19
-10.98
-12.05
-13.49
-15.31
-17.32
-19.18
-20.54
-21.09
-20.66
-19.24
-16.99
-14.21
-11.14
-8.07
-5.15
-2.48
-0.11
1.96
3.74
5.21
6.38
7.25
7.85
8.22
8.43
8.56
8.61
8.60
8.51
8.32
8.10
7.95
7.99
8.26
8.61
8.82
8.67
8.10
7.27
6.51
6.09
6.10
6.40
6.64
6.47
5.74
4.57
3.24
2.09
1.30
0.87
0.62
0.30
-0.24
-1.02
-1.94
-2.87
-3.73
-4.58
-5.53
-6.71
-8.09
-9.56
-10.96
-12.21
-13.33
-14.43
-15.60
-16.76
-17.70
-18.11
-17.75
-16.52
-14.53
-12.03
-9.29
-6.50
-3.73
-0.99
1.79
4.56
7.13
9.25
10.61
11.11
10.90
10.36
9.94
9.93
10.29
10.74
10.94
10.74
10.29
9.91
9.88
10.26
10.80
11.12
10.96
10.30
9.36
8.46
7.82
7.48
7.33
7.19
6.90
6.39
5.64
4.68
3.63
2.61
1.75
1.12
0.66
0.22
-0.39
-1.25
-2.33
-3.49
-4.56
-5.45
-6.21
-6.91
-7.68
-8.54
-9.48
-10.50
-11.68
-13.09
-14.68
-16.22
-17.29
-17.45
-16.40
-14.21
-11.24
-8.00
-4.91
-2.16
0.34
2.74
5.09
7.26
8.97
9.98
10.24
9.97
9.56
9.32
9.39
9.61
9.73
9.49
8.82
7.87
6.93
6.26
6.00
6.14
6.50
6.88
7.10
7.03
6.64
5.93
4.99
3.96
3.01
2.25
1.70
1.28
0.81
0.15
-0.74
-1.79
-2.94
-4.11
-5.32
-6.61
-8.00
-9.43
-10.81
-12.04
-13.14
-14.20
-15.32
-16.54
-17.72
-18.60
-18.88
-18.35
-16.98
-14.88
-12.27
-9.38
-6.42
-3.52
-0.79
1.74
4.09
6.21
8.05
9.52
10.53
11.08
11.25
11.18
11.06
11.01
11.09
11.25
11.42
11.52
11.52
11.41
11.18
10.79
10.21
9.39
8.39
7.28
6.19
5.22
4.41
3.73
3.12
2.51
1.90
1.34
0.85
0.43
-0.03
-0.62
-1.46
-2.54
-3.76
-5.02
-6.27
-7.54
-8.93
-10.51
-12.29
-14.20
-16.10
-17.84
-19.22
-20.02
-20.06
-19.19
-17.47
-15.06
-12.27
-9.35
-6.45
-3.58
-0.68
2.20
4.91
7.18
8.77
9.58
9.72
9.43
9.01
8.69
8.53
8.51
8.53
8.54
8.48
8.33
8.06
7.64
7.08
6.45
5.85
5.40
5.13
5.01
4.93
4.75
4.41
3.90
3.24
2.48
1.68
0.86
0.04
-0.76
-1.52
-2.23
-2.88
-3.50
-4.09
-4.71
-5.46
-6.48
-7.85
-9.54
-11.38
-13.03
-14.14
-14.46
-13.93
-12.66
-10.92
-8.97
-6.96
-4.90
-2.70
-0.30
2.31
4.99
7.51
9.67
11.32
12.43
13.08
13.37
13.44
13.35
13.15
12.88
12.59
12.38
12.29
12.35
12.48
12.54
12.40
11.97
11.22
10.19
8.91
7.46
5.93
4.47
3.25
2.42
1.96
1.75
1.51
1.05
0.22
-0.91
-2.23
-3.58
-4.88
-6.07
-7.10
-7.97
-8.72
-9.50
-10.50
-11.82
-13.40
-14.92
-15.93
-15.98
-14.85
-12.57
-9.47
-5.96
-2.43
0.88
3.83
6.35
8.41
9.97
11.07
11.75
12.08
12.10
11.84
11.31
10.50
9.51
8.50
7.65
7.07
6.79
6.69
6.60
6.40
6.06
5.64
5.20
4.80
4.43
4.07
3.74
3.48
3.28
3.06
2.65
1.88
0.75
-0.56
-1.74
-2.50
-2.78
-2.72
-2.64
-2.81
-3.39
-4.30
-5.41
-6.52
-7.56
-8.54
-9.51
-10.52
-11.61
-12.75
-13.88
-14.88
-15.54
-15.68
-15.12
-13.81
-11.79
-9.22
-6.34
-3.36
-0.55
1.96
4.05
5.69
6.92
7.75
8.22
8.36
8.25
7.98
7.68
7.46
7.35
7.36
7.45
7.64
7.86
8.03
7.99
7.60
6.80
5.73
4.66
3.84
3.38
3.14
2.88
2.36
1.56
0.64
-0.15
-0.65
-0.88
-1.07
-1.45
-2.13
-3.02
-3.86
-4.45
-4.72
-4.77
-4.82
-5.06
-5.60
-6.36
-7.21
-8.01
-8.76
-9.48
-10.29
-11.23
-12.31
-13.49
-14.68
-15.77
-16.57
-16.86
-16.45
-15.17
-13.08
-10.37
-7.37
-4.39
-1.66
0.73
2.80
4.58
6.13
7.46
8.59
9.53
10.26
10.76
10.97
10.90
10.58
10.16
9.75
9.41
9.12
8.80
8.35
7.78
7.18
6.66
6.34
6.21
6.18
6.10
5.86
5.39
4.79
4.18
3.66
3.26
2.90
2.41
1.68
0.70
-0.43
-1.49
-2.32
-2.87
-3.23
-3.58
-4.06
-4.74
-5.57
-6.44
-7.19
-7.76
-8.14
-8.44
-8.91
-9.82
-11.32
-13.32
-15.45
-17.10
-17.73
-17.09
-15.30
-12.87
-10.33
-8.05
-6.04
-4.07
-1.88
0.61
3.22
5.66
7.66
9.17
10.26
11.08
11.68
12.03
12.01
11.57
10.78
9.82
8.89
8.13
7.57
7.18
6.91
6.71
6.57
6.47
6.36
6.21
5.96
5.61
5.16
4.63
4.03
3.35
2.60
1.84
1.15
0.55
0.03
-0.50
-1.15
-1.88
-2.62
-3.21
-3.59
-3.82
-4.11
-4.62
-5.44
-6.49
-7.55
-8.39
-8.92
-9.22
-9.50
-10.03
-10.90
-12.02
-13.10
-13.78
-13.79
-13.01
-11.54
-9.61
-7.46
-5.25
-3.06
-0.88
1.27
3.37
5.38
7.23
8.86
10.17
11.07
11.48
11.41
10.93
10.21
9.41
8.63
7.91
7.28
6.78
6.46
6.35
6.41
6.53
6.54
6.34
5.94
5.41
4.85
4.34
3.94
3.62
3.36
3.12
2.81
2.34
1.58
0.54
-0.66
-1.82
-2.70
-3.22
-3.45
-3.60
-3.90
-4.48
-5.34
-6.34
-7.33
-8.20
-8.95
-9.66
-10.41
-11.26
-12.21
-13.14
-13.87
-14.19
-13.87
-12.75
-10.88
-8.42
-5.71
-3.09
-0.78
1.16
2.79
4.22
5.51
6.64
7.52
8.02
8.11
7.88
7.47
7.09
6.89
6.89
7.00
7.07
6.97
6.66
6.23
5.78
5.46
5.26
5.12
4.91
4.55
4.07
3.52
3.04
2.66
2.35
2.00
1.48
0.70
-0.29
-1.38
-2.38
-3.18
-3.78
-4.25
-4.73
-5.30
-5.96
-6.70
-7.46
-8.24
-9.05
-9.93
-10.87
-11.81
-12.73
-13.58
-14.34
-14.94
-15.26
-15.13
-14.43
-13.07
-11.10
-8.61
-5.78
-2.83
0.02
2.53
4.55
5.97
6.83
7.23
7.34
7.33
7.32
7.32
7.31
7.22
6.96
6.54
6.01
5.53
5.22
5.18
5.35
5.57
5.69
5.60
5.35
5.10
4.97
5.01
5.10
5.02
4.59
3.80
2.76
1.72
0.83
0.16
-0.37
-0.93
-1.58
-2.32
-3.05
-3.68
-4.16
-4.58
-5.01
-5.58
-6.30
-7.15
-8.11
-9.13
-10.22
-11.37
-12.58
-13.80
-14.97
-15.96
-16.62
-16.83
-16.46
-15.49
-13.89
-11.74
-9.15
-6.27
-3.31
-0.48
2.05
4.19
5.89
7.20
8.18
8.92
9.48
9.91
10.23
10.43
10.51
10.44
10.24
9.94
9.58
9.25
8.99
8.83
8.72
8.58
8.33
7.91
7.33
6.68
6.04
5.49
5.06
4.68
4.27
3.75
3.12
2.44
1.80
1.29
0.89
0.54
0.15
-0.37
-1.11
-2.05
-3.08
-4.02
-4.71
-5.07
-5.18
-5.25
-5.54
-6.23
-7.37
-8.81
-10.32
-11.65
-12.60
-13.08
-13.06
-12.55
-11.58
-10.14
-8.28
-6.03
-3.52
-0.90
1.61
3.81
5.56
6.82
7.68
8.26
8.69
9.06
9.42
9.74
9.97
10.05
9.93
9.65
9.29
8.99
8.82
8.76
8.74
8.67
8.53
8.38
8.26
8.14
7.90
7.37
6.47
5.31
4.11
3.12
2.44
2.01
1.63
1.11
0.36
-0.60
-1.69
-2.83
-3.96
-5.04
-6.04
-6.99
-7.93
-8.93
-10.02
-11.22
-12.45
-13.64
-14.72
-15.60
-16.15
-16.17
-15.46
-13.87
-11.47
-8.55
-5.56
-2.89
-0.74
0.93
2.35
3.72
5.13
6.49
7.60
8.35
8.72
8.83
8.85
8.87
8.91
8.83
8.54
8.00
7.27
6.49
5.80
5.28
4.92
4.68
4.47
4.23
3.90
3.45
2.82
1.99
0.97
-0.16
-1.28
-2.27
-3.06
-3.65
-4.09
-4.42
-4.72
-5.07
-5.54
-6.19
-7.04
-8.04
-9.06
-10.03
-10.94
-11.91
-13.07
-14.45
-15.91
-17.15
-17.83
-17.75
-16.88
-15.38
-13.38
-11.05
-8.41
-5.58
-2.73
-0.12
2.00
3.54
4.54
5.18
5.65
6.03
6.35
6.60
6.85
7.15
7.59
8.10
8.54
8.69
8.45
7.89
7.22
6.72
6.51
6.58
6.71
6.68
6.35
5.71
4.90
4.08
3.36
2.74
2.14
1.46
0.66
-0.24
-1.12
-1.83
-2.31
-2.60
-2.85
-3.26
-3.95
-4.93
-6.08
-7.23
-8.21
-8.99
-9.59
-10.11
-10.56
-10.93
-11.04
-10.73
-9.90
-8.49
-6.56
-4.24
-1.64
1.12
3.88
6.48
8.75
10.54
11.81
12.59
13.00
13.15
13.10
12.88
12.54
12.14
11.73
11.39
11.11
10.86
10.59
10.25
9.83
9.37
8.87
8.35
7.83
7.35
6.94
6.58
6.19
5.64
4.86
3.81
2.61
1.43
0.41
-0.39
-1.03
-1.66
-2.46
-3.54
-4.95
-6.59
-8.27
-9.81
-11.11
-12.22
-13.27
-14.41
-15.62
-16.72
-17.44
-17.49
-16.73
-15.22
-13.15
-10.70
-8.03
-5.21
-2.34
0.44
2.92
4.95
6.45
7.45
8.08
8.51
8.86
9.17
9.42
9.55
9.50
9.18
8.44
7.36
6.20
5.37
5.14
5.52
6.23
6.73
6.29
4.39
1.24
-2.22
-4.69
-5.34
-4.20
-2.15
-0.49
-0.59
-3.10
-7.31
-11.54
-13.91
-13.53
-10.77
-6.71
-2.27
2.23
7.20
13.73
22.79
34.78
49.40
66.58
87.22
113.10
145.17
176.72
196.23
193.19
165.98
122.31
73.89
31.21
1.14
-17.31
-26.68
-29.51
-28.02
-23.67
-18.23
-12.67
-9.99
-13.66
-26.64
-49.51
-79.72
-112.21
-140.44
-158.83
-164.84
-159.95
-148.20
-134.47
-122.04
-111.98
-104.27
-97.83
-91.67
-85.31
-79.44
-74.90
-72.30
-71.25
-70.89
-71.34
-72.66
-74.65
-76.53
-77.65
-76.98
-73.30
-64.95
-45.93
-16.67
15.97
43.64
62.84
74.74
84.23
93.65
102.83
110.07
112.77
110.25
101.55
89.26
76.63
66.17
58.73
54.00
50.91
47.62
43.13
37.66
32.50
28.52
25.86
24.07
22.86
22.10
21.40
20.53
19.59
19.03
18.88
18.71
17.81
15.73
12.45
8.26
3.99
0.69
-0.58
0.34
2.69
5.10
6.32
5.66
3.09
-0.81
-5.19
-9.15
-12.13
-13.83
-14.13
-12.98
-10.52
-7.22
-3.91
-1.56
-0.81
-1.79
-3.93
-6.17
-7.44
-7.10
-5.21
-2.49
0.02
1.36
1.04
-0.78
-3.52
-6.43
-8.98
-10.93
-12.39
-13.64
-14.85
-16.02
-16.90
-17.12
-16.38
-14.62
-12.11
-9.28
-6.63
-4.39
-2.57
-0.91
0.84
2.86
5.11
7.42
9.60
11.53
13.13
14.24
14.68
14.17
12.59
10.04
7.01
4.15
2.14
1.41
2.01
3.57
5.42
6.77
6.93
5.53
2.68
-1.06
-4.84
-7.81
-9.47
-9.75
-8.99
-7.79
-6.70
-6.06
-5.96
-6.31
-6.88
-7.44
-7.76
-7.71
-7.24
-6.47
-5.63
-5.05
-4.96
-5.50
-6.61
-8.09
-9.67
-11.10
-12.16
-12.76
-12.84
-12.40
-11.47
-10.06
-8.16
-5.78
-3.01
-0.02
2.93
5.58
7.76
9.33
10.28
10.61
10.36
9.64
8.66
7.63
6.74
6.04
5.45
4.80
3.91
2.68
1.15
-0.59
-2.33
-3.83
-4.79
-4.93
-4.13
-2.54
-0.54
1.43
3.03
4.18
5.02
5.72
6.33
6.69
6.54
5.74
4.35
2.67
1.11
-0.04
-0.67
-0.88
-0.86
-0.81
-0.88
-1.18
-1.84
-2.93
-4.44
-6.24
-8.07
-9.59
-10.56
-10.87
-10.57
-9.80
-8.74
-7.50
-6.14
-4.70
-3.16
-1.53
0.18
1.97
3.87
5.84
7.84
9.77
11.54
13.07
14.35
15.40
16.28
17.03
17.69
18.20
18.48
18.46
18.09
17.41
16.48
15.41
14.30
13.11
11.78
10.20
8.46
6.73
5.15
3.73
2.34
0.76
-1.17
-3.45
-5.82
-7.80
-8.97
-9.24
-8.86
-8.20
-7.62
-7.33
-7.37
-7.71
-8.06
-8.27
-8.58
-9.32
-10.57
-11.96
-12.87
-12.74
-11.38
-8.52
-4.58
-0.73
1.67
2.13
1.37
0.85
1.97
5.41
11.69
20.10
28.55
34.52
36.56
34.76
30.34
25.12
21.35
22.89
33.02
52.50
78.89
107.33
131.80
146.80
149.08
131.10
93.42
46.18
3.35
-26.83
-44.43
-53.83
-59.01
-61.64
-61.73
-57.83
-49.99
-40.57
-33.18
-30.14
-31.59
-35.76
-40.28
-43.42
-43.72
-41.28
-37.94
-36.84
-39.55
-46.23
-55.75
-66.28
-75.96
-82.32
-83.41
-78.51
-68.31
-54.43
-39.23
-25.23
-14.73
-9.58
-10.32
-16.59
-27.80
-43.34
-62.39
-83.84
-106.35
-125.77
-138.65
-142.39
-136.12
-120.96
-99.71
-75.66
-51.60
-29.02
-8.18
10.99
28.56
44.22
57.26
66.96
73.03
75.85
76.45
76.16
75.90
76.19
77.05
78.17
79.17
79.82
80.07
79.96
79.43
78.11
75.51
71.31
65.53
58.65
51.50
44.95
39.55
35.46
32.32
29.57
26.68
23.34
19.51
15.35
11.10
7.04
3.34
0.11
-2.67
-5.07
-7.20
-9.19
-11.21
-13.39
-15.88
-18.71
-21.81
-24.93
-27.71
-29.71
-30.59
-30.21
-28.65
-26.25
-23.46
-20.74
-18.44
-16.70
-15.47
-14.57
-13.78
-12.89
-11.81
-10.49
-8.88
-6.93
-4.57
-1.77
1.34
4.54
7.49
9.91
11.60
12.54
12.85
12.81
12.76
13.03
13.88
15.40
17.51
19.95
22.36
24.42
25.89
26.69
26.86
26.57
26.05
25.51
25.04
24.60
23.97
22.91
21.20
18.81
15.85
12.52
9.05
5.59
2.31
-0.60
-2.91
-4.44
-5.15
-5.27
-5.25
-5.67
-7.01
-9.40
-12.58
-15.84
-18.39
-19.57
-19.16
-17.44
-15.01
-12.52
-10.36
-8.59
-6.93
-5.07
-2.81
-0.21
2.48
4.98
6.97
8.31
8.92
8.93
8.56
8.11
7.81
7.75
7.87
8.03
8.15
8.26
8.51
8.98
9.56
10.01
9.99
9.35
8.18
6.78
5.52
4.59
3.96
3.41
2.67
1.56
0.08
-1.63
-3.29
-4.67
-5.59
-6.05
-6.19
-6.20
-6.30
-6.64
-7.32
-8.35
-9.71
-11.31
-13.04
-14.79
-16.43
-17.93
-19.27
-20.47
-21.43
-21.97
-21.78
-20.67
-18.64
-15.92
-12.89
-9.88
-7.12
-4.69
-2.57
-0.66
1.10
2.83
4.62
6.47
8.26
9.69
10.51
10.57
10.04
9.29
8.70
8.50
8.66
8.98
9.16
9.03
8.54
7.86
7.19
6.71
6.44
6.29
6.11
5.69
4.95
3.91
2.83
1.94
1.31
0.84
0.32
-0.41
-1.40
-2.54
-3.65
-4.27
-4.23
-3.84
-3.71
-4.31
-5.74
-7.74
-9.77
-11.36
-11.72
-10.69
-9.02
-7.87
-7.87
-8.83
-9.89
-9.84
-7.88
-2.97
4.84
14.01
22.33
28.29
31.50
32.74
33.70
36.29
43.57
57.62
78.12
102.37
126.43
145.68
156.25
156.15
138.14
102.49
58.86
20.46
-5.18
-18.50
-24.99
-31.72
-42.19
-56.86
-72.71
-85.94
-93.96
-96.17
-89.24
-72.92
-49.38
-22.52
2.89
23.74
38.21
45.35
44.92
37.89
25.66
10.32
-5.89
-21.37
-34.97
-46.74
-57.96
-70.12
-83.79
-98.63
-113.21
-125.77
-135.05
-140.29
-141.46
-139.13
-133.84
-125.62
-114.31
-99.82
-82.69
-64.39
-46.72
-31.18
-18.24
-7.19
3.41
14.52
25.96
36.26
43.48
46.36
45.11
41.33
37.10
33.85
31.76
30.08
27.95
25.15
22.36
20.78
21.28
23.85
27.52
30.69
31.90
30.31
25.88
19.35
11.87
4.64
-1.30
-5.30
-7.13
-6.97
-5.34
-2.92
-0.33
1.96
3.72
4.95
5.74
6.21
6.46
6.55
6.47
6.21
5.63
4.59
2.84
0.21
-3.37
-7.77
-12.54
-16.98
-20.29
-21.79
-21.18
-18.69
-15.07
-11.34
-8.54
-7.34
-7.79
-9.35
-10.98
-11.60
-10.47
-7.47
-3.06
1.97
6.93
11.38
15.22
18.37
20.77
22.32
23.14
23.70
24.71
26.79
30.07
34.05
37.78
40.36
41.31
40.73
39.04
36.69
33.88
30.68
27.19
23.77
20.97
19.29
18.92
19.56
20.57
21.18
20.82
19.26
16.56
12.97
8.74
4.06
-0.90
-5.87
-10.50
-14.43
-17.30
-19.01
-19.64
-19.52
-19.17
-19.11
-19.71
-21.01
-22.68
-24.06
-24.43
-23.29
-20.60
-16.75
-12.35
-7.92
-3.65
0.59
5.15
10.37
16.42
23.32
31.02
39.47
48.67
58.63
69.28
80.35
91.33
101.56
110.41
117.54
122.99
127.15
130.60
133.96
137.75
142.35
147.95
154.50
161.45
167.83
172.14
172.80
168.58
159.05
144.80
127.22
107.92
87.96
67.29
44.61
17.83
-15.00
-54.61
-99.81
-147.61
-194.09
-235.77
-270.73
-299.08
-322.46
-342.95
-361.90
-379.27
-393.63
-402.82
-404.86
-398.59
-383.87
-361.42
-332.43
-298.36
-260.90
-221.94
-183.49
-147.30
-114.40
-84.90
-58.08
-32.93
-8.71
14.61
36.44
55.93
72.37
85.46
95.28
102.16
106.49
108.70
109.31
108.91
108.10
107.33
106.72
106.17
105.38
104.11
102.21
99.63
96.46
92.79
88.73
84.40
79.95
75.56
71.38
67.48
63.80
60.19
56.45
52.52
48.44
44.40
40.61
37.22
34.24
31.53
28.91
26.22
23.45
20.66
17.98
15.47
13.07
10.61
7.89
4.84
1.60
-1.52
-4.03
-5.52
-5.80
-4.98
-3.41
-1.56
0.25
1.95
3.78
6.12
9.29
13.27
17.69
21.94
25.38
27.64
28.71
28.89
28.57
28.07
27.54
26.91
26.09
25.07
23.96
22.91
22.06
21.38
20.73
19.96
19.00
17.91
16.85
15.95
15.23
14.57
13.82
12.84
11.65
10.36
9.10
7.95
6.94
6.01
5.18
4.44
3.80
3.18
2.37
1.19
-0.51
-2.67
-5.12
-7.54
-9.70
-11.47
-12.89
-14.11
-15.28
-16.48
-17.60
-18.46
-18.78
-18.31
-16.93
-14.68
-11.74
-8.40
-5.01
-1.79
1.06
3.50
5.56
7.31
8.88
10.29
11.48
12.31
12.66
12.46
11.80
10.93
10.08
9.47
9.13
8.96
8.81
8.56
8.18
7.75
7.40
7.22
7.21
7.28
7.35
7.31
7.12
6.75
6.20
5.46
4.53
3.47
2.41
1.46
0.73
0.16
-0.39
-1.08
-2.02
-3.20
-4.49
-5.76
-6.95
-8.10
-9.30
-10.63
-12.10
-13.67
-15.30
-16.93
-18.55
-20.11
-21.49
-22.52
-23.00
-22.74
-21.61
-19.61
-16.82
-13.46
-9.81
-6.18
-2.86
0.00
2.37
4.34
6.07
7.70
9.26
10.68
11.77
12.36
12.38
11.92
11.23
10.60
10.21
10.09
10.12
10.10
9.93
9.65
9.38
9.27
9.37
9.58
9.74
9.69
9.41
8.97
8.51
8.11
7.70
7.11
6.16
4.78
3.08
1.27
-0.43
-2.00
-3.62
-5.52
-7.86
-10.48
-13.04
-15.11
-16.47
-17.20
-17.67
-18.32
-19.39
-20.87
-22.52
-24.05
-25.28
-26.20
-26.88
-27.34
-27.47
-27.03
-25.83
-23.82
-21.17
-18.13
-15.08
-12.33
-10.12
-8.50
-7.37
-6.51
-5.73
-4.91
-4.07
-3.41
-3.29
-4.11
-5.92
-8.43
-11.14
-13.50
-15.20
-16.08
-16.33
-16.41
-17.07
-18.61
-21.02
-23.70
-25.64
-25.52
-21.55
-12.35
2.44
21.25
41.93
61.62
77.71
88.44
93.34
93.81
91.79
89.03
85.61
81.91
77.60
72.45
66.26
59.10
51.93
45.45
39.98
34.26
28.64
23.83
21.47
23.59
27.22
30.75
34.28
46.04
66.35
93.72
120.36
139.62
146.28
138.21
117.22
87.88
55.90
20.89
-12.17
-38.16
-55.15
-65.37
-71.79
-75.70
-78.32
-78.67
-77.67
-76.26
-77.17
-83.67
-99.15
-122.12
-150.36
-179.47
-203.22
-214.99
-208.56
-182.77
-142.21
-95.72
-51.73
-14.93
15.68
43.95
73.61
105.60
135.80
157.55
165.33
158.16
138.62
110.94
77.62
41.53
7.37
-19.36
-33.60
-34.11
-24.78
-15.21
-16.62
-38.19
-79.57
-130.49
-176.14
-203.51
-207.28
-189.98
-160.44
-116.26
-64.37
-15.20
25.06
53.49
73.44
83.63
81.05
64.77
37.86
5.47
-24.49
-44.98
-53.27
-50.82
-42.41
-26.93
-6.23
14.97
30.68
39.68
45.31
51.21
59.26
68.20
75.62
78.76
76.91
70.97
63.81
58.32
55.04
52.71
49.51
44.10
35.56
24.23
11.03
-2.69
-15.87
-28.61
-40.38
-49.83
-54.90
-54.12
-47.26
-36.02
-23.89
-11.26
-1.64
2.59
1.24
-3.97
-10.74
-17.19
-22.33
-25.94
-28.01
-28.89
-28.19
-25.44
-20.68
-14.65
-8.37
-2.31
3.84
10.95
19.37
29.01
39.00
47.79
53.94
56.57
55.76
52.27
47.13
41.00
34.70
29.16
25.30
23.86
25.00
28.13
31.98
35.05
36.04
34.53
30.90
26.06
20.94
16.13
11.80
7.73
3.60
-0.93
-5.88
-11.05
-16.00
-20.21
-23.27
-24.98
-25.48
-25.15
-24.54
-24.15
-24.36
-25.37
-27.22
-29.98
-33.61
-37.98
-42.72
-47.20
-50.63
-52.48
-52.59
-51.25
-49.05
-46.39
-43.39
-39.82
-35.50
-30.52
-25.43
-20.93
-17.43
-14.70
-11.75
-7.24
0.00
10.30
22.96
36.37
48.64
58.29
64.71
68.17
69.52
69.51
68.26
65.16
59.47
51.10
41.10
31.35
23.64
18.84
16.49
15.13
13.05
9.16
3.31
-4.01
-12.37
-21.90
-32.94
-45.35
-58.31
-70.38
-80.13
-86.68
-90.26
-92.06
-94.22
-98.08
-103.47
-109.13
-113.64
-115.94
-115.43
-111.91
-105.30
-96.53
-85.56
-71.32
-53.08
-31.72
-9.43
11.37
28.95
42.82
51.86
56.77
59.94
63.29
66.61
68.04
65.47
57.27
42.54
18.77
-13.93
-51.60
-88.20
-117.97
-136.45
-141.12
-132.31
-98.86
-45.16
10.17
50.19
71.18
78.71
79.99
79.89
80.11
80.48
78.08
71.91
64.28
58.37
55.55
55.70
58.67
65.09
75.56
87.99
99.18
105.76
103.59
88.01
56.73
12.17
-38.90
-86.83
-123.50
-143.35
-143.52
-125.00
-93.00
-54.48
-12.87
26.66
60.69
87.50
103.32
106.68
99.90
86.75
70.50
53.68
38.06
25.60
17.76
15.17
18.39
27.52
40.99
54.65
63.89
64.22
53.28
31.80
3.21
-28.64
-55.43
-72.61
-81.47
-86.57
-92.70
-102.53
-113.24
-120.93
-123.22
-120.71
-118.04
-121.52
-134.75
-157.29
-183.96
-206.83
-215.54
-204.36
-173.06
-126.55
-72.24
-15.75
39.09
90.08
135.56
173.36
201.83
221.15
233.43
240.22
241.50
233.46
211.36
174.21
127.28
81.40
48.32
35.61
34.25
32.86
20.22
-7.41
-43.92
-78.49
-98.07
-100.31
-86.64
-60.73
-25.72
15.21
54.37
83.68
95.07
83.85
51.35
7.24
-34.02
-57.41
-54.21
-25.16
20.56
68.67
105.83
123.87
122.57
107.05
84.54
60.16
35.39
9.31
-19.59
-50.96
-82.66
-111.37
-135.01
-153.52
-168.44
-181.04
-190.44
-193.68
-187.15
-168.85
-139.53
-102.84
-63.71
-26.45
6.87
37.15
67.32
100.67
138.81
180.36
220.55
252.51
269.50
267.13
244.75
204.95
152.22
91.63
28.28
-32.60
-85.47
-125.16
-148.30
-154.88
-148.66
-135.95
-123.27
-115.02
-112.48
-114.30
-118.17
-122.35
-126.36
-130.70
-136.00
-142.39
-149.44
-156.45
-162.77
-168.06
-172.20
-175.04
-176.21
-175.24
-171.70
-165.62
-157.80
-149.89
-144.12
-142.42
-145.37
-151.36
-156.68
-156.81
-148.31
-130.33
-104.95
-76.21
-48.35
-24.22
-4.61
11.34
25.23
38.56
52.49
68.01
85.91
106.57
129.40
152.53
173.21
188.74
197.51
199.46
195.90
188.78
180.04
171.14
162.78
154.83
146.20
135.11
119.41
97.51
69.25
36.27
1.63
-31.29
-59.91
-83.06
-100.46
-111.96
-116.73
-113.35
-100.56
-78.29
-47.92
-11.57
28.68
71.48
115.77
159.97
201.10
234.87
256.63
262.95
252.80
227.64
190.56
144.59
91.96
34.50
-24.88
-80.96
-126.54
-154.88
-162.83
-152.90
-132.66
-111.24
-95.14
-85.48
-78.44
-68.58
-52.71
-31.65
-9.12
11.23
28.20
43.28
58.66
75.00
90.41
101.63
106.15
103.90
97.25
89.67
83.87
80.55
78.57
75.76
70.21
61.15
49.24
36.44
25.42
18.77
18.24
24.21
35.68
50.82
67.64
84.69
101.23
117.03
132.02
145.94
158.32
168.57
176.11
180.49
181.48
179.14
173.76
165.85
155.83
143.82
129.51
112.35
91.97
68.66
43.63
18.88
-3.32
-21.05
-33.30
-40.03
-41.98
-40.32
-36.30
-31.11
-25.88
-21.71
-19.58
-20.18
-23.67
-29.69
-37.43
-45.92
-54.27
-61.94
-68.71
-74.61
-79.81
-84.42
-88.38
-91.45
-93.22
-93.29
-91.45
-87.82
-82.86
-77.25
-71.64
-66.48
-61.86
-57.64
-53.55
-49.45
-45.42
-41.69
-38.57
-36.29
-34.88
-34.17
-33.83
-33.50
-32.83
-31.62
-29.77
-27.29
-24.22
-20.63
-16.62
-12.34
-8.00
-3.89
-0.34
2.45
4.40
5.66
6.50
7.20
7.93
8.62
9.07
9.06
8.45
7.32
5.90
4.51
3.36
2.48
1.70
0.75
-0.61
-2.50
-4.84
-7.45
-10.09
-12.52
-14.50
-15.80
-16.20
-15.52
-13.66
-10.69
-6.83
-2.42
2.11
6.45
10.30
13.55
16.19
18.26
19.88
21.07
21.80
21.99
21.63
20.77
19.63
18.51
17.64
17.17
17.04
17.10
17.17
17.15
17.04
16.83
16.49
15.89
14.90
13.47
11.70
9.81
8.02
6.44
5.08
3.79
2.49
1.14
-0.21
-1.48
-2.64
-3.75
-4.93
-6.25
-7.71
-9.21
-10.68
-12.11
-13.61
-15.38
-17.58
-20.14
-22.77
-24.98
-26.20
-26.07
-24.47
-21.60
-17.81
-13.54
-9.17
-4.98
-1.17
2.20
5.09
7.55
9.62
11.36
12.74
13.70
14.19
14.21
13.84
13.22
12.47
11.69
10.90
10.15
9.50
9.02
8.74
8.62
8.52
8.33
7.99
7.50
6.93
6.29
5.54
4.57
3.32
1.87
0.36
-1.01
-2.17
-3.18
-4.23
-5.48
-6.99
-8.62
-10.15
-11.35
-12.15
-12.66
-13.17
-13.97
-15.30
-17.16
-19.40
-21.68
-23.56
-24.63
-24.56
-23.20
-20.61
-17.04
-12.90
-8.62
-4.60
-1.07
1.89
4.34
6.35
7.99
9.23
10.07
10.51
10.64
10.59
10.48
10.36
10.21
9.96
9.55
8.93
8.18
7.41
6.75
6.30
6.05
5.95
5.84
5.58
5.01
4.04
2.71
1.13
-0.45
-1.83
-2.88
-3.69
-4.44
-5.37
-6.60
-8.07
-9.60
-10.97
-12.11
-13.06
-13.99
-15.08
-16.36
-17.77
-19.16
-20.38
-21.30
-21.81
-21.74
-20.93
-19.26
-16.70
-13.37
-9.51
-5.43
-1.42
2.21
5.27
7.59
9.11
9.89
10.08
9.87
9.47
8.99
8.51
8.04
7.56
7.06
6.53
5.96
5.36
4.81
4.40
4.20
4.26
4.48
4.70
4.69
4.32
3.56
2.53
1.43
0.39
-0.54
-1.48
-2.56
-3.89
-5.40
-6.94
-8.26
-9.18
-9.69
-9.92
-10.12
-10.48
-11.13
-12.10
-13.37
-14.87
-16.54
-18.27
-19.88
-21.13
-21.77
-21.59
-20.47
-18.39
-15.47
-11.91
-7.99
-4.04
-0.41
2.67
5.09
6.88
8.18
9.15
9.93
10.57
11.06
11.32
11.28
10.91
10.27
9.48
8.70
8.07
7.66
7.45
7.35
7.24
7.04
6.68
6.16
5.45
4.60
3.62
2.54
1.43
0.35
-0.64
-1.49
-2.17
-2.69
-3.15
-3.68
-4.43
-5.49
-6.85
-8.36
-9.82
-11.05
-11.97
-12.60
-13.10
-13.68
-14.55
-15.83
-17.44
-19.13
-20.48
-21.03
-20.42
-18.58
-15.70
-12.18
-8.43
-4.79
-1.42
1.64
4.36
6.71
8.61
10.01
10.94
11.43
11.54
11.34
10.85
10.15
9.31
8.42
7.58
6.86
6.32
6.00
5.91
6.02
6.25
6.48
6.55
6.32
5.73
4.76
3.50
2.08
0.66
-0.61
-1.63
-2.38
-2.94
-3.49
-4.19
-5.14
-6.33
-7.60
-8.75
-9.63
-10.22
-10.66
-11.24
-12.19
-13.67
-15.54
-17.44
-18.93
-19.57
-19.16
-17.72
-15.48
-12.70
-9.63
-6.45
-3.25
-0.18
2.65
5.07
6.99
8.33
9.11
9.37
9.21
8.77
8.23
7.80
7.60
7.69
7.98
8.31
8.49
8.40
8.02
7.49
6.99
6.67
6.57
6.58
6.48
6.07
5.28
4.20
3.03
1.99
1.18
0.55
-0.05
-0.79
-1.73
-2.84
-3.99
-5.09
-6.06
-6.97
-7.88
-8.89
-10.09
-11.49
-13.08
-14.77
-16.43
-17.87
-18.92
-19.45
-19.38
-18.71
-17.47
-15.71
-13.45
-10.74
-7.66
-4.38
-1.09
1.98
4.66
6.86
8.59
9.91
10.89
11.56
11.93
11.98
11.72
11.23
10.61
9.98
9.44
9.04
8.81
8.69
8.61
8.46
8.21
7.85
7.47
7.18
7.06
7.08
7.10
6.93
6.41
5.51
4.39
3.26
2.35
1.76
1.46
1.30
1.09
0.68
-0.00
-0.89
-1.86
-2.75
-3.42
-3.76
-3.74
-3.44
-3.11
-3.11
-3.81
-5.42
-7.82
-10.58
-13.06
-14.71
-15.27
-14.85
-13.81
-12.51
-11.11
-9.56
-7.75
-5.64
-3.41
-1.39
0.11
0.93
1.16
1.04
0.83
0.69
0.69
0.76
0.87
0.97
1.03
1.09
1.17
1.32
1.61
2.06
2.63
3.20
3.62
3.79
3.65
3.24
2.67
2.03
1.38
0.70
-0.07
-1.00
-2.09
-3.27
-4.42
-5.40
-6.16
-6.71
-7.18
-7.73
-8.51
-9.60
-11.01
-12.66
-14.43
-16.18
-17.69
-18.73
-19.08
-18.61
-17.29
-15.26
-12.70
-9.79
-6.68
-3.49
-0.36
2.54
5.03
7.00
8.45
9.47
10.23
10.85
11.40
11.83
12.07
12.03
11.69
11.13
10.46
9.83
9.35
9.09
9.06
9.20
9.38
9.49
9.36
8.92
8.14
7.10
5.95
4.85
3.94
3.22
2.63
2.05
1.40
0.67
-0.10
-0.86
-1.64
-2.48
-3.45
-4.55
-5.75
-6.95
-8.09
-9.15
-10.18
-11.23
-12.38
-13.70
-15.20
-16.81
-18.29
-19.26
-19.32
-18.20
-15.89
-12.72
-9.21
-5.84
-2.93
-0.50
1.63
3.62
5.60
7.50
9.20
10.54
11.45
11.89
11.91
11.61
11.11
10.57
10.12
9.89
9.87
10.00
10.12
10.11
9.91
9.59
9.24
8.97
8.78
8.57
8.17
7.43
6.33
4.98
3.61
2.44
1.62
1.15
0.90
0.72
0.45
-0.02
-0.74
-1.72
-2.93
-4.27
-5.60
-6.74
-7.58
-8.14
-8.53
-8.94
-9.55
-10.44
-11.56
-12.77
-13.87
-14.65
-14.93
-14.57
-13.49
-11.70
-9.26
-6.32
-3.05
0.30
3.52
6.38
8.71
10.41
11.47
11.98
12.10
12.02
11.87
11.73
11.57
11.37
11.06
10.60
10.03
9.40
8.79
8.22
7.72
7.25
6.78
6.31
5.88
5.54
5.26
4.97
4.53
3.81
2.80
1.57
0.27
-0.92
-1.93
-2.73
-3.38
-3.94
-4.44
-4.94
-5.49
-6.16
-6.99
-7.99
-9.13
-10.29
-11.39
-12.37
-13.25
-14.05
-14.77
-15.34
-15.60
-15.31
-14.25
-12.28
-9.46
-6.04
-2.46
0.80
3.38
5.19
6.37
7.22
7.96
8.68
9.28
9.63
9.65
9.38
8.99
8.61
8.33
8.11
7.84
7.41
6.75
5.95
5.12
4.48
4.14
4.16
4.47
4.92
5.30
5.43
5.21
4.66
3.91
3.10
2.37
1.75
1.19
0.55
-0.26
-1.27
-2.40
-3.49
-4.39
-5.03
-5.48
-5.90
-6.47
-7.28
-8.32
-9.52
-10.78
-12.05
-13.31
-14.52
-15.58
-16.31
-16.47
-15.87
-14.46
-12.33
-9.70
-6.83
-3.96
-1.26
1.14
3.17
4.81
6.12
7.15
8.02
8.76
9.36
9.76
9.88
9.70
9.33
8.92
8.66
8.66
8.88
9.16
9.32
9.22
8.84
8.25
7.60
6.99
6.48
6.06
5.69
5.34
4.95
4.45
3.75
2.78
1.58
0.30
-0.80
-1.53
-1.83
-1.86
-1.90
-2.21
-2.88
-3.82
-4.81
-5.66
-6.35
-6.98
-7.73
-8.73
-9.97
-11.31
-12.56
-13.52
-14.11
-14.23
-13.78
-12.65
-10.81
-8.34
-5.50
-2.66
-0.15
1.88
3.44
4.72
5.86
6.89
7.70
8.12
8.07
7.64
7.07
6.66
6.59
6.83
7.21
7.45
7.33
6.83
6.09
5.39
4.98
4.98
5.29
5.69
5.87
5.65
5.01
4.08
3.10
2.22
1.49
0.81
0.08
-0.80
-1.80
-2.79
-3.67
-4.39
-4.97
-5.46
-5.97
-6.54
-7.21
-7.99
-8.88
-9.83
-10.82
-11.80
-12.68
-13.41
-13.85
-13.87
-13.27
-11.94
-9.89
-7.26
-4.33
-1.42
1.22
3.42
5.17
6.54
7.59
8.42
9.04
9.46
9.71
9.82
9.83
9.72
9.48
9.05
8.47
7.87
7.45
7.38
7.66
8.10
8.40
8.32
7.76
6.88
5.97
5.29
4.96
4.91
4.94
4.81
4.40
3.69
2.83
1.97
1.25
0.71
0.28
-0.19
-0.81
-1.64
-2.64
-3.70
-4.70
-5.61
-6.55
-7.67
-9.14
-11.01
-13.15
-15.30
-17.09
-18.21
-18.46
-17.78
-16.34
-14.37
-12.13
-9.85
-7.66
-5.59
-3.67
-1.89
-0.31
1.03
2.08
2.83
3.28
3.45
3.38
3.12
2.71
2.28
1.92
1.72
1.69
1.78
1.94
2.16
2.50
3.04
3.82
4.76
5.64
6.20
6.22
5.68
4.74
3.72
2.90
2.43
2.26
2.17
1.95
1.44
0.66
-0.27
-1.19
-2.02
-2.74
-3.39
-4.04
-4.76
-5.63
-6.73
-8.12
-9.78
-11.58
-13.25
-14.48
-15.02
-14.70
-13.48
-11.48
-8.87
-5.93
-2.94
-0.17
2.19
4.08
5.56
6.72
7.66
8.40
8.93
9.25
9.45
9.61
9.77
9.87
9.75
9.24
8.35
7.27
6.34
5.86
5.93
6.38
6.83
6.91
6.43
5.46
4.31
3.29
2.63
2.32
2.19
2.01
1.64
1.04
0.29
-0.51
-1.37
-2.30
-3.33
-4.42
-5.44
-6.24
-6.75
-7.05
-7.31
-7.76
-8.52
-9.63
-10.97
-12.36
-13.54
-14.30
-14.44
-13.84
-12.49
-10.47
-7.93
-5.11
-2.25
0.41
2.66
4.40
5.67
6.60
7.35
8.09
8.80
9.39
9.68
9.57
9.08
8.35
7.60
6.97
6.53
6.24
5.99
5.71
5.35
4.96
4.59
4.25
3.92
3.51
2.93
2.13
1.15
0.13
-0.79
-1.50
-2.01
-2.42
-2.87
-3.48
-4.32
-5.33
-6.44
-7.53
-8.51
-9.32
-9.97
-10.53
-11.12
-11.92
-13.05
-14.52
-16.25
-18.07
-19.73
-21.01
-21.65
-21.43
-20.24
-18.15
-15.46
-12.60
-10.09
-8.30
-7.35
-7.07
-7.10
-7.07
-6.68
-5.84
-4.61
-3.13
-1.60
-0.22
0.84
1.49
1.73
1.70
1.57
1.63
2.13
3.25
5.08
7.55
10.47
13.57
16.59
19.31
21.61
23.45
24.84
25.86
26.52
26.87
26.95
26.80
26.47
25.99
25.32
24.37
23.02
21.13
18.65
15.66
12.35
9.05
6.10
3.80
2.22
1.22
0.49
-0.36
-1.58
-3.28
-5.33
-7.44
-9.29
-10.59
-11.15
-10.95
-10.04
-8.63
-6.99
-5.37
-3.98
-2.94
-2.22
-1.69
-1.18
-0.52
0.35
1.43
2.54
3.47
4.02
4.15
3.97
3.71
3.63
3.84
4.31
4.87
5.34
5.63
5.76
5.79
5.80
5.74
5.55
5.17
4.63
4.07
3.63
3.41
3.38
3.41
3.35
3.10
2.66
2.13
1.61
1.14
0.70
0.25
-0.29
-0.93
-1.67
-2.50
-3.48
-4.68
-6.19
-8.01
-10.05
-12.01
-13.53
-14.30
-14.13
-13.07
-11.34
-9.27
-7.14
-5.10
-3.16
-1.29
0.53
2.19
3.52
4.36
4.65
4.47
3.96
3.36
2.83
2.43
2.20
2.10
2.11
2.23
2.45
2.73
2.99
3.11
3.03
2.73
2.21
1.52
0.66
-0.33
-1.42
-2.50
-3.42
-4.09
-4.48
-4.71
-4.95
-5.37
-5.99
-6.72
-7.33
-7.63
-7.52
-7.07
-6.51
-6.15
-6.28
-7.07
-8.43
-10.11
-11.69
-12.80
-13.20
-12.89
-12.04
-10.93
-9.79
-8.78
-7.93
-7.19
-6.53
-5.97
-5.59
-5.51
-5.81
-6.53
-7.58
-8.84
-10.19
-11.52
-12.83
-14.17
-15.57
-17.04
-18.57
-20.12
-21.68
-23.27
-24.95
-26.69
-28.45
-30.10
-31.48
-32.40
-32.68
-32.20
-30.85
-28.57
-25.39
-21.38
-16.68
-11.48
-6.05
-0.66
4.43
9.07
13.24
17.05
20.63
24.03
27.16
29.81
31.67
32.48
32.07
30.46
27.87
24.73
21.58
18.97
17.30
16.69
17.00
17.97
19.25
20.59
21.78
22.64
22.97
22.63
21.63
20.20
18.78
17.80
17.49
17.74
18.21
18.44
18.17
17.43
16.50
15.74
15.35
15.34
15.50
15.61
15.57
15.48
15.58
16.13
17.27
18.97
21.08
23.33
25.42
27.15
28.41
29.25
29.96
30.95
32.74
35.75
40.05
45.18
50.15
53.56
54.07
50.75
43.45
32.73
19.71
5.61
-8.53
-21.97
-34.17
-44.62
-52.72
-57.93
-59.95
-58.92
-55.49
-50.66
-45.48
-40.79
-37.01
-34.18
-32.02
-30.18
-28.35
-26.36
-24.16
-21.79
-19.26
-16.60
-13.82
-10.98
-8.18
-5.57
-3.29
-1.42
0.03
1.12
1.95
2.63
3.25
3.88
4.48
4.96
5.18
5.01
4.44
3.57
2.63
1.85
1.42
1.32
1.41
1.42
1.11
0.38
-0.71
-1.97
-3.21
-4.29
-5.21
-6.07
-6.95
-7.93
-8.98
-10.02
-10.98
-11.77
-12.31
-12.49
-12.17
-11.22
-9.60
-7.47
-5.09
-2.78
-0.79
0.83
2.19
3.42
4.62
5.71
6.47
6.65
6.14
5.02
3.58
2.22
1.21
0.69
0.54
0.59
0.67
0.71
0.77
0.93
1.24
1.63
2.00
2.23
2.24
2.00
1.57
1.05
0.53
0.10
-0.19
-0.38
-0.60
-0.96
-1.56
-2.38
-3.34
-4.29
-5.11
-5.73
-6.17
-6.49
-6.74
-6.98
-7.34
-7.96
-9.04
-10.64
-12.63
-14.52
-15.67
-15.52
-13.85
-10.95
-7.49
-4.17
-1.47
0.53
2.07
3.41
4.65
5.71
6.42
6.72
6.74
6.68
6.71
6.85
6.97
6.94
6.69
6.32
5.96
5.75
5.72
5.81
5.89
5.84
5.57
5.04
4.29
3.43
2.63
2.04
1.76
1.79
1.99
2.18
2.16
1.86
1.32
0.64
-0.04
-0.65
-1.18
-1.72
-2.32
-3.08
-3.98
-4.97
-5.96
-6.87
-7.61
-8.17
-8.65
-9.21
-10.00
-11.07
-12.25
-13.18
-13.42
-12.64
-10.82
-8.26
-5.41
-2.75
-0.51
1.31
2.87
4.38
5.89
7.31
8.46
9.15
9.34
9.10
8.56
7.90
7.25
6.68
6.20
5.81
5.46
5.15
4.88
4.67
4.53
4.45
4.37
4.24
4.05
3.77
3.44
3.10
2.79
2.53
2.29
2.02
1.66
1.15
0.45
-0.46
-1.51
-2.61
-3.66
-4.53
-5.20
-5.64
-5.93
-6.16
-6.41
-6.76
-7.27
-7.96
-8.81
-9.79
-10.77
-11.63
-12.17
-12.20
-11.52
-10.06
-7.83
-5.08
-2.16
0.55
2.74
4.32
5.35
6.03
6.55
7.02
7.41
7.62
7.57
7.23
6.65
5.94
5.23
4.65
4.29
4.17
4.27
4.49
4.72
4.83
4.78
4.55
4.18
3.72
3.24
2.80
2.43
2.12
1.82
1.44
0.89
0.12
-0.80
-1.77
-2.61
-3.19
-3.50
-3.64
-3.77
-4.00
-4.37
-4.81
-5.22
-5.54
-5.83
-6.23
-6.91
-7.95
-9.26
-10.58
-11.54
-11.81
-11.18
-9.71
-7.61
-5.20
-2.79
-0.59
1.30
2.91
4.29
5.49
6.53
7.37
7.95
8.22
8.20
7.96
7.62
7.31
7.08
6.93
6.79
6.66
6.55
6.54
6.64
6.79
6.86
6.71
6.31
5.73
5.11
4.54
4.02
3.45
2.72
1.84
0.92
0.17
-0.32
-0.61
-0.90
-1.45
-2.36
-3.56
-4.80
-5.78
-6.32
-6.43
-6.33
-6.28
-6.47
-6.96
-7.70
-8.60
-9.59
-10.64
-11.70
-12.59
-13.08
-12.92
-11.93
-10.15
-7.77
-5.09
-2.39
0.13
2.33
4.11
5.38
6.12
6.43
6.50
6.63
7.00
7.64
8.38
8.96
9.19
9.00
8.51
7.90
7.36
6.96
6.69
6.53
6.43
6.38
6.34
6.25
6.05
5.69
5.17
4.53
3.86
3.20
2.58
1.99
1.43
0.91
0.39
-0.15
-0.80
-1.61
-2.56
-3.55
-4.43
-5.06
-5.39
-5.51
-5.55
-5.69
-6.02
-6.55
-7.23
-7.99
-8.79
-9.60
-10.40
-11.05
-11.38
-11.17
-10.26
-8.64
-6.47
-4.07
-1.79
0.14
1.65
2.83
3.84
4.76
5.57
6.17
6.42
6.31
5.91
5.36
4.81
4.34
3.97
3.72
3.56
3.50
3.50
3.56
3.64
3.74
3.89
4.10
4.36
4.60
4.69
4.54
4.12
3.50
2.78
2.06
1.38
0.71
0.03
-0.66
-1.32
-1.92
-2.43
-2.89
-3.33
-3.81
-4.32
-4.84
-5.33
-5.81
-6.30
-6.83
-7.47
-8.26
-9.20
-10.17
-11.01
-11.47
-11.32
-10.47
-8.97
-6.99
-4.77
-2.49
-0.27
1.88
3.94
5.80
7.31
8.33
8.83
8.90
8.73
8.51
8.33
8.17
7.98
7.74
7.48
7.32
7.31
7.46
7.65
7.70
7.48
6.96
6.24
5.44
4.66
3.90
3.14
2.33
1.53
0.82
0.26
-0.15
-0.48
-0.85
-1.33
-1.89
-2.47
-2.97
-3.37
-3.73
-4.18
-4.83
-5.67
-6.62
-7.50
-8.18
-8.64
-8.95
-9.32
-9.92
-10.88
-12.10
-13.32
-14.14
-14.20
-13.27
-11.36
-8.71
-5.72
-2.80
-0.23
1.84
3.43
4.66
5.61
6.40
7.09
7.73
8.35
8.92
9.37
9.62
9.60
9.32
8.89
8.43
8.05
7.74
7.45
7.11
6.72
6.34
6.09
6.03
6.09
6.10
5.89
5.32
4.44
3.39
2.37
1.56
0.99
0.59
0.21
-0.28
-0.97
-1.83
-2.78
-3.70
-4.47
-5.00
-5.27
-5.33
-5.28
-5.24
-5.29
-5.55
-6.07
-6.88
-7.95
-9.21
-10.44
-11.39
-11.77
-11.40
-10.26
-8.50
-6.38
-4.13
-1.93
0.13
2.02
3.67
5.03
6.08
6.86
7.46
7.98
8.40
8.65
8.58
8.12
7.32
6.35
5.44
4.78
4.42
4.31
4.31
4.30
4.25
4.14
4.01
3.86
3.69
3.46
3.12
2.64
2.02
1.33
0.68
0.16
-0.16
-0.36
-0.58
-1.02
-1.81
-2.95
-4.28
-5.61
-6.74
-7.59
-8.17
-8.58
-8.92
-9.27
-9.70
-10.27
-11.03
-11.96
-12.93
-13.73
-14.06
-13.66
-12.43
-10.47
-7.99
-5.33
-2.79
-0.57
1.23
2.66
3.79
4.74
5.60
6.44
7.26
8.01
8.62
9.03
9.23
9.23
9.08
8.83
8.52
8.21
7.91
7.66
7.46
7.27
7.04
6.71
6.26
5.71
5.08
4.43
3.80
3.21
2.68
2.22
1.79
1.33
0.78
0.08
-0.77
-1.69
-2.55
-3.23
-3.71
-4.00
-4.24
-4.52
-4.88
-5.31
-5.74
-6.16
-6.61
-7.21
-8.07
-9.26
-10.68
-12.11
-13.23
-13.72
-13.34
-12.04
-9.96
-7.39
-4.68
-2.14
0.03
1.76
3.11
4.15
4.99
5.68
6.25
6.74
7.13
7.42
7.60
7.69
7.73
7.76
7.81
7.87
7.92
7.90
7.79
7.62
7.40
7.16
6.87
6.46
5.90
5.19
4.39
3.57
2.85
2.28
1.86
1.57
1.32
1.03
0.63
0.07
-0.65
-1.45
-2.30
-3.11
-3.84
-4.48
-5.02
-5.47
-5.84
-6.20
-6.62
-7.23
-8.12
-9.26
-10.49
-11.52
-12.03
-11.80
-10.78
-9.11
-7.06
-4.93
-2.89
-1.04
0.64
2.15
3.50
4.67
5.61
6.29
6.75
7.03
7.22
7.38
7.54
7.67
7.70
7.60
7.35
7.04
6.78
6.65
6.65
6.70
6.64
6.32
5.71
4.83
3.81
2.79
1.90
1.22
0.77
0.53
0.42
0.33
0.14
-0.21
-0.67
-1.20
-1.73
-2.26
-2.83
-3.48
-4.23
-5.00
-5.70
-6.24
-6.59
-6.82
-7.08
-7.56
-8.39
-9.63
-11.17
-12.73
-13.96
-14.46
-14.00
-12.56
-10.35
-7.75
-5.13
-2.79
-0.79
0.90
2.42
3.84
5.12
6.18
6.96
7.50
7.90
8.28
8.71
9.12
9.39
9.39
9.08
8.55
7.98
7.50
7.24
7.19
7.25
7.34
7.34
7.20
6.85
6.27
5.48
4.53
3.51
2.54
1.74
1.15
0.76
0.49
0.25
-0.03
-0.40
-0.82
-1.29
-1.79
-2.40
-3.19
-4.21
-5.43
-6.70
-7.80
-8.52
-8.77
-8.64
-8.40
-8.37
-8.81
-9.77
-11.09
-12.42
-13.33
-13.48
-12.65
-10.83
-8.24
-5.27
-2.34
0.21
2.17
3.55
4.49
5.20
5.80
6.37
6.86
7.22
7.42
7.48
7.46
7.42
7.45
7.55
7.69
7.76
7.73
7.57
7.36
7.21
7.16
7.20
7.19
6.98
6.49
5.78
5.04
4.44
4.10
3.95
3.82
3.52
2.95
2.12
1.12
0.08
-0.93
-1.88
-2.72
-3.38
-3.81
-4.02
-4.14
-4.37
-4.89
-5.82
-7.09
-8.52
-9.89
-11.05
-11.90
-12.43
-12.58
-12.25
-11.32
-9.74
-7.55
-4.94
-2.20
0.38
2.58
4.24
5.37
6.05
6.44
6.71
6.93
7.12
7.23
7.22
7.11
6.91
6.67
6.40
6.09
5.73
5.35
5.02
4.78
4.67
4.61
4.52
4.33
3.95
3.41
2.75
2.03
1.33
0.74
0.29
0.01
-0.16
-0.26
-0.38
-0.58
-0.91
-1.44
-2.21
-3.23
-4.40
-5.58
-6.56
-7.21
-7.53
-7.62
-7.70
-7.98
-8.58
-9.55
-10.82
-12.18
-13.35
-13.97
-13.72
-12.45
-10.24
-7.46
-4.58
-2.03
-0.00
1.57
2.92
4.25
5.65
6.99
8.05
8.66
8.77
8.53
8.12
7.70
7.37
7.12
6.91
6.71
6.51
6.30
6.05
5.70
5.21
4.60
3.95
3.36
2.91
2.59
2.33
2.06
1.72
1.35
0.97
0.64
0.33
-0.01
-0.45
-1.04
-1.76
-2.58
-3.44
-4.28
-5.05
-5.70
-6.21
-6.59
-6.90
-7.24
-7.71
-8.35
-9.14
-10.00
-10.88
-11.74
-12.54
-13.15
-13.36
-12.90
-11.57
-9.34
-6.46
-3.34
-0.43
1.96
3.77
5.13
6.25
7.30
8.28
9.09
9.60
9.69
9.38
8.78
8.09
7.49
7.12
7.02
7.13
7.34
7.50
7.53
7.41
7.16
6.85
6.48
6.06
5.57
4.96
4.27
3.57
2.94
2.45
2.08
1.74
1.33
0.79
0.13
-0.62
-1.42
-2.26
-3.17
-4.13
-5.05
-5.83
-6.39
-6.76
-7.09
-7.56
-8.31
-9.32
-10.41
-11.31
-11.70
-11.39
-10.29
-8.52
-6.32
-4.01
-1.89
-0.11
1.37
2.75
4.24
5.96
7.82
9.54
10.81
11.40
11.30
10.71
9.93
9.26
8.85
8.72
8.76
8.82
8.79
8.62
8.35
8.02
7.64
7.20
6.69
6.09
5.39
4.59
3.64
2.52
1.23
-0.16
-1.55
-2.83
-3.92
-4.89
-5.79
-6.70
-7.61
-8.44
-9.15
-9.75
-10.34
-11.03
-11.90
-12.90
-13.89
-14.70
-15.17
-15.19
-14.70
-13.69
-12.24
-10.46
-8.49
-6.48
-4.47
-2.48
-0.47
1.60
3.67
5.64
7.32
8.58
9.31
9.52
9.30
8.82
8.25
7.71
7.28
6.94
6.69
6.50
6.38
6.34
6.40
6.52
6.63
6.63
6.43
5.95
5.21
4.28
3.27
2.32
1.50
0.79
0.11
-0.63
-1.47
-2.38
-3.24
-3.92
-4.36
-4.60
-4.72
-4.87
-5.11
-5.52
-6.12
-6.97
-8.12
-9.57
-11.24
-12.89
-14.20
-14.83
-14.59
-13.46
-11.60
-9.29
-6.80
-4.36
-2.09
-0.04
1.76
3.33
4.66
5.80
6.81
7.75
8.65
9.49
10.24
10.79
11.06
11.05
10.82
10.49
10.23
10.14
10.22
10.37
10.43
10.26
9.76
8.94
7.90
6.80
5.77
4.89
4.15
3.46
2.72
1.85
0.85
-0.18
-1.09
-1.81
-2.33
-2.80
-3.39
-4.21
-5.23
-6.29
-7.13
-7.58
-7.62
-7.35
-6.96
-6.63
-6.44
-6.47
-6.79
-7.47
-8.48
-9.67
-10.73
-11.33
-11.26
-10.40
-8.87
-6.97
-5.07
-3.45
-2.25
-1.47
-1.03
-0.85
-0.72
-0.52
-0.30
-0.24
-0.53
-1.26
-2.39
-3.80
-5.39
-6.55
-6.92
-6.64
-6.31
-6.66
-8.12
-10.73
-14.26
-18.38
-21.89
-24.08
-25.38
-27.31
-31.56
-39.27
-50.56
-64.50
-79.22
-90.53
-94.41
-88.53
-72.85
-48.81
-18.53
15.88
52.65
90.33
130.06
172.67
217.14
260.12
297.34
324.76
339.57
340.64
315.76
261.42
186.11
107.49
41.76
-3.69
-30.23
-43.54
-49.94
-55.14
-60.82
-66.63
-70.79
-71.59
-65.08
-47.64
-18.60
17.76
51.89
74.35
77.98
60.29
24.04
-23.58
-73.75
-119.27
-151.21
-164.53
-157.57
-133.12
-98.09
-61.92
-33.77
-19.89
-21.87
-36.72
-58.87
-81.15
-97.33
-103.76
-99.96
-87.84
-70.79
-52.31
-35.07
-21.19
-11.35
-4.94
-0.24
5.17
13.92
27.90
47.40
70.72
94.18
113.65
126.02
130.29
127.47
119.82
109.50
97.81
85.10
71.13
56.03
40.65
26.41
14.61
5.78
-0.49
-5.38
-10.22
-16.04
-23.19
-31.39
-39.95
-48.11
-55.29
-61.11
-65.32
-67.56
-67.27
-63.74
-56.43
-45.30
-31.15
-15.53
-0.38
12.48
21.89
27.50
29.69
29.25
27.07
23.97
20.70
17.93
16.18
15.68
16.24
17.20
17.63
16.60
13.45
7.99
0.54
-8.14
-17.01
-24.97
-31.15
-35.09
-36.89
-37.08
-36.31
-35.12
-33.61
-31.53
-28.54
-24.47
-19.50
-14.11
-8.82
-3.96
0.34
4.15
7.43
9.92
11.19
10.75
8.30
3.90
-2.06
-8.94
-16.13
-23.25
-30.28
-37.44
-44.93
-52.53
-59.43
-64.32
-65.88
-63.35
-57.03
-48.17
-38.56
-29.87
-22.99
-18.02
-14.52
-11.97
-10.15
-9.25
-9.67
-11.61
-14.88
-18.74
-22.22
-24.51
-25.41
-25.48
-25.91
-28.16
-33.41
-42.15
-53.92
-67.32
-80.28
-90.48
-95.99
-95.79
-90.06
-80.06
-67.51
-53.82
-39.57
-24.48
-8.10
9.50
27.40
44.07
58.05
68.59
75.81
80.37
82.78
83.14
81.15
76.61
69.79
61.58
53.19
45.65
39.55
34.86
31.20
28.02
24.87
21.46
17.79
14.00
10.41
7.31
4.91
3.25
2.18
1.52
1.15
1.00
1.02
1.10
0.99
0.42
-0.86
-2.89
-5.55
-8.61
-11.79
-14.93
-17.91
-20.64
-23.10
-25.26
-27.17
-28.88
-30.40
-31.59
-32.18
-31.79
-30.15
-27.22
-23.29
-18.85
-14.43
-10.36
-6.76
-3.50
-0.45
2.46
5.10
7.24
8.67
9.30
9.27
8.93
8.68
8.83
9.47
10.45
11.42
12.05
12.14
11.73
11.00
10.15
9.32
8.44
7.38
6.02
4.41
2.70
1.13
-0.13
-1.05
-1.70
-2.23
-2.75
-3.29
-3.79
-4.16
-4.31
-4.22
-3.92
-3.52
-3.18
-3.09
-3.40
-4.17
-5.34
-6.73
-8.14
-9.34
-10.12
-10.36
-9.99
-9.02
-7.57
-5.79
-3.92
-2.10
-0.42
1.14
2.65
4.12
5.49
6.60
7.30
7.49
7.17
6.44
5.46
4.36
3.22
2.08
0.97
-0.10
-1.10
-2.02
-2.80
-3.38
-3.70
-3.69
-3.29
-2.58
-1.71
-0.87
-0.25
0.05
0.10
0.00
-0.08
-0.08
-0.01
0.07
0.09
0.01
-0.14
-0.34
-0.57
-0.84
-1.18
-1.60
-2.13
-2.78
-3.57
-4.49
-5.53
-6.63
-7.70
-8.67
-9.51
-10.19
-10.67
-10.87
-10.69
-10.01
-8.83
-7.21
-5.29
-3.20
-1.06
1.08
3.16
5.10
6.82
8.20
9.19
9.80
10.09
10.16
10.12
9.98
9.79
9.56
9.33
9.15
9.01
8.89
8.73
8.42
7.89
7.11
6.12
5.03
4.01
3.17
2.49
1.86
1.12
0.15
-1.02
-2.29
-3.52
-4.61
-5.59
-6.54
-7.54
-8.56
-9.54
-10.33
-10.88
-11.20
-11.38
-11.52
-11.74
-12.13
-12.72
-13.51
-14.39
-15.21
-15.80
-16.00
-15.72
-14.94
-13.69
-12.05
-10.11
-7.99
-5.80
-3.59
-1.40
0.79
2.96
5.02
6.78
8.02
8.61
8.59
8.21
7.80
7.66
7.87
8.23
8.46
8.31
7.70
6.82
5.97
5.42
5.24
5.33
5.49
5.49
5.24
4.73
4.03
3.25
2.50
1.88
1.43
1.07
0.68
0.09
-0.81
-1.96
-3.21
-4.34
-5.17
-5.67
-5.94
-6.16
-6.45
-6.86
-7.35
-7.85
-8.34
-8.88
-9.59
-10.59
-11.90
-13.39
-14.78
-15.72
-15.88
-15.08
-13.38
-11.01
-8.33
-5.68
-3.28
-1.26
0.41
1.83
3.11
4.33
5.51
6.61
7.58
8.36
8.90
9.20
9.30
9.24
9.04
8.75
8.34
7.86
7.36
6.91
6.56
6.34
6.21
6.12
6.04
5.93
5.79
5.62
5.40
5.08
4.62
3.99
3.20
2.27
1.25
0.19
-0.87
-1.86
-2.77
-3.57
-4.26
-4.88
-5.43
-5.92
-6.40
-6.93
-7.61
-8.53
-9.64
-10.78
-11.64
-11.94
-11.50
-10.36
-8.75
-6.89
-4.99
-3.05
-1.02
1.18
3.50
5.77
7.75
9.27
10.24
10.76
11.04
11.25
11.49
11.73
11.83
11.69
11.30
10.78
10.30
9.95
9.73
9.51
9.24
8.91
8.60
8.44
8.40
8.36
8.10
7.46
6.36
4.90
3.26
1.58
-0.02
-1.52
-2.91
-4.20
-5.40
-6.52
-7.57
-8.49
-9.22
-9.70
-9.91
-9.95
-10.03
-10.43
-11.36
-12.85
-14.72
-16.56
-17.95
-18.57
-18.33
-17.34
-15.80
-13.85
-11.56
-8.93
-6.03
-3.00
-0.11
2.42
4.49
6.16
7.63
9.05
10.46
11.71
12.64
13.10
13.15
12.98
12.81
12.82
12.99
13.19
13.28
13.17
12.92
12.63
12.44
12.38
12.43
12.45
12.29
11.80
10.88
9.59
8.08
6.58
5.35
4.48
3.91
3.41
2.75
1.78
0.56
-0.73
-1.90
-2.84
-3.57
-4.22
-4.89
-5.61
-6.39
-7.22
-8.13
-9.16
-10.36
-11.69
-12.98
-13.93
-14.21
-13.57
-12.00
-9.72
-7.18
-4.80
-2.86
-1.37
-0.13
1.12
2.49
3.95
5.24
6.12
6.49
6.39
6.07
5.77
5.65
5.72
5.86
5.91
5.77
5.52
5.35
5.49
5.99
6.71
7.35
7.56
7.19
6.28
5.08
3.86
2.76
1.78
0.81
-0.21
-1.27
-2.33
-3.31
-4.23
-5.17
-6.16
-7.19
-8.11
-8.79
-9.18
-9.38
-9.62
-10.17
-11.16
-12.54
-14.07
-15.39
-16.22
-16.38
-15.86
-14.77
-13.20
-11.18
-8.72
-5.84
-2.62
0.72
3.89
6.62
8.72
10.06
10.72
10.84
10.68
10.53
10.61
11.01
11.65
12.33
12.79
12.89
12.64
12.20
11.78
11.53
11.43
11.33
11.08
10.57
9.85
9.08
8.41
7.97
7.72
7.56
7.32
6.89
6.19
5.22
4.02
2.62
1.07
-0.62
-2.40
-4.20
-5.93
-7.48
-8.70
-9.56
-10.07
-10.34
-10.58
-11.01
-11.84
-13.18
-14.96
-16.90
-18.52
-19.34
-18.97
-17.29
-14.46
-10.88
-7.02
-3.28
0.06
2.90
5.25
7.20
8.85
10.26
11.47
12.49
13.27
13.77
13.97
13.90
13.66
13.32
12.96
12.65
12.41
12.29
12.32
12.49
12.74
12.96
13.01
12.82
12.36
11.67
10.87
10.07
9.36
8.77
8.28
7.82
7.33
6.74
6.01
5.14
4.17
3.14
2.15
1.25
0.45
-0.33
-1.22
-2.31
-3.65
-5.14
-6.63
-7.94
-9.01
-9.87
-10.70
-11.70
-12.98
-14.53
-16.11
-17.46
-18.26
-18.34
-17.64
-16.25
-14.34
-12.05
-9.51
-6.76
-3.87
-0.90
2.02
4.74
7.15
9.09
10.49
11.27
11.47
11.20
10.69
10.22
9.95
9.94
10.06
10.18
10.19
10.08
9.95
9.88
9.86
9.82
9.67
9.36
8.88
8.26
7.52
6.68
5.78
4.90
4.15
3.54
3.00
2.35
1.43
0.14
-1.38
-2.94
-4.30
-5.35
-6.12
-6.74
-7.34
-8.00
-8.70
-9.42
-10.15
-10.95
-11.88
-12.98
-14.16
-15.21
-15.84
-15.77
-14.84
-13.11
-10.78
-8.15
-5.45
-2.84
-0.32
2.09
4.41
6.55
8.44
10.03
11.36
12.49
13.48
14.35
14.99
15.31
15.24
14.82
14.21
13.59
13.17
13.01
13.07
13.22
13.27
13.09
12.60
11.84
10.87
9.80
8.68
7.54
6.36
5.15
3.96
2.87
2.00
1.41
1.07
0.86
0.57
0.05
-0.80
-1.94
-3.25
-4.58
-5.79
-6.78
-7.57
-8.24
-8.89
-9.66
-10.64
-11.91
-13.46
-15.21
-16.94
-18.39
-19.26
-19.35
-18.55
-16.95
-14.70
-12.05
-9.23
-6.42
-3.79
-1.45
0.55
2.26
3.78
5.27
6.83
8.46
10.03
11.37
12.30
12.73
12.69
12.32
11.78
11.27
10.90
10.75
10.79
10.95
11.10
11.15
11.02
10.68
10.15
9.47
8.75
8.07
7.57
7.27
7.12
6.96
6.59
5.85
4.75
3.44
2.16
1.16
0.56
0.27
0.09
-0.24
-0.87
-1.83
-2.99
-4.22
-5.39
-6.50
-7.59
-8.72
-9.88
-11.01
-12.10
-13.15
-14.25
-15.44
-16.67
-17.73
-18.32
-18.16
-17.16
-15.39
-13.10
-10.57
-8.01
-5.53
-3.16
-0.90
1.25
3.24
5.04
6.61
7.93
8.99
9.80
10.37
10.66
10.69
10.45
9.98
9.36
8.72
8.17
7.82
7.70
7.76
7.94
8.11
8.18
8.08
7.79
7.37
6.87
6.36
5.83
5.27
4.62
3.85
3.00
2.14
1.42
0.89
0.56
0.26
-0.14
-0.79
-1.69
-2.76
-3.86
-4.86
-5.72
-6.48
-7.24
-8.08
-9.05
-10.20
-11.46
-12.78
-14.01
-15.00
-15.62
-15.80
-15.47
-14.64
-13.31
-11.46
-9.09
-6.27
-3.15
0.02
2.94
5.35
7.11
8.20
8.74
8.87
8.75
8.51
8.28
8.14
8.13
8.18
8.20
8.07
7.73
7.25
6.75
6.39
6.22
6.19
6.20
6.12
5.92
5.63
5.32
4.98
4.58
3.99
3.20
2.24
1.27
0.46
-0.11
-0.52
-0.92
-1.49
-2.29
-3.29
-4.37
-5.42
-6.39
-7.30
-8.18
-9.07
-9.96
-10.88
-11.88
-13.07
-14.50
-16.12
-17.74
-19.07
-19.79
-19.66
-18.64
-16.85
-14.53
-11.98
-9.41
-6.90
-4.45
-1.99
0.47
2.83
4.98
6.81
8.29
9.44
10.33
10.98
11.40
11.56
11.50
11.29
11.03
10.82
10.67
10.58
10.54
10.51
10.49
10.40
10.20
9.83
9.34
8.79
8.27
7.80
7.32
6.73
5.97
5.08
4.15
3.28
2.49
1.76
1.01
0.20
-0.65
-1.49
-2.24
-2.89
-3.46
-3.97
-4.49
-5.07
-5.80
-6.74
-7.93
-9.34
-10.92
-12.58
-14.24
-15.86
-17.31
-18.44
-19.07
-19.03
-18.23
-16.74
-14.69
-12.26
-9.60
-6.78
-3.86
-0.93
1.85
4.31
6.29
7.74
8.75
9.44
9.98
10.41
10.69
10.70
10.41
9.87
9.25
8.74
8.49
8.58
8.94
9.45
9.92
10.16
10.06
9.57
8.81
7.96
7.21
6.67
6.27
5.83
5.16
4.18
2.97
1.77
0.78
0.13
-0.26
-0.57
-1.05
-1.87
-3.06
-4.50
-5.99
-7.34
-8.42
-9.29
-10.04
-10.86
-11.91
-13.23
-14.76
-16.33
-17.75
-18.80
-19.34
-19.27
-18.55
-17.22
-15.39
-13.19
-10.76
-8.16
-5.40
-2.46
0.61
3.70
6.54
8.85
10.44
11.29
11.53
11.44
11.20
10.94
10.64
10.24
9.77
9.31
9.01
8.97
9.19
9.55
9.86
9.89
9.52
8.73
7.65
6.50
5.51
4.85
4.55
4.50
4.45
4.17
3.53
2.59
1.54
0.62
-0.09
-0.66
-1.31
-2.27
-3.61
-5.17
-6.69
-7.90
-8.77
-9.42
-10.13
-11.11
-12.45
-14.10
-15.91
-17.74
-19.44
-20.84
-21.72
-21.83
-20.98
-19.18
-16.59
-13.55
-10.39
-7.39
-4.65
-2.15
0.20
2.51
4.83
7.10
9.18
10.86
11.97
12.49
12.55
12.39
12.30
12.41
12.72
13.04
13.20
13.15
12.95
12.81
12.87
13.14
13.45
13.57
13.31
12.64
11.71
10.75
9.97
9.43
8.94
8.23
7.10
5.53
3.80
2.34
1.44
1.15
1.14
0.97
0.25
-1.07
-2.75
-4.40
-5.69
-6.59
-7.26
-7.98
-8.92
-10.07
-11.34
-12.69
-14.13
-15.69
-17.35
-18.90
-20.03
-20.45
-19.99
-18.66
-16.65
-14.16
-11.41
-8.53
-5.57
-2.62
0.20
2.79
5.04
6.92
8.46
9.73
10.77
11.60
12.19
12.48
12.42
12.06
11.49
10.87
10.33
9.91
9.59
9.28
8.95
8.61
8.32
8.14
8.05
8.03
8.00
7.90
7.70
7.37
6.85
6.04
4.92
3.56
2.13
0.87
-0.02
-0.52
-0.80
-1.16
-1.91
-3.15
-4.74
-6.35
-7.65
-8.43
-8.75
-8.86
-9.16
-9.92
-11.23
-12.95
-14.72
-16.14
-16.84
-16.63
-15.46
-13.44
-10.80
-7.78
-4.63
-1.52
1.40
4.00
6.20
7.93
9.25
10.23
10.97
11.54
11.95
12.20
12.29
12.28
12.24
12.24
12.25
12.21
12.06
11.75
11.34
10.94
10.65
10.49
10.43
10.33
10.06
9.49
8.58
7.39
6.04
4.70
3.54
2.62
1.93
1.31
0.57
-0.50
-1.99
-3.90
-6.09
-8.33
-10.43
-12.24
-13.75
-15.02
-16.19
-17.34
-18.53
-19.75
-20.90
-21.89
-22.54
-22.68
-22.12
-20.73
-18.54
-15.69
-12.45
-9.12
-5.89
-2.87
-0.08
2.47
4.78
6.87
8.75
10.43
11.93
13.24
14.24
14.80
14.86
14.45
13.77
13.09
12.65
12.58
12.89
13.44
14.04
14.47
14.56
14.21
13.42
12.24
10.83
9.31
7.84
6.52
5.47
4.74
4.37
4.35
4.57
4.88
5.06
4.96
4.50
3.74
2.81
1.85
0.95
0.10
-0.86
-2.18
-4.09
-6.72
-9.99
-13.63
-17.24
-20.42
-22.85
-24.36
-24.91
-24.57
-23.45
-21.73
-19.54
-16.97
-14.05
-10.81
-7.27
-3.58
0.07
3.45
6.40
8.86
10.88
12.52
13.81
14.77
15.39
15.69
15.73
15.55
15.23
14.77
14.23
13.63
13.07
12.54
12.04
11.51
10.93
10.29
9.69
9.21
8.88
8.67
8.43
8.00
7.25
6.17
4.84
3.42
2.13
1.12
0.41
-0.09
-0.61
-1.38
-2.50
-3.94
-5.45
-6.78
-7.71
-8.25
-8.59
-9.03
-9.88
-11.33
-13.40
-15.90
-18.47
-20.68
-22.12
-22.53
-21.88
-20.38
-18.35
-16.14
-13.93
-11.74
-9.44
-6.86
-3.93
-0.74
2.47
5.39
7.72
9.31
10.15
10.40
10.34
10.20
10.18
10.33
10.65
11.05
11.49
11.96
12.50
13.13
13.78
14.30
14.52
14.30
13.70
12.88
12.10
11.53
11.14
10.73
10.01
8.77
7.00
4.94
2.93
1.23
-0.06
-1.00
-1.77
-2.47
-3.16
-3.80
-4.39
-4.95
-5.56
-6.33
-7.28
-8.38
-9.52
-10.66
-11.77
-12.88
-13.99
-14.99
-15.65
-15.68
-14.85
-13.11
-10.60
-7.64
-4.59
-1.77
0.65
2.58
4.07
5.23
6.19
7.11
8.09
9.19
10.33
11.38
12.15
12.55
12.60
12.43
12.17
11.91
11.63
11.28
10.82
10.26
9.62
8.86
7.91
6.64
5.04
3.23
1.48
0.08
-0.78
-1.12
-1.16
-1.16
-1.39
-1.93
-2.75
-3.70
-4.63
-5.45
-6.10
-6.62
-7.14
-7.80
-8.73
-9.98
-11.53
-13.26
-15.00
-16.60
-17.92
-18.91
-19.55
-19.84
-19.73
-19.11
-17.87
-15.94
-13.39
-10.42
-7.35
-4.48
-1.94
0.30
2.35
4.27
5.96
7.22
7.83
7.77
7.18
6.40
5.78
5.55
5.82
6.55
7.65
8.94
10.21
11.23
11.80
11.81
11.29
10.41
9.38
8.39
7.46
6.55
5.54
4.38
3.09
1.78
0.57
-0.53
-1.53
-2.55
-3.74
-5.14
-6.68
-8.14
-9.27
-9.90
-10.08
-10.00
-10.01
-10.38
-11.25
-12.58
-14.19
-15.82
-17.19
-18.12
-18.44
-18.07
-17.04
-15.42
-13.34
-10.94
-8.35
-5.63
-2.91
-0.26
2.18
4.38
6.29
7.92
9.25
10.26
10.93
11.26
11.35
11.30
11.22
11.14
10.95
10.57
9.95
9.15
8.35
7.73
7.36
7.21
7.13
6.98
6.65
6.15
5.53
4.87
4.23
3.58
2.87
2.03
0.99
-0.24
-1.62
-3.08
-4.53
-5.90
-7.15
-8.24
-9.13
-9.76
-10.10
-10.20
-10.22
-10.39
-10.90
-11.90
-13.31
-14.93
-16.43
-17.48
-17.79
-17.17
-15.58
-13.11
-9.98
-6.50
-3.05
0.03
2.55
4.49
5.99
7.22
8.31
9.31
10.14
10.75
11.12
11.35
11.58
11.91
12.32
12.68
12.80
12.60
12.10
11.43
10.76
10.19
9.72
9.27
8.77
8.17
7.45
6.64
5.80
4.94
4.09
3.28
2.49
1.75
1.02
0.29
-0.52
-1.46
-2.58
-3.81
-5.01
-6.04
-6.81
-7.41
-8.03
-8.90
-10.14
-11.67
-13.25
-14.57
-15.41
-15.67
-15.34
-14.48
-13.15
-11.42
-9.37
-7.11
-4.75
-2.31
0.19
2.69
5.05
7.06
8.56
9.51
10.05
10.41
10.77
11.22
11.64
11.92
11.97
11.83
11.65
11.60
11.73
11.97
12.14
12.05
11.63
10.91
10.04
9.19
8.46
7.89
7.44
7.09
6.80
6.54
6.12
5.34
3.91
1.73
-1.04
-4.00
-6.61
-8.53
-9.69
-10.40
-11.02
-11.82
-12.83
-13.85
-14.66
-15.15
-15.41
-15.64
-16.05
-16.70
-17.48
-18.18
-18.54
-18.34
-17.48
-15.98
-13.94
-11.56
-9.00
-6.40
-3.82
-1.30
1.08
3.25
5.08
6.47
7.36
7.78
7.87
7.75
7.62
7.61
7.77
8.08
8.47
8.82
9.08
9.25
9.38
9.52
9.69
9.83
9.81
9.55
9.00
8.24
7.41
6.64
5.97
5.33
4.59
3.62
2.35
0.84
-0.79
-2.38
-3.81
-5.00
-6.01
-6.91
-7.83
-8.85
-10.06
-11.46
-13.03
-14.69
-16.29
-17.59
-18.34
-18.33
-17.49
-15.89
-13.74
-11.27
-8.66
-6.01
-3.40
-0.91
1.35
3.27
4.78
5.90
6.71
7.23
7.48
7.40
6.99
6.34
5.64
5.05
4.68
4.53
4.50
4.50
4.50
4.54
4.70
5.05
5.52
5.97
6.21
6.06
5.50
4.64
3.73
2.93
2.31
1.79
1.24
0.63
0.11
-0.09
0.19
0.89
1.69
2.15
1.84
0.64
-1.33
-3.76
-6.31
-8.82
-11.23
-13.60
-15.93
-18.09
-19.77
-20.58
-20.16
-18.39
-15.44
-11.81
-8.13
-5.03
-2.89
-1.76
-1.41
-1.44
-1.43
-1.13
-0.44
0.53
1.59
2.52
3.25
3.80
4.35
5.07
6.11
7.44
8.99
10.67
12.44
14.33
16.32
18.35
20.29
21.92
23.14
23.93
24.36
24.54
24.50
24.23
23.71
22.92
21.88
20.59
18.98
16.96
14.46
11.56
8.46
5.42
2.64
0.19
-1.96
-3.92
-5.77
-7.53
-9.22
-10.83
-12.37
-13.85
-15.29
-16.64
-17.88
-18.96
-19.87
-20.52
-20.79
-20.55
-19.69
-18.26
-16.46
-14.58
-12.83
-11.37
-10.14
-9.02
-7.92
-6.82
-5.81
-4.88
-3.88
-2.43
-0.07
3.47
8.06
13.10
17.77
21.29
23.27
23.82
23.45
22.74
22.12
21.76
21.57
21.46
21.35
21.31
21.37
21.47
21.44
21.08
20.19
18.70
16.74
14.48
12.16
9.85
7.57
5.18
2.55
-0.40
-3.59
-6.79
-9.70
-12.04
-13.67
-14.63
-15.17
-15.56
-16.06
-16.78
-17.64
-18.49
-19.06
-19.21
-18.86
-18.06
-16.93
-15.51
-13.83
-11.81
-9.45
-6.81
-4.10
-1.57
0.60
2.39
3.90
5.22
6.38
7.24
7.65
7.50
6.92
6.15
5.51
5.22
5.39
5.96
6.77
7.67
8.44
8.87
8.76
8.01
6.69
5.05
3.44
2.18
1.44
1.17
1.17
1.17
1.01
0.61
0.05
-0.58
-1.25
-1.97
-2.81
-3.81
-4.94
-6.11
-7.25
-8.29
-9.28
-10.26
-11.33
-12.50
-13.79
-15.19
-16.60
-17.91
-18.91
-19.39
-19.12
-18.04
-16.24
-13.91
-11.31
-8.62
-5.93
-3.30
-0.76
1.62
3.80
5.71
7.35
8.68
9.68
10.29
10.54
10.51
10.39
10.32
10.35
10.38
10.23
9.76
9.00
8.14
7.45
7.11
7.20
7.61
8.20
8.76
9.17
9.27
8.91
7.92
6.22
3.85
1.07
-1.76
-4.25
-6.17
-7.47
-8.32
-8.96
-9.57
-10.23
-10.90
-11.52
-12.08
-12.62
-13.21
-13.87
-14.54
-15.14
-15.62
-15.99
-16.28
-16.53
-16.64
-16.42
-15.65
-14.21
-12.13
-9.63
-7.01
-4.52
-2.36
-0.56
0.92
2.18
3.32
4.42
5.51
6.56
7.45
8.08
8.37
8.32
8.07
7.76
7.52
7.38
7.25
7.03
6.65
6.14
5.63
5.30
5.23
5.39
5.60
5.67
5.41
4.78
3.89
2.93
2.07
1.34
0.66
-0.12
-1.14
-2.43
-3.89
-5.30
-6.46
-7.23
-7.59
-7.67
-7.64
-7.71
-7.96
-8.43
-9.06
-9.80
-10.59
-11.39
-12.13
-12.70
-12.95
-12.76
-12.10
-11.04
-9.70
-8.21
-6.63
-5.03
-3.43
-1.93
-0.63
0.37
1.05
1.49
1.77
2.04
2.33
2.68
3.05
3.41
3.69
3.86
3.92
3.88
3.84
3.86
4.02
4.29
4.57
4.75
4.75
4.55
4.20
3.82
3.44
3.03
2.48
1.66
0.45
-1.14
-2.96
-4.75
-6.22
-7.14
-7.47
-7.39
-7.20
-7.21
-7.57
-8.23
-9.02
-9.77
-10.49
-11.40
-12.75
-14.66
-16.99
-19.24
-20.82
-21.20
-20.22
-17.98
-14.87
-11.29
-7.56
-3.89
-0.38
2.85
5.62
7.78
9.21
9.92
10.04
9.80
9.42
9.13
9.06
9.30
9.81
10.50
11.23
11.88
12.34
12.56
12.54
12.24
11.63
10.73
9.58
8.30
6.96
5.61
4.16
2.54
0.78
-0.97
-2.43
-3.40
-3.85
-4.06
-4.41
-5.22
-6.56
-8.21
-9.85
-11.15
-12.01
-12.52
-12.89
-13.31
-13.90
-14.65
-15.44
-16.11
-16.44
-16.21
-15.27
-13.62
-11.37
-8.78
-6.06
-3.36
-0.72
1.91
4.56
7.21
9.73
11.94
13.67
14.81
15.38
15.51
15.44
15.31
15.17
14.94
14.53
13.92
13.27
12.84
12.82
13.25
13.89
14.37
14.39
13.83
12.85
11.78
10.90
10.28
9.79
9.17
8.25
7.02
5.64
4.32
3.21
2.31
1.43
0.38
-1.02
-2.72
-4.56
-6.26
-7.57
-8.41
-8.84
-9.09
-9.38
-9.92
-10.79
-11.95
-13.29
-14.61
-15.73
-16.50
-16.79
-16.54
-15.70
-14.23
-12.18
-9.66
-6.86
-3.98
-1.15
1.63
4.45
7.36
10.30
13.04
15.29
16.83
17.64
17.86
17.67
17.22
16.55
15.68
14.68
13.64
12.71
11.96
11.41
11.03
10.88
11.01
11.44
12.05
12.58
12.75
12.38
11.51
10.32
9.07
7.90
6.83
5.84
4.91
4.09
3.42
2.89
2.35
1.65
0.65
-0.65
-2.13
-3.65
-5.07
-6.39
-7.63
-8.86
-10.16
-11.56
-13.09
-14.69
-16.21
-17.41
-18.01
-17.83
-16.83
-15.13
-12.96
-10.57
-8.16
-5.86
-3.75
-1.86
-0.17
1.38
2.90
4.47
6.07
7.57
8.78
9.58
9.94
9.95
9.79
9.61
9.50
9.48
9.52
9.56
9.56
9.50
9.41
9.33
9.25
9.16
9.03
8.80
8.42
7.98
7.59
7.41
7.50
7.74
7.90
7.67
6.87
5.55
3.98
2.54
1.52
0.99
0.78
0.57
0.05
-0.95
-2.34
-3.89
-5.33
-6.49
-7.36
-8.08
-8.82
-9.72
-10.80
-11.97
-13.06
-13.92
-14.36
-14.28
-13.66
-12.55
-11.07
-9.40
-7.67
-5.94
-4.20
-2.35
-0.34
1.82
3.97
5.87
7.24
7.92
7.88
7.28
6.44
5.71
5.33
5.36
5.64
5.89
5.90
5.57
5.01
4.44
4.07
4.04
4.32
4.83
5.44
6.04
6.61
7.11
7.58
7.97
8.21
8.16
7.65
6.55
4.88
2.78
0.51
-1.64
-3.45
-4.83
-5.82
-6.51
-7.03
-7.49
-7.98
-8.63
-9.55
-10.77
-12.21
-13.66
-14.85
-15.52
-15.49
-14.73
-13.31
-11.38
-9.10
-6.59
-3.96
-1.29
1.37
3.95
6.38
8.51
10.17
11.18
11.44
10.96
9.94
8.65
7.37
6.28
5.40
4.68
4.09
3.65
3.48
3.68
4.22
4.98
5.76
6.44
6.99
7.46
7.89
8.24
8.39
8.17
7.48
6.37
5.01
3.60
2.32
1.23
0.23
-0.80
-2.00
-3.41
-4.98
-6.55
-7.95
-9.05
-9.84
-10.40
-10.87
-11.36
-11.90
-12.48
-13.06
-13.62
-14.15
-14.60
-14.90
-14.93
-14.55
-13.70
-12.41
-10.72
-8.77
-6.64
-4.46
-2.34
-0.42
1.23
2.62
3.81
4.96
6.14
7.33
8.44
9.28
9.73
9.77
9.49
9.05
8.65
8.43
8.46
8.67
8.87
8.86
8.51
7.81
6.91
6.01
5.31
4.84
4.55
4.27
3.90
3.37
2.68
1.91
1.09
0.27
-0.53
-1.29
-2.04
-2.81
-3.65
-4.56
-5.52
-6.48
-7.36
-8.15
-8.83
-9.45
-10.04
-10.73
-11.63
-12.89
-14.53
-16.41
-18.20
-19.48
-19.89
-19.28
-17.74
-15.54
-12.95
-10.14
-7.14
-4.03
-0.94
1.89
4.19
5.80
6.77
7.33
7.73
8.18
8.74
9.37
9.96
10.41
10.67
10.71
10.57
10.29
9.97
9.69
9.45
9.22
8.86
8.30
7.54
6.69
5.88
5.24
4.77
4.37
3.90
3.24
2.38
1.41
0.46
-0.36
-1.01
-1.58
-2.19
-2.99
-4.05
-5.37
-6.86
-8.38
-9.80
-11.00
-11.93
-12.52
-12.83
-13.01
-13.27
-13.80
-14.67
-15.70
-16.52
-16.70
-15.91
-14.16
-11.72
-9.06
-6.53
-4.35
-2.46
-0.71
0.97
2.59
3.98
4.99
5.58
5.86
6.02
6.29
6.79
7.49
8.24
8.84
9.14
9.08
8.73
8.22
7.70
7.22
6.81
6.44
6.04
5.62
5.13
4.60
4.04
3.52
3.10
2.83
2.72
2.60
2.31
1.66
0.63
-0.65
-1.87
-2.74
-3.11
-3.02
-2.75
-2.62
-2.89
-3.62
-4.73
-6.01
-7.34
-8.71
-10.19
-11.88
-13.76
-15.68
-17.38
-18.58
-19.10
-18.89
-18.02
-16.58
-14.63
-12.20
-9.33
-6.15
-2.88
0.26
3.07
5.48
7.56
9.38
11.02
12.42
13.49
14.14
14.38
14.31
14.08
13.80
13.51
13.17
12.71
12.12
11.43
10.69
9.97
9.27
8.51
7.64
6.67
5.63
4.66
3.86
3.35
3.10
3.05
3.06
3.00
2.76
2.28
1.59
0.75
-0.15
-1.04
-1.89
-2.72
-3.57
-4.51
-5.57
-6.70
-7.81
-8.79
-9.58
-10.26
-11.01
-12.04
-13.46
-15.22
-17.02
-18.46
-19.14
-18.82
-17.48
-15.33
-12.69
-9.85
-7.02
-4.30
-1.71
0.78
3.16
5.37
7.33
8.93
10.10
10.84
11.19
11.20
10.96
10.55
10.17
10.01
10.21
10.75
11.41
11.90
11.99
11.65
11.10
10.64
10.44
10.45
10.40
9.98
9.09
7.83
6.56
5.62
5.15
5.11
5.23
5.28
5.00
4.34
3.29
1.97
0.52
-0.93
-2.25
-3.39
-4.35
-5.19
-5.98
-6.78
-7.57
-8.32
-9.04
-9.77
-10.65
-11.82
-13.30
-14.96
-16.57
-17.80
-18.40
-18.25
-17.31
-15.71
-13.61
-11.18
-8.57
-5.91
-3.23
-0.55
2.08
4.56
6.70
8.33
9.37
9.96
10.37
10.97
11.94
13.26
14.67
15.77
16.23
15.93
14.95
13.61
12.21
11.00
10.07
9.36
8.76
8.24
7.87
7.78
8.10
8.81
9.72
10.50
10.82
10.49
9.52
8.03
6.23
4.24
2.16
0.05
-2.02
-3.88
-5.42
-6.55
-7.26
-7.66
-7.89
-8.05
-8.23
-8.49
-8.91
-9.59
-10.66
-12.15
-13.92
-15.69
-17.06
-17.69
-17.41
-16.27
-14.49
-12.39
-10.19
-8.00
-5.84
-3.64
-1.37
0.91
3.07
4.88
6.15
6.83
7.01
6.94
6.93
7.18
7.71
8.39
8.99
9.32
9.32
9.06
8.67
8.27
7.91
7.61
7.35
7.14
6.99
6.92
6.92
6.94
6.94
6.89
6.78
6.63
6.42
6.09
5.58
4.79
3.66
2.13
0.21
-2.02
-4.35
-6.57
-8.41
-9.66
-10.27
-10.36
-10.15
-9.96
-10.02
-10.44
-11.24
-12.32
-13.59
-14.88
-15.99
-16.64
-16.52
-15.43
-13.31
-10.36
-6.92
-3.41
-0.14
2.72
5.15
7.22
8.98
10.48
11.69
12.62
13.25
13.66
13.95
14.20
14.48
14.77
15.02
15.18
15.25
15.30
15.39
15.51
15.56
15.37
14.83
13.98
12.95
11.93
11.02
10.11
9.01
7.61
5.94
4.19
2.66
1.48
0.63
-0.12
-1.01
-2.18
-3.59
-5.06
-6.37
-7.36
-8.00
-8.37
-8.65
-9.03
-9.62
-10.46
-11.49
-12.66
-13.89
-15.14
-16.33
-17.35
-17.99
-17.95
-17.02
-15.09
-12.29
-8.96
-5.49
-2.22
0.65
3.02
4.88
6.22
7.06
7.49
7.66
7.76
7.89
8.06
8.14
8.03
7.70
7.30
7.05
7.12
7.53
8.10
8.61
8.83
8.70
8.25
7.60
6.85
6.07
5.27
4.45
3.63
2.83
2.11
1.49
0.97
0.52
0.09
-0.36
-0.86
-1.48
-2.27
-3.26
-4.39
-5.54
-6.49
-7.07
-7.22
-7.06
-6.87
-6.95
-7.59
-8.85
-10.63
-12.64
-14.50
-15.85
-16.43
-16.19
-15.20
-13.70
-11.87
-9.87
-7.71
-5.43
-3.07
-0.78
1.26
2.90
4.07
4.84
5.34
5.70
5.96
6.12
6.13
5.95
5.61
5.20
4.89
4.82
5.06
5.57
6.18
6.67
6.83
6.54
5.77
4.63
3.25
1.88
0.70
-0.15
-0.63
-0.83
-0.86
-0.87
-0.92
-1.04
-1.21
-1.45
-1.84
-2.49
-3.46
-4.73
-6.19
-7.65
-8.94
-9.98
-10.78
-11.46
-12.16
-13.05
-14.12
-15.26
-16.18
-16.56
-16.15
-14.85
-12.81
-10.32
-7.71
-5.24
-3.04
-1.10
0.61
2.15
3.51
4.65
5.50
6.02
6.18
6.04
5.72
5.39
5.14
4.93
4.57
3.75
2.28
0.19
-2.17
-4.26
-5.60
-6.04
-5.89
-5.87
-6.79
-9.19
-13.05
-17.75
-22.27
-25.62
-27.30
-27.71
-28.11
-30.19
-35.34
-43.87
-54.67
-65.28
-72.45
-72.95
-64.41
-46.12
-19.49
12.02
43.61
70.39
88.84
97.94
99.27
96.15
92.13
89.52
88.76
88.65
87.33
83.15
75.36
64.15
50.48
35.62
20.80
7.01
-5.12
-15.16
-22.70
-27.33
-28.71
-26.96
-22.96
-18.23
-14.54
-13.08
-13.94
-15.98
-17.51
-17.11
-14.30
-9.82
-5.15
-1.87
-1.09
-3.05
-7.07
-11.66
-14.90
-14.90
-10.41
-1.26
11.48
25.85
39.64
51.07
59.21
63.94
65.62
64.66
61.36
56.00
49.05
41.29
33.70
27.14
22.08
18.48
15.95
13.95
12.10
10.21
8.35
6.68
5.34
4.43
4.01
4.07
4.58
5.32
5.94
5.97
5.04
3.02
0.18
-3.01
-6.18
-9.35
-13.08
-18.26
-25.71
-35.72
-47.83
-60.94
-73.55
-84.12
-91.25
-93.81
-91.08
-83.01
-70.45
-55.18
-39.51
-25.61
-14.79
-7.17
-1.96
1.98
5.39
8.41
10.65
11.73
11.59
10.60
9.25
7.88
6.52
4.94
2.88
0.27
-2.72
-5.83
-8.80
-11.52
-13.99
-16.30
-18.54
-20.85
-23.39
-26.30
-29.63
-33.18
-36.47
-38.83
-39.60
-38.50
-35.77
-32.26
-29.11
-27.47
-27.87
-29.80
-31.54
-30.30
-22.80
-6.09
21.63
60.26
107.69
159.95
211.94
258.28
294.35
317.04
325.19
319.72
303.15
278.97
250.85
221.88
194.20
168.86
145.92
124.63
103.63
81.18
55.31
24.08
-13.83
-58.33
-107.20
-156.13
-199.46
-231.70
-249.34
-252.02
-242.39
-224.96
-204.26
-183.49
-164.11
-146.33
-129.98
-115.09
-101.94
-90.67
-80.93
-72.01
-63.13
-54.03
-45.06
-37.10
-31.09
-27.65
-26.79
-28.01
-30.41
-33.00
-34.91
-35.62
-35.04
-33.51
-31.58
-29.77
-28.30
-27.07
-25.74
-24.01
-21.74
-19.11
-16.47
-14.13
-12.25
-10.78
-9.56
-8.43
-7.28
-6.07
-4.83
-3.54
-2.19
-0.71
0.99
2.98
5.25
7.68
10.02
11.95
13.20
13.65
13.39
12.64
11.60
10.39
9.00
7.31
5.23
2.76
0.06
-2.66
-5.13
-7.19
-8.77
-9.96
-10.93
-11.81
-12.61
-13.22
-13.44
-13.12
-12.32
-11.30
-10.46
-10.07
-10.13
-10.33
-10.20
-9.33
-7.56
-5.10
-2.34
0.26
2.35
3.76
4.52
4.74
4.64
4.42
4.16
3.89
3.52
2.97
2.26
1.53
1.01
0.83
1.00
1.30
1.44
1.17
0.48
-0.47
-1.31
-1.71
-1.50
-0.75
0.31
1.38
2.23
2.75
2.95
2.91
2.69
2.34
1.89
1.41
0.98
0.66
0.50
0.44
0.43
0.37
0.21
-0.06
-0.50
-1.14
-2.01
-3.10
-4.32
-5.58
-6.88
-8.24
-9.75
-11.46
-13.23
-14.78
-15.73
-15.74
-14.64
-12.53
-9.71
-6.55
-3.39
-0.40
2.42
5.14
7.78
10.32
12.60
14.43
15.74
16.49
16.77
16.67
16.30
15.73
15.02
14.25
13.52
12.97
12.66
12.59
12.64
12.68
12.58
12.24
11.66
10.88
10.00
9.09
8.21
7.35
6.47
5.50
4.39
3.11
1.69
0.21
-1.22
-2.53
-3.69
-4.76
-5.86
-7.14
-8.65
-10.37
-12.10
-13.63
-14.74
-15.40
-15.74
-16.05
-16.55
-17.40
-18.57
-19.82
-20.85
-21.28
-20.84
-19.38
-16.92
-13.68
-9.99
-6.18
-2.44
1.13
4.54
7.77
10.75
13.36
15.52
17.23
18.59
19.74
20.73
21.54
22.07
22.24
22.02
21.48
20.77
20.04
19.45
19.08
18.98
19.13
19.35
19.42
19.12
18.39
17.34
16.21
15.25
14.52
13.85
12.97
11.68
9.98
8.09
6.40
5.26
4.86
5.05
5.41
5.41
4.57
2.78
0.29
-2.31
-4.28
-5.04
-4.59
-3.56
-3.01
-3.97
-6.81
-11.18
-15.94
-19.60
-20.98
-19.90
-17.39
-15.16
-14.71
-16.49
-19.88
-23.30
-24.75
-22.87
-17.94
-12.20
-8.58
-9.54
-16.05
-28.41
-46.11
-67.63
-90.32
-110.54
-124.37
-128.53
-122.77
-111.05
-102.66
-108.00
-132.53
-172.97
-218.10
-253.63
-267.54
-254.62
-216.04
-159.20
-92.33
-20.02
57.54
141.85
226.70
295.75
333.43
339.02
322.14
294.28
263.96
235.79
211.18
189.45
176.22
169.48
169.67
174.82
180.11
179.49
167.62
141.56
101.54
51.62
-6.67
-64.05
-112.05
-145.03
-160.38
-158.34
-141.89
-116.21
-87.10
-59.96
-36.68
-18.23
-4.48
5.55
12.91
18.10
20.81
20.62
17.31
12.57
7.59
3.15
-0.31
-2.70
-4.15
-5.05
-5.75
-6.64
-7.23
-7.41
-7.22
-6.76
-6.12
-5.46
-5.01
-4.95
-5.36
-5.86
-6.23
-6.43
-6.78
-7.76
-9.77
-12.94
-16.92
-21.06
-24.56
-26.87
-27.72
-26.98
-24.45
-19.82
-12.87
-3.93
5.87
14.57
19.96
20.45
15.73
7.12
-2.84
-11.34
-16.22
-16.70
-13.39
-7.85
-1.87
3.13
6.40
7.84
7.84
6.94
5.66
4.39
3.42
3.01
3.42
4.89
7.47
10.88
14.45
17.25
18.44
17.58
14.90
11.16
7.39
4.59
3.34
3.88
6.08
9.65
14.18
19.13
23.77
27.28
28.89
28.16
25.09
20.19
14.37
8.69
4.15
1.49
1.02
2.65
5.86
9.84
13.67
16.52
17.75
17.14
14.76
11.02
6.50
1.77
-2.74
-6.85
-10.71
-14.66
-19.11
-24.30
-30.11
-36.01
-41.23
-44.99
-46.80
-46.64
-44.95
-42.37
-39.57
-36.95
-34.60
-32.43
-30.27
-28.01
-25.64
-23.15
-20.53
-17.75
-14.80
-11.82
-9.12
-7.10
-6.14
-6.27
-7.14
-7.96
-7.82
-5.95
-2.11
3.30
9.42
15.15
19.57
22.13
22.72
21.58
19.20
16.17
13.16
10.74
9.39
9.30
10.36
12.19
14.21
15.80
16.50
16.07
14.51
12.06
9.05
5.90
2.96
0.55
-1.17
-2.20
-2.72
-3.07
-3.62
-4.64
-6.18
-8.08
-10.05
-11.80
-13.18
-14.10
-14.49
-14.29
-13.46
-12.06
-10.31
-8.49
-6.83
-5.32
-3.72
-1.67
1.03
4.24
7.46
9.98
11.26
11.18
10.09
8.72
7.74
7.53
8.02
8.79
9.26
9.00
7.85
5.90
3.40
0.64
-2.09
-4.49
-6.24
-7.02
-6.63
-5.05
-2.56
0.36
3.13
5.18
6.20
6.14
5.24
3.90
2.47
1.16
-0.02
-1.16
-2.28
-3.28
-3.98
-4.22
-4.05
-3.70
-3.53
-3.81
-4.61
-5.77
-7.00
-8.08
-8.90
-9.54
-10.04
-10.40
-10.47
-10.11
-9.29
-8.15
-6.94
-5.77
-4.52
-2.86
-0.47
2.66
6.00
8.66
9.81
9.09
6.90
4.17
1.90
0.53
-0.30
-1.61
-4.48
-9.42
-16.01
-22.94
-28.43
-30.84
-29.02
-22.53
-11.74
2.08
16.63
28.86
35.68
35.15
27.51
15.50
3.54
-3.95
-4.36
2.11
12.65
23.24
30.21
31.56
27.27
18.90
8.81
-0.63
-7.57
-10.96
-10.61
-7.10
-1.60
4.41
9.53
12.61
13.05
10.92
6.98
2.48
-1.37
-3.83
-4.97
-5.51
-6.21
-7.22
-7.66
-5.99
-0.85
8.04
19.37
30.51
38.37
40.38
35.41
23.84
7.48
-10.96
-28.33
-41.59
-48.41
-47.71
-40.12
-27.81
-13.96
-1.80
6.33
9.55
8.34
4.04
-1.72
-7.61
-12.72
-16.57
-18.96
-19.88
-19.60
-18.52
-17.15
-15.89
-14.93
-14.23
-13.60
-12.88
-11.99
-11.02
-10.10
-9.40
-9.04
-9.16
-9.89
-11.32
-13.43
-16.00
-18.62
-20.73
-21.82
-21.57
-20.02
-17.54
-14.74
-12.26
-10.48
-9.41
-8.66
-7.63
-5.89
-3.49
-1.09
0.21
-0.60
-3.95
-9.29
-15.21
-19.95
-22.02
-20.80
-16.63
-10.74
-5.01
-1.56
-2.40
-8.66
-19.81
-33.09
-43.74
-46.13
-35.66
-10.61
26.97
71.66
116.35
154.36
181.21
195.31
197.69
190.82
177.61
160.48
141.19
121.12
101.66
84.46
71.11
62.63
58.88
58.59
59.89
61.23
61.97
62.29
62.48
62.03
59.26
51.73
37.38
15.76
-11.42
-40.52
-67.01
-86.66
-96.46
-95.24
-83.72
-64.21
-40.05
-14.73
9.00
29.63
47.09
62.16
75.60
87.46
96.81
102.19
102.36
97.14
87.53
75.43
62.97
51.86
43.05
36.59
31.83
27.69
23.13
17.48
10.77
3.66
-2.93
-8.43
-12.95
-17.33
-22.66
-29.55
-37.78
-46.32
-53.92
-59.76
-63.87
-66.99
-70.18
-74.43
-80.39
-88.55
-99.21
-112.32
-127.15
-142.22
-155.44
-164.84
-169.26
-168.59
-163.55
-154.81
-142.29
-125.34
-103.57
-78.05
-52.11
-30.61
-18.13
-16.76
-24.97
-38.11
-50.36
-57.07
-56.22
-48.70
-37.63
-27.14
-21.57
-24.62
-38.47
-62.71
-93.84
-125.93
-152.54
-169.12
-174.36
-169.99
-159.21
-145.00
-129.39
-113.78
-99.54
-87.96
-79.52
-73.25
-66.98
-58.49
-46.96
-33.36
-19.58
-7.14
3.68
13.50
22.92
31.85
39.85
46.99
54.36
63.59
75.62
89.84
104.13
116.12
124.39
128.89
130.06
127.66
120.44
107.00
87.41
64.14
41.61
24.25
14.51
12.01
14.31
18.91
25.06
34.13
48.51
69.24
94.41
118.95
136.36
141.40
132.21
111.05
83.14
54.55
30.00
11.89
0.46
-5.26
-6.56
-4.72
-1.09
2.78
5.22
4.94
1.53
-4.39
-11.56
-18.69
-24.97
-30.16
-34.46
-38.14
-41.43
-44.45
-47.20
-49.75
-52.08
-54.14
-55.92
-57.47
-58.83
-60.05
-61.06
-61.68
-61.84
-61.62
-61.39
-61.54
-62.31
-63.51
-64.63
-65.03
-64.22
-61.90
-57.88
-52.16
-45.05
-37.41
-30.79
-26.58
-25.25
-25.52
-24.33
-18.02
-4.26
16.46
40.75
63.63
80.35
87.71
84.70
72.59
54.81
36.47
23.37
20.25
28.79
46.45
67.09
83.55
90.83
88.07
78.17
65.23
51.86
38.18
23.20
6.71
-9.90
-24.30
-35.39
-43.95
-51.54
-58.56
-63.21
-61.98
-51.89
-33.00
-8.85
15.04
34.09
47.05
56.27
66.37
81.78
104.32
132.13
160.14
180.50
184.53
166.34
126.22
71.93
16.49
-26.60
-48.73
-48.53
-32.64
-12.76
-0.32
-1.44
-14.78
-33.03
-46.83
-48.82
-34.87
-8.05
22.15
43.80
48.17
33.58
5.79
-24.48
-45.37
-44.96
-17.98
32.50
96.58
161.37
214.61
247.41
256.41
244.72
223.88
205.60
196.36
196.78
204.50
216.75
231.50
247.14
238.82
194.44
122.14
42.17
-29.91
-87.38
-128.32
-153.20
-164.46
-167.63
-164.18
-155.68
-145.35
-136.78
-131.44
-128.15
-125.27
-122.13
-116.80
-107.52
-94.85
-81.97
-72.73
-69.00
-69.95
-73.40
-77.11
-79.72
-79.41
-75.66
-69.68
-63.44
-58.17
-54.01
-50.64
-47.68
-44.83
-41.29
-36.56
-31.11
-25.99
-22.13
-19.83
-18.83
-18.48
-18.10
-17.19
-15.79
-14.51
-14.09
-14.82
-16.36
-17.97
-18.95
-19.01
-18.41
-17.69
-17.46
-18.04
-19.48
-21.57
-23.99
-26.42
-28.70
-30.80
-32.76
-34.73
-36.83
-39.26
-42.12
-45.44
-49.08
-52.87
-56.69
-60.61
-64.92
-69.85
-75.42
-81.16
-86.34
-90.23
-92.63
-94.09
-95.73
-98.62
-103.08
-108.42
-113.15
-115.72
-115.35
-112.35
-107.76
-102.71
-97.80
-92.91
-87.55
-80.92
-71.83
-58.32
-37.83
-8.18
30.86
76.16
121.20
157.64
178.27
179.88
164.96
140.93
116.92
99.87
91.84
90.24
90.51
89.30
86.56
84.79
86.37
90.92
94.98
94.46
88.07
78.53
70.73
67.91
68.84
68.27
60.68
44.74
25.08
10.14
6.93
17.17
36.62
58.01
74.95
84.43
86.64
82.77
73.43
58.09
36.86
12.67
-8.68
-20.66
-19.19
-5.03
16.40
37.88
52.31
55.72
48.39
34.11
18.01
4.13
-5.41
-9.89
-7.60
2.16
18.49
38.82
59.38
76.43
88.12
96.06
104.54
119.43
141.41
164.61
179.62
178.51
158.64
123.76
81.91
31.20
-21.28
-65.65
-96.49
-114.81
-123.70
-125.41
-121.68
-114.61
-106.94
-99.53
-93.36
-89.19
-86.64
-84.53
-82.06
-79.55
-78.31
-80.45
-85.56
-93.01
-101.65
-109.41
-113.52
-111.83
-104.12
-92.33
-80.11
-70.22
-64.30
-62.11
-61.45
-59.04
-51.68
-37.68
-17.40
8.03
35.55
61.27
81.76
95.09
101.22
101.60
97.58
89.25
74.87
53.77
28.04
2.34
-17.86
-28.54
-28.75
-21.87
-14.99
-16.96
-32.68
-60.38
-92.73
-120.26
-135.38
-134.51
-119.35
-90.26
-55.43
-26.47
-9.17
0.61
13.32
34.45
63.47
95.59
124.80
141.58
141.39
125.73
100.99
75.60
56.82
48.91
51.31
59.93
69.05
75.95
81.21
86.60
92.51
96.97
97.35
91.05
77.26
57.07
34.15
12.76
-4.20
-16.07
-24.14
-30.26
-37.14
-47.16
-61.62
-79.72
-99.83
-121.04
-143.95
-170.15
-193.11
-204.74
-199.16
-176.56
-141.53
-100.44
-59.80
-24.99
1.30
19.85
32.89
42.78
50.65
56.84
59.89
58.40
52.24
43.03
33.57
25.65
19.55
14.20
8.15
0.10
-10.29
-22.36
-34.42
-44.41
-51.55
-56.74
-62.17
-70.24
-82.44
-98.43
-116.14
-132.83
-146.59
-157.46
-166.87
-176.02
-184.37
-189.56
-188.84
-181.30
-168.87
-155.65
-145.46
-139.24
-134.10
-124.69
-106.18
-76.70
-38.02
6.03
52.00
98.54
146.48
197.43
251.89
308.10
362.28
409.61
445.82
468.56
478.06
477.18
470.36
461.92
454.37
447.56
439.12
426.00
406.34
380.52
350.81
320.02
289.91
260.51
230.63
199.05
165.60
131.33
97.83
66.30
37.08
9.83
-15.91
-40.18
-62.38
-81.66
-97.52
-110.32
-121.54
-133.70
-149.81
-172.35
-202.00
-236.71
-271.60
-300.11
-316.09
-316.11
-300.67
-274.04
-242.47
-211.80
-185.72
-165.17
-149.22
-136.34
-125.44
-116.19
-108.55
-102.27
-96.65
-90.77
-84.02
-76.40
-68.58
-61.59
-56.20
-52.54
-49.93
-47.18
-43.17
-37.41
-30.37
-23.32
-18.01
-15.93
-17.93
-23.91
-32.87
-43.12
-52.81
-60.33
-64.69
-65.63
-63.46
-58.75
-52.11
-44.11
-35.47
-27.20
-20.51
-16.46
-15.45
-16.96
-19.75
-22.43
-24.07
-24.61
-24.59
-24.75
-25.43
-26.39
-26.91
-26.22
-23.85
-19.86
-14.86
-9.80
-5.73
-3.49
-3.55
-5.92
-10.21
-15.83
-22.17
-28.68
-34.94
-40.50
-44.74
-46.86
-45.94
-41.19
-32.33
-19.88
-5.34
9.13
21.30
29.44
32.85
31.88
27.69
21.62
14.69
7.36
-0.49
-8.96
-17.84
-26.36
-33.28
-37.26
-37.33
-33.50
-26.97
-20.02
-15.07
-13.88
-17.00
-23.43
-31.02
-37.27
-40.45
-40.17
-37.77
-34.97
-33.23
-33.26
-34.65
-35.81
-34.49
-28.69
-17.41
-2.01
14.75
28.55
33.99
26.24
3.11
-33.46
-77.41
-119.43
-150.31
-162.20
-151.28
-119.00
-70.98
-14.46
43.72
98.06
148.92
190.70
217.95
229.15
226.99
215.97
201.04
188.06
179.01
173.79
170.17
165.53
156.32
138.41
108.12
65.82
17.44
-26.46
-54.86
-62.47
-52.25
-35.48
-27.44
-40.55
-78.75
-136.51
-201.43
-259.72
-300.73
-317.76
-307.87
-271.02
-210.13
-131.43
-44.74
38.57
107.55
154.49
177.45
180.30
171.13
159.24
152.13
147.85
142.77
131.22
108.67
75.33
37.37
5.31
-9.95
-1.49
29.98
76.45
124.03
158.26
169.42
155.52
122.27
79.93
38.77
5.17
-19.03
-35.73
-47.64
-55.98
-60.01
-58.29
-50.90
-39.71
-28.49
-20.45
-17.02
-17.10
-17.96
-16.93
-12.63
-6.09
-0.18
1.51
-2.96
-12.84
-24.65
-33.79
-36.61
-32.02
-22.09
-10.94
-3.15
-1.06
-4.15
-9.57
-14.17
-15.93
-13.85
-8.26
-0.30
7.87
14.97
20.44
24.48
27.00
27.73
26.85
25.09
23.63
22.85
23.95
28.62
38.97
56.06
76.78
95.43
106.15
111.43
110.97
104.79
90.59
69.68
44.73
18.90
-4.51
-22.79
-34.34
-39.92
-40.87
-38.98
-35.73
-32.85
-31.69
-32.48
-34.41
-36.16
-37.23
-37.18
-36.01
-33.81
-31.22
-28.96
-27.35
-26.24
-25.36
-24.96
-25.07
-25.46
-25.36
-24.00
-20.83
-15.76
-9.32
-2.58
3.04
6.66
8.20
8.34
7.95
7.65
7.71
8.13
8.97
10.34
12.61
16.17
21.20
27.31
33.65
39.15
42.98
44.96
45.75
46.69
49.37
54.90
63.49
74.28
85.72
96.18
104.41
109.64
111.20
108.37
100.36
86.96
69.16
49.24
30.07
13.83
1.08
-9.34
-19.35
-30.24
-41.95
-53.22
-62.84
-70.56
-77.54
-85.62
-96.16
-109.13
-123.04
-135.54
-144.21
-147.25
-143.62
-132.93
-115.27
-91.22
-62.01
-29.63
3.29
33.88
59.67
79.26
92.59
100.77
105.37
107.46
107.02
102.94
93.85
79.30
60.55
40.61
23.28
11.68
7.06
8.43
13.01
17.53
19.47
17.90
13.57
8.24
3.79
1.40
1.24
2.66
4.66
6.31
6.95
6.13
3.58
-0.61
-5.52
-9.05
-8.23
-0.15
16.54
40.56
67.98
93.32
111.48
119.23
115.83
102.50
81.41
54.81
24.84
-6.24
-35.74
-60.80
-78.98
-89.07
-91.54
-88.43
-82.66
-77.27
-74.64
-76.01
-81.28
-89.23
-98.02
-105.89
-111.84
-115.94
-119.14
-122.66
-127.29
-133.07
-139.31
-145.13
-149.85
-153.22
-155.24
-155.80
-154.55
-151.05
-145.10
-137.18
-128.52
-120.74
-115.31
-112.95
-113.28
-115.04
-116.48
-116.11
-113.14
-107.71
-100.63
-92.85
-84.98
-76.89
-67.78
-56.49
-42.05
-24.07
-3.09
19.49
41.67
61.32
76.73
87.06
92.47
93.95
92.86
90.37
87.04
82.82
77.37
70.43
62.22
53.51
45.34
38.69
34.17
31.82
31.34
32.11
33.42
34.49
34.57
33.07
29.72
24.77
18.96
13.38
8.98
6.23
4.89
4.13
2.99
0.78
-2.61
-6.73
-10.78
-13.92
-15.57
-15.68
-14.81
-14.03
-14.67
-17.79
-23.82
-32.20
-41.50
-49.84
-55.55
-57.76
-56.53
-52.65
-47.27
-41.43
-35.60
-29.61
-22.85
-14.65
-4.75
6.62
18.70
30.42
40.77
49.30
56.07
61.36
65.11
66.78
66.07
63.53
60.64
59.52
62.28
69.95
81.93
96.06
109.30
119.66
126.87
131.97
136.36
140.83
144.50
144.66
137.67
120.33
92.75
59.01
25.70
-0.47
-15.04
-17.60
-11.62
-0.29
10.58
16.67
18.43
19.06
20.00
19.62
15.10
5.34
-8.13
-22.14
-32.82
-37.87
-38.14
-36.77
-37.14
-40.95
-47.92
-54.35
-57.73
-56.56
-51.30
-44.30
-38.80
-37.20
-40.15
-46.51
-54.12
-61.19
-66.38
-69.13
-69.90
-69.59
-68.87
-67.72
-65.70
-62.40
-58.24
-54.04
-50.67
-48.56
-47.32
-45.86
-43.02
-38.27
-32.07
-25.65
-20.08
-15.61
-11.76
-7.85
-3.58
0.61
3.97
6.09
7.43
9.29
13.16
19.82
28.80
38.59
47.27
53.39
56.48
57.11
56.48
55.84
55.95
56.92
58.33
59.51
59.92
59.28
57.78
55.88
54.14
52.91
52.05
50.93
48.54
44.02
37.03
28.03
18.08
8.38
-0.23
-7.45
-13.49
-18.81
-23.82
-28.87
-34.26
-40.29
-47.09
-54.55
-62.28
-69.88
-77.21
-84.55
-92.35
-100.81
-109.42
-116.98
-122.04
-123.49
-121.11
-115.61
-108.25
-100.23
-92.28
-84.46
-76.34
-67.37
-57.33
-46.48
-35.68
-26.03
-18.46
-13.25
-9.75
-6.46
-1.34
7.71
22.27
42.67
67.63
94.12
118.15
135.98
145.64
147.85
145.61
142.88
142.45
144.81
148.06
149.38
146.84
140.44
131.86
123.13
115.22
107.43
98.02
85.47
69.64
52.01
35.05
21.00
10.94
4.58
0.66
-2.10
-4.36
-6.06
-6.86
-6.82
-6.69
-7.63
-10.25
-13.94
-16.74
-16.26
-10.87
-0.74
12.29
25.59
37.00
45.64
51.66
55.42
56.80
55.11
49.63
40.34
28.20
14.82
1.98
-8.82
-16.39
-19.94
-19.17
-14.61
-7.65
-0.20
6.01
10.18
12.59
14.21
15.94
18.02
20.05
21.52
22.43
23.39
25.30
28.69
33.42
38.75
43.80
48.12
51.85
55.56
59.80
64.88
70.74
77.13
83.87
90.91
98.25
105.66
112.60
118.12
121.26
121.32
118.07
111.95
103.92
95.17
86.70
78.82
71.00
62.25
51.75
39.48
26.33
13.63
2.15
-8.47
-19.71
-33.29
-50.17
-69.87
-90.68
-110.55
-127.91
-142.11
-153.15
-161.18
-166.06
-167.40
-165.06
-159.31
-151.04
-141.41
-131.47
-121.90
-112.97
-104.77
-97.32
-90.79
-85.27
-80.66
-76.45
-71.83
-65.94
-58.24
-48.90
-38.72
-28.89
-20.48
-14.10
-9.69
-6.69
-4.33
-1.91
0.89
4.03
7.09
9.53
10.81
10.73
9.45
7.51
5.51
3.89
2.62
1.34
-0.37
-2.60
-4.97
-6.74
-7.34
-6.70
-5.38
-4.33
-4.40
-5.99
-8.92
-12.58
-16.29
-19.55
-22.13
-24.03
-25.37
-26.44
-27.58
-29.22
-31.61
-34.63
-37.70
-39.88
-40.21
-38.17
-33.95
-28.37
-22.61
-17.60
-13.77
-10.89
-8.38
-5.61
-2.28
1.61
5.81
10.04
14.04
17.61
20.53
22.59
23.61
23.60
22.76
21.48
20.24
19.49
19.52
20.38
21.93
23.83
25.66
27.06
27.86
28.06
27.73
26.96
25.76
24.17
22.30
20.36
18.68
17.53
16.97
16.81
16.65
16.01
14.52
12.10
8.94
5.45
2.07
-0.97
-3.71
-6.51
-9.77
-13.81
-18.66
-24.02
-29.50
-34.72
-39.50
-43.81
-47.68
-51.11
-54.04
-56.34
-57.96
-58.86
-58.97
-58.13
-56.12
-52.69
-47.67
-41.05
-33.00
-23.90
-14.38
-5.36
2.15
7.25
9.57
9.42
7.76
5.93
5.39
7.51
13.44
23.94
39.08
57.87
78.22
97.43
113.20
124.67
132.68
139.17
145.98
153.70
161.33
166.83
168.17
164.25
155.08
141.51
124.69
105.81
86.17
67.28
50.67
37.29
26.88
17.72
7.21
-6.94
-25.53
-47.29
-69.26
-87.98
-100.86
-107.04
-107.50
-104.39
-100.05
-96.32
-94.23
-94.20
-96.18
-99.81
-104.24
-108.19
-110.10
-108.61
-103.09
-93.96
-82.64
-71.05
-60.98
-53.43
-48.46
-45.26
-42.69
-39.70
-35.75
-30.87
-25.56
-20.60
-16.66
-14.09
-12.79
-12.25
-11.84
-11.05
-9.65
-7.72
-5.62
-3.83
-2.74
-2.58
-3.25
-4.31
-5.00
-4.62
-2.74
0.44
4.05
6.93
7.96
6.68
3.46
-0.69
-4.51
-6.93
-7.40
-5.99
-3.17
0.37
4.03
7.32
9.95
11.80
12.90
13.43
13.75
14.25
15.38
17.54
21.06
26.15
32.76
40.47
48.44
55.46
60.36
62.60
62.99
63.29
65.39
70.28
77.41
85.07
91.09
93.92
93.25
90.16
86.15
82.20
78.18
73.12
66.21
57.02
45.61
32.39
18.38
4.49
-8.66
-20.81
-31.77
-40.66
-47.04
-51.63
-56.28
-61.69
-68.00
-74.86
-81.94
-88.99
-94.55
-98.29
-101.70
-107.58
-115.66
-124.38
-132.09
-138.17
-142.87
-144.22
-141.30
-135.17
-128.99
-121.62
-110.75
-94.13
-70.26
-37.88
7.03
65.29
131.75
195.03
247.49
283.78
301.22
299.85
261.84
186.39
94.79
27.74
-11.71
-29.00
-32.45
-27.69
-20.17
-13.74
-6.18
5.60
22.10
39.17
55.70
70.96
84.74
97.70
111.86
131.79
158.69
187.94
209.64
217.72
209.85
187.64
155.40
118.88
85.27
59.63
43.42
34.20
29.83
27.19
22.22
11.02
-8.41
-34.31
-62.68
-89.03
-110.03
-122.61
-125.19
-117.77
-102.13
-81.17
-58.13
-36.59
-19.63
-9.11
-4.49
-3.79
-4.84
-6.47
-8.45
-11.05
-14.42
-18.36
-22.62
-27.18
-32.44
-38.99
-47.41
-57.15
-66.50
-73.46
-76.82
-76.84
-74.89
-72.76
-71.91
-73.88
-78.17
-82.50
-84.62
-83.63
-81.05
-79.35
-80.69
-86.19
-97.63
-113.75
-130.83
-145.32
-154.88
-159.35
-157.84
-148.33
-129.32
-104.69
-78.05
-51.49
-26.81
-5.70
7.83
9.91
-3.32
-35.32
-90.91
-165.28
-243.06
-305.32
-337.12
-335.66
-307.35
-264.48
-190.63
-94.32
-2.22
64.42
97.63
116.08
130.03
141.35
149.95
152.17
139.86
110.67
70.15
28.14
-4.03
-20.88
-20.61
-5.37
18.52
38.75
46.14
38.28
18.91
-2.01
-16.39
-18.07
-3.94
25.79
66.88
116.63
174.47
239.24
308.47
372.03
416.44
431.19
413.40
368.14
307.36
244.91
176.23
106.68
45.61
-0.60
-32.59
-54.69
-71.09
-83.74
-93.15
-99.22
-99.68
-95.39
-89.84
-86.73
-88.35
-95.38
-105.77
-116.59
-124.79
-126.39
-120.44
-108.87
-94.57
-79.84
-66.20
-54.40
-44.76
-36.90
-28.64
-18.43
-7.14
4.25
14.94
24.57
33.56
43.22
55.82
74.65
101.96
138.07
181.18
227.09
269.61
301.64
316.88
311.98
288.05
250.01
204.76
158.57
114.54
71.84
27.13
-22.63
-77.23
-131.88
-177.95
-205.60
-207.28
-181.11
-132.45
-73.10
-17.97
19.78
32.82
21.55
-7.18
-43.46
-78.42
-106.39
-125.06
-133.97
-132.92
-122.14
-103.66
-82.49
-66.06
-61.57
-72.51
-96.49
-126.08
-151.88
-166.41
-166.44
-152.69
-127.43
-92.21
-47.36
6.21
64.24
118.27
157.47
172.97
162.06
129.64
86.29
43.99
11.97
-5.53
-9.01
-2.09
10.26
22.45
28.38
22.43
1.52
-32.44
-71.62
-104.25
-119.35
-111.58
-83.76
-45.32
-7.61
21.12
38.37
46.39
48.95
48.07
43.24
33.18
18.43
2.65
-8.89
-12.52
-9.13
-4.37
-6.39
-21.80
-52.65
-95.73
-144.02
-189.35
-224.58
-244.58
-246.12
-227.69
-189.87
-136.25
-74.08
-13.62
34.23
61.39
65.49
50.78
26.32
2.51
-12.59
-15.17
-5.28
14.92
42.87
76.16
111.90
146.05
173.82
191.45
198.16
196.93
193.50
193.99
202.27
218.60
239.69
260.28
275.02
279.84
272.64
253.01
221.97
181.52
134.56
84.78
36.24
-7.16
-42.57
-68.63
-85.85
-96.07
-101.90
-105.82
-109.37
-112.98
-116.20
-118.79
-121.58
-126.62
-136.17
-150.97
-168.84
-184.83
-193.10
-189.68
-174.58
-151.94
-128.06
-108.59
-96.40
-91.12
-90.52
-92.24
-94.75
-97.20
-98.72
-98.02
-93.65
-84.85
-72.15
-57.45
-43.79
-34.11
-30.13
-31.46
-35.55
-38.34
-35.83
-25.59
-7.93
14.12
36.31
55.05
68.74
77.63
82.97
85.89
86.68
85.00
80.06
71.91
62.15
53.55
48.56
48.27
51.81
56.64
59.53
57.20
48.12
33.98
19.18
8.58
5.74
11.45
23.62
38.16
49.71
53.72
48.36
34.34
13.58
-10.81
-34.16
-50.71
-49.60
-24.08
19.49
64.14
92.42
94.44
72.06
36.75
3.59
-16.16
-20.89
-16.92
-13.05
-13.99
-19.37
-24.57
-24.47
-16.66
-3.10
10.22
16.82
13.78
3.32
-11.56
-25.28
-33.15
-33.13
-25.89
-14.42
-1.81
10.67
23.58
37.45
51.81
64.01
70.18
67.55
55.15
34.81
10.83
-11.49
-28.12
-37.22
-39.77
-38.62
-36.11
-34.22
-33.62
-33.67
-32.93
-30.25
-24.91
-16.77
-5.88
8.64
26.38
45.46
62.50
74.03
77.98
75.50
71.04
63.77
56.20
49.97
43.82
34.51
20.76
5.26
-7.13
-13.11
-13.50
-10.66
-9.55
-12.49
-18.17
-22.60
-22.13
-15.90
-6.51
1.65
5.96
3.98
-3.15
-11.98
-18.72
-21.42
-20.83
-19.60
-20.33
-23.27
-26.94
-28.58
-26.15
-19.50
-10.46
-1.86
4.00
6.38
6.39
5.67
5.76
7.09
9.07
10.55
10.60
8.90
5.96
2.80
0.27
-1.13
-1.55
-1.54
-1.76
-2.64
-4.27
-6.47
-8.97
-11.67
-14.58
-17.86
-21.63
-25.82
-30.06
-33.71
-36.08
-36.71
-35.59
-33.09
-29.88
-26.59
-23.54
-20.71
-17.82
-14.61
-11.05
-7.36
-3.87
-0.77
1.95
4.50
7.08
9.68
12.11
14.06
15.40
16.23
16.87
17.67
18.77
20.02
21.02
21.37
20.81
19.35
17.26
14.89
12.60
10.61
9.06
7.98
7.38
7.25
7.48
7.89
8.21
8.14
7.51
6.24
4.46
2.33
0.07
-2.21
-4.44
-6.60
-8.65
-10.56
-12.33
-14.03
-15.76
-17.59
-19.53
-21.51
-23.46
-25.29
-26.95
-28.28
-29.08
-29.03
-27.92
-25.70
-22.60
-19.03
-15.37
-11.88
-8.58
-5.32
-1.96
1.56
5.13
8.57
11.66
14.21
16.07
17.13
17.39
16.95
16.07
15.09
14.30
13.83
13.64
13.55
13.34
12.83
11.97
10.76
9.26
7.53
5.67
3.88
2.38
1.27
0.38
-0.67
-2.40
-5.10
-8.69
-12.56
-15.85
-17.84
-18.43
-18.22
-18.37
-20.05
-23.84
-29.42
-35.65
-41.06
-44.51
-45.76
-45.55
-45.32
-46.48
-49.78
-55.01
-60.91
-65.39
-65.78
-59.37
-44.14
-19.79
11.38
44.39
72.53
89.64
92.60
82.91
66.27
50.33
41.56
42.79
52.57
66.37
79.05
87.21
90.09
89.09
86.39
83.76
82.04
81.41
81.55
82.13
82.73
82.51
80.07
74.08
64.30
52.48
41.92
35.39
33.74
35.37
37.08
35.68
29.53
19.14
6.81
-4.95
-15.50
-25.64
-36.02
-45.89
-53.46
-57.12
-56.75
-53.50
-49.38
-47.20
-49.27
-56.24
-67.13
-80.60
-95.39
-110.48
-123.85
-127.61
-115.22
-88.15
-56.26
-30.05
-15.82
-11.78
-14.86
-21.71
-29.57
-37.01
-43.07
-46.45
-45.35
-38.59
-26.42
-10.79
5.69
20.43
30.79
35.72
36.89
38.14
43.20
53.59
68.17
83.76
96.43
102.05
98.47
86.44
69.11
50.40
33.33
19.64
9.43
1.23
-8.21
-22.02
-41.58
-64.49
-85.02
-101.30
-112.88
-121.13
-124.98
-126.28
-127.77
-131.49
-137.72
-144.66
-149.12
-146.98
-135.22
-113.22
-83.58
-50.41
-17.73
11.60
36.08
55.11
68.96
77.78
81.47
79.58
72.57
62.02
50.03
38.27
27.50
18.03
9.92
3.38
-1.37
-3.96
-3.96
-1.50
2.89
8.93
16.95
27.47
40.57
55.36
70.49
84.95
97.74
107.84
114.47
117.10
115.43
109.81
101.91
94.91
93.20
99.30
112.42
128.99
144.08
152.95
152.68
143.00
126.28
107.13
89.12
73.45
59.48
45.41
28.69
6.87
-21.38
-59.79
-102.35
-137.56
-156.74
-158.08
-144.57
-121.12
-93.08
-65.85
-44.57
-32.65
-31.23
-40.43
-57.57
-77.01
-92.46
-100.07
-100.12
-96.51
-93.54
-94.42
-99.53
-104.45
-103.00
-90.14
-65.23
-32.67
0.30
27.52
45.75
55.36
59.60
62.14
65.10
68.29
70.32
70.28
68.98
68.18
69.47
73.38
78.99
84.23
86.90
85.69
80.75
73.41
65.15
56.67
47.75
37.41
24.56
8.56
-10.33
-30.91
-51.25
-69.21
-83.04
-91.87
-96.04
-96.87
-96.12
-95.19
-94.49
-93.52
-91.37
-87.53
-82.42
-77.42
-74.07
-73.30
-74.74
-76.72
-76.80
-72.71
-63.23
-48.57
-30.27
-10.65
7.84
23.37
35.03
43.04
48.44
52.71
57.20
62.69
69.08
75.43
80.20
81.78
78.91
70.92
57.86
40.51
20.42
-0.05
-17.79
-29.44
-31.80
-22.25
0.80
37.34
85.03
138.72
190.73
232.39
256.23
258.19
238.56
201.57
153.98
103.57
58.02
24.25
7.74
11.27
33.74
69.65
110.01
144.74
165.44
167.41
150.02
115.62
68.15
12.35
-46.77
-104.05
-154.56
-194.47
-221.82
-236.67
-240.80
-237.31
-229.67
-221.13
-214.06
-209.16
-205.22
-199.57
-189.43
-173.87
-154.84
-136.30
-121.91
-112.89
-107.39
-102.28
-95.77
-88.95
-85.49
-88.85
-99.11
-111.90
-120.63
-120.54
-111.63
-98.49
-86.71
-80.65
-81.77
-88.75
-98.84
-109.71
-120.36
-130.60
-139.75
-144.44
-141.84
-131.17
-113.57
-90.49
-63.10
-32.37
0.31
33.11
66.35
98.57
126.41
146.85
160.18
170.05
181.72
200.13
228.93
272.49
328.93
389.24
440.59
472.86
481.72
468.77
439.87
379.92
290.10
187.91
95.06
21.47
-34.11
-76.96
-111.16
-139.03
-160.34
-169.43
-162.99
-142.52
-113.23
-79.15
-42.26
-3.76
29.08
49.32
56.86
53.90
45.28
28.53
3.06
-28.44
-61.34
-89.78
-106.19
-102.76
-76.99
-33.92
14.70
56.05
79.93
81.71
63.34
32.35
-1.75
-32.66
-58.78
-81.75
-102.10
-118.38
-128.07
-129.66
-123.69
-112.96
-101.68
-93.40
-89.60
-88.69
-87.64
-83.82
-76.17
-65.17
-52.49
-40.21
-29.98
-22.70
-17.97
-14.64
-11.36
-7.09
-1.41
5.26
11.90
17.29
20.63
21.90
21.81
21.35
21.25
21.67
22.21
22.30
21.59
20.25
18.82
17.87
17.72
18.26
19.13
19.89
20.39
20.66
20.96
21.54
22.52
23.89
25.51
27.17
28.58
29.39
29.21
27.74
24.88
20.81
15.98
10.93
6.13
1.91
-1.62
-4.51
-6.81
-8.59
-9.90
-10.84
-11.58
-12.35
-13.43
-14.97
-16.97
-19.23
-21.40
-23.07
-23.88
-23.62
-22.25
-19.92
-16.86
-13.35
-9.67
-6.09
-2.82
0.06
2.56
4.85
7.04
9.21
11.27
13.00
14.23
14.92
15.22
15.34
15.48
15.66
15.75
15.61
15.20
14.67
14.27
14.20
14.44
14.70
14.57
13.69
12.00
9.83
7.81
6.59
6.56
7.63
9.17
10.30
10.13
8.23
4.81
0.72
-2.89
-4.97
-4.97
-2.95
0.49
4.58
8.69
12.57
16.37
20.34
24.71
29.42
34.16
38.30
41.14
41.93
40.25
36.13
30.37
24.34
19.74
17.91
19.27
23.06
27.57
30.79
31.22
28.46
23.39
17.80
13.84
13.27
16.84
23.83
32.18
38.99
41.63
38.80
31.09
20.69
10.37
2.23
-3.09
-6.31
-8.73
-11.22
-13.84
-16.05
-17.34
-17.82
-18.18
-19.31
-21.64
-24.92
-28.39
-31.22
-33.02
-33.92
-34.44
-35.08
-36.11
-37.37
-38.46
-38.90
-38.29
-36.56
-33.99
-31.24
-29.29
-29.20
-31.73
-37.05
-44.56
-53.02
-60.92
-66.91
-70.12
-70.17
-67.06
-61.03
-52.42
-41.79
-29.86
-17.58
-5.80
4.80
13.95
21.59
27.84
32.68
35.95
37.44
37.06
35.06
31.98
28.48
25.06
21.90
18.80
15.43
11.58
7.34
3.19
-0.26
-2.49
-3.36
-3.10
-2.20
-1.18
-0.34
0.21
0.54
0.66
0.53
0.02
-0.89
-2.05
-3.13
-3.70
-3.45
-2.29
-0.39
1.89
4.21
6.25
7.91
9.18
10.15
10.91
11.46
11.69
11.34
10.10
7.70
4.07
-0.60
-5.86
-11.11
-15.74
-19.28
-21.47
-22.31
-21.98
-20.83
-19.18
-17.29
-15.25
-13.00
-10.44
-7.49
-4.22
-0.80
2.52
5.55
8.22
10.61
12.85
15.01
17.00
18.59
19.51
19.61
18.99
17.93
16.84
16.03
15.56
15.24
14.75
13.84
12.49
10.99
9.73
9.07
9.03
9.34
9.51
9.11
8.05
6.62
5.39
4.91
5.32
6.25
6.94
6.53
4.45
0.61
-4.57
-10.32
-15.80
-20.18
-22.83
-23.41
-21.97
-19.01
-15.36
-11.92
-9.26
-7.46
-6.12
-4.82
-3.49
-2.54
-2.69
-4.48
-7.89
-12.24
-16.44
-19.50
-20.90
-20.68
-19.30
-17.28
-15.02
-12.62
-10.04
-7.21
-4.07
-0.58
3.34
7.88
13.05
18.57
23.69
27.30
28.34
26.24
21.36
15.01
9.13
5.62
5.70
9.48
15.99
23.56
30.42
35.25
37.47
37.25
35.21
32.13
28.59
24.91
21.22
17.51
13.81
10.14
6.51
2.86
-0.86
-4.62
-8.29
-11.58
-14.17
-15.79
-16.35
-15.98
-15.03
-13.94
-13.20
-13.14
-13.84
-15.09
-16.49
-17.58
-18.05
-17.82
-16.99
-15.77
-14.35
-12.81
-11.12
-9.26
-7.23
-5.11
-2.96
-0.84
1.18
3.03
4.60
5.70
6.28
6.36
6.12
5.77
5.52
5.39
5.33
5.22
4.97
4.59
4.16
3.77
3.50
3.35
3.28
3.21
3.06
2.68
1.99
0.95
-0.34
-1.68
-2.80
-3.51
-3.75
-3.69
-3.57
-3.68
-4.14
-4.92
-5.87
-6.81
-7.63
-8.34
-9.01
-9.71
-10.47
-11.26
-12.05
-12.86
-13.74
-14.76
-15.93
-17.18
-18.36
-19.30
-19.82
-19.77
-19.06
-17.66
-15.62
-13.08
-10.24
-7.39
-4.71
-2.34
-0.29
1.47
3.01
4.33
5.44
6.32
6.96
7.40
7.68
7.87
8.05
8.27
8.58
8.99
9.47
9.94
10.28
10.38
10.18
9.71
9.05
8.33
7.63
7.03
6.53
6.10
5.71
5.33
4.90
4.37
3.68
2.84
1.92
1.01
0.23
-0.40
-0.91
-1.41
-1.99
-2.72
-3.60
-4.59
-5.67
-6.80
-7.99
-9.20
-10.41
-11.57
-12.68
-13.77
-14.90
-16.12
-17.40
-18.58
-19.40
-19.60
-19.04
-17.70
-15.74
-13.34
-10.72
-8.02
-5.37
-2.87
-0.60
1.44
3.28
4.99
6.60
8.05
9.21
9.91
10.09
9.79
9.15
8.38
7.63
7.04
6.67
6.57
6.75
7.15
7.65
8.10
8.38
8.43
8.23
7.81
7.26
6.57
5.80
4.94
4.02
3.07
2.18
1.43
0.83
0.40
0.02
-0.43
-1.02
-1.71
-2.39
-2.94
-3.37
-3.83
-4.55
-5.66
-7.12
-8.69
-10.06
-11.06
-11.76
-12.41
-13.29
-14.51
-15.90
-17.06
-17.55
-17.09
-15.65
-13.45
-10.79
-7.97
-5.14
-2.41
0.21
2.66
4.86
6.74
8.24
9.36
10.12
10.55
10.66
10.52
10.18
9.75
9.29
8.81
8.28
7.66
6.98
6.35
5.96
5.93
6.27
6.88
7.53
8.04
8.29
8.28
8.08
7.76
7.39
6.96
6.43
5.76
4.94
3.99
2.92
1.76
0.54
-0.66
-1.78
-2.73
-3.46
-3.98
-4.40
-4.82
-5.39
-6.14
-7.06
-8.07
-9.03
-9.91
-10.76
-11.73
-13.00
-14.56
-16.21
-17.51
-18.00
-17.36
-15.59
-12.98
-9.96
-6.96
-4.22
-1.82
0.29
2.23
4.04
5.74
7.30
8.73
10.00
11.07
11.88
12.36
12.46
12.16
11.51
10.63
9.68
8.82
8.18
7.84
7.77
7.92
8.17
8.42
8.57
8.58
8.48
8.29
8.04
7.71
7.22
6.51
5.53
4.36
3.11
1.93
0.91
0.06
-0.67
-1.37
-2.11
-2.90
-3.73
-4.55
-5.28
-5.90
-6.40
-6.86
-7.37
-8.01
-8.86
-9.91
-11.13
-12.47
-13.87
-15.21
-16.33
-16.96
-16.84
-15.86
-14.11
-11.87
-9.53
-7.40
-5.60
-4.04
-2.52
-0.88
0.88
2.71
4.46
6.10
7.63
9.10
10.46
11.53
12.06
11.91
11.12
9.97
8.89
8.22
8.09
8.36
8.71
8.82
8.55
7.99
7.43
7.15
7.30
7.81
8.40
8.75
8.68
8.12
7.22
6.17
5.12
4.11
3.12
2.10
1.04
-0.00
-0.96
-1.77
-2.40
-2.91
-3.38
-3.92
-4.62
-5.56
-6.80
-8.39
-10.36
-12.65
-15.05
-17.27
-18.92
-19.67
-19.33
-17.94
-15.70
-12.92
-9.87
-6.71
-3.60
-0.66
1.96
4.08
5.63
6.61
7.20
7.56
7.78
7.89
7.82
7.59
7.25
6.98
6.90
7.09
7.48
7.97
8.41
8.75
8.93
8.93
8.73
8.29
7.66
6.89
6.10
5.35
4.66
3.99
3.27
2.47
1.61
0.74
-0.06
-0.72
-1.20
-1.51
-1.70
-1.86
-2.07
-2.38
-2.78
-3.22
-3.62
-3.96
-4.28
-4.71
-5.44
-6.65
-8.40
-10.58
-12.95
-15.10
-16.62
-17.21
-16.74
-15.30
-13.15
-10.54
-7.67
-4.69
-1.68
1.21
3.86
6.10
7.90
9.32
10.50
11.54
12.44
13.07
13.30
13.09
12.60
12.06
11.73
11.73
12.02
12.48
12.97
13.36
13.54
13.43
12.92
11.94
10.52
8.87
7.26
6.00
5.24
4.94
4.88
4.78
4.49
3.99
3.39
2.85
2.44
2.13
1.77
1.25
0.50
-0.45
-1.48
-2.50
-3.46
-4.40
-5.39
-6.51
-7.84
-9.40
-11.18
-13.15
-15.20
-17.18
-18.89
-20.13
-20.71
-20.56
-19.72
-18.33
-16.54
-14.45
-12.12
-9.53
-6.67
-3.60
-0.51
2.37
4.79
6.63
7.92
8.78
9.37
9.83
10.18
10.36
10.31
9.96
9.34
8.54
7.75
7.14
6.87
7.01
7.50
8.25
9.10
9.96
10.72
11.24
11.35
10.88
9.79
8.17
6.35
4.63
3.25
2.20
1.31
0.41
-0.60
-1.61
-2.46
-2.99
-3.24
-3.34
-3.52
-3.93
-4.60
-5.46
-6.37
-7.31
-8.35
-9.66
-11.39
-13.47
-15.60
-17.29
-18.09
-17.77
-16.41
-14.34
-11.97
-9.56
-7.18
-4.76
-2.20
0.46
3.10
5.51
7.56
9.17
10.34
11.09
11.41
11.37
11.02
10.52
10.01
9.59
9.28
9.01
8.72
8.39
8.08
7.86
7.78
7.81
7.85
7.79
7.60
7.26
6.84
6.37
5.84
5.18
4.33
3.27
2.07
0.88
-0.19
-1.09
-1.88
-2.70
-3.66
-4.79
-6.01
-7.18
-8.12
-8.73
-9.00
-9.05
-9.09
-9.36
-10.08
-11.35
-13.09
-15.10
-17.05
-18.59
-19.42
-19.35
-18.33
-16.39
-13.68
-10.47
-7.06
-3.75
-0.78
1.75
3.90
5.77
7.45
8.92
10.09
10.86
11.22
11.26
11.16
11.12
11.23
11.47
11.73
11.92
11.97
11.94
11.89
11.84
11.75
11.53
11.07
10.34
9.41
8.42
7.50
6.76
6.24
5.91
5.71
5.52
5.29
4.92
4.42
3.80
3.09
2.31
1.45
0.45
-0.68
-1.93
-3.23
-4.54
-5.88
-7.26
-8.69
-10.14
-11.50
-12.73
-13.84
-14.93
-16.07
-17.19
-18.05
-18.28
-17.58
-15.87
-13.37
-10.50
-7.71
-5.28
-3.24
-1.45
0.32
2.17
4.05
5.75
7.03
7.76
7.95
7.82
7.64
7.63
7.85
8.21
8.48
8.54
8.41
8.28
8.38
8.84
9.60
10.49
11.29
11.89
12.26
12.43
12.42
12.15
11.47
10.22
8.42
6.33
4.35
2.83
1.95
1.63
1.51
1.03
-0.11
-1.76
-3.31
-3.94
-3.10
-0.90
2.05
4.46
4.90
2.60
-2.03
-7.56
-12.17
-14.50
-14.16
-11.57
-8.16
-5.78
-5.51
-7.10
-9.19
-10.23
-9.13
-5.36
1.67
11.70
23.15
33.28
38.76
36.75
26.65
11.51
-2.04
-5.62
5.69
30.25
60.51
86.63
100.74
99.89
86.44
61.33
30.86
3.75
-14.73
-25.33
-31.31
-34.59
-35.09
-32.00
-25.30
-15.76
-5.75
1.46
3.52
0.39
-6.07
-13.20
-18.78
-22.36
-23.97
-25.08
-27.94
-34.28
-44.29
-56.99
-70.90
-84.69
-97.22
-107.33
-113.83
-115.73
-112.57
-104.52
-92.75
-79.34
-66.80
-54.30
-42.74
-32.59
-23.92
-16.60
-10.63
-6.20
-3.49
-2.31
-1.98
-1.83
-1.06
0.69
3.13
5.45
6.88
7.06
6.20
4.99
3.86
3.22
3.20
3.62
4.27
5.23
6.86
9.78
14.48
20.94
28.78
37.31
45.60
52.66
57.77
60.49
60.80
58.99
55.53
50.93
45.48
39.04
30.91
20.16
6.22
-10.39
-27.49
-41.36
-47.67
-43.09
-26.85
-1.59
27.32
53.50
71.58
78.48
73.79
59.36
38.70
16.34
-2.80
-14.42
-16.23
-8.89
3.88
16.68
24.53
24.91
18.57
8.82
0.06
-4.13
-1.89
6.70
19.87
34.80
48.31
57.63
61.04
58.44
51.07
41.02
30.49
21.02
13.20
6.70
0.48
-6.98
-16.88
-29.71
-44.85
-60.32
-73.56
-82.26
-84.76
-80.32
-68.97
-51.61
-30.23
-7.81
12.16
26.49
33.29
32.33
24.80
12.76
-1.40
-15.31
-26.64
-33.31
-34.12
-29.23
-20.36
-10.23
-1.42
4.55
7.54
8.23
7.35
5.09
1.57
-2.88
-7.63
-11.67
-14.11
-14.69
-13.68
-11.74
-9.59
-7.72
-6.34
-5.41
-4.74
-4.09
-3.33
-2.39
-1.33
-0.26
0.81
1.91
3.13
4.56
6.19
7.88
9.44
10.68
11.51
11.91
11.95
11.76
11.45
11.13
10.86
10.66
10.45
10.15
9.71
9.12
8.45
7.74
7.05
6.37
5.73
5.17
4.73
4.38
3.94
3.18
1.98
0.52
-0.75
-1.32
-0.95
0.07
1.00
0.95
-0.65
-3.72
-7.52
-10.97
-13.17
-13.81
-13.24
-12.31
-11.99
-12.93
-15.39
-19.10
-23.28
-26.58
-27.24
-23.44
-14.15
0.33
18.10
36.17
51.68
63.02
70.59
76.28
82.53
90.92
101.45
112.50
121.50
125.86
123.70
114.32
98.29
77.39
54.16
31.32
11.12
-5.18
-17.34
-25.87
-31.60
-35.26
-37.44
-38.65
-39.41
-40.08
-40.78
-41.18
-40.75
-39.01
-35.99
-32.23
-28.64
-26.06
-24.82
-24.67
-24.96
-24.89
-23.92
-21.91
-19.16
-16.24
-13.89
-12.74
-13.25
-15.51
-19.31
-24.17
-29.50
-34.65
-39.11
-42.37
-43.99
-43.64
-41.12
-36.58
-30.43
-23.32
-15.92
-8.83
-2.33
3.48
8.56
12.98
16.77
20.13
23.41
27.09
31.65
37.31
43.89
50.76
57.04
61.80
64.35
64.30
61.52
56.03
47.93
37.51
25.37
12.48
0.09
-10.53
-18.42
-23.22
-25.17
-24.95
-23.39
-21.19
-18.85
-16.68
-14.94
-13.88
-13.66
-14.30
-15.60
-17.19
-18.69
-19.79
-20.34
-20.38
-20.06
-19.63
-19.33
-19.45
-20.24
-21.83
-24.15
-26.86
-29.45
-31.38
-32.34
-32.39
-31.97
-31.63
-31.73
-32.25
-32.66
-32.16
-30.05
-26.21
-21.25
-16.46
-13.24
-12.49
-14.13
-17.14
-20.00
-21.38
-20.62
-17.94
-14.26
-10.93
-9.55
-11.85
-19.31
-32.61
-50.88
-71.32
-89.87
-102.53
-106.97
-103.41
-94.27
-82.71
-70.95
-59.42
-47.06
-32.61
-15.92
1.66
17.82
30.58
39.17
44.31
47.54
50.16
52.51
54.00
53.63
51.07
47.44
45.23
47.39
55.63
69.16
84.20
95.21
97.23
88.42
71.39
52.43
39.04
36.54
46.04
64.34
85.83
105.23
119.25
126.38
125.27
113.26
86.60
42.92
-15.96
-82.38
-144.22
-188.99
-208.31
-200.58
-170.30
-125.07
-72.21
-17.29
35.19
80.13
111.18
122.25
110.35
78.08
33.55
-12.06
-48.59
-70.35
-77.19
-73.60
-66.01
-60.08
-58.73
-61.77
-66.69
-70.26
-69.97
-64.77
-54.69
-39.78
-19.42
7.56
41.62
81.14
121.76
157.39
182.27
193.19
190.46
177.30
158.07
136.51
114.89
94.29
75.34
58.80
45.44
35.69
29.20
24.61
19.99
13.50
3.79
-9.67
-26.38
-44.95
-63.42
-79.85
-92.84
-101.90
-107.25
-109.74
-110.48
-110.47
-110.38
-110.48
-110.83
-111.38
-112.13
-112.82
-113.31
-113.58
-113.53
-112.70
-110.26
-105.48
-98.17
-88.96
-78.30
-67.08
-56.55
-47.85
-41.24
-36.18
-31.87
-27.79
-23.88
-18.72
-11.42
-2.55
6.48
14.76
22.61
30.85
40.06
50.10
62.86
79.34
98.17
116.46
131.96
143.97
152.82
159.16
163.83
171.30
185.12
205.27
228.59
251.70
272.71
290.75
305.14
292.47
241.15
160.90
76.55
8.51
-36.06
-59.83
-70.12
-74.87
-78.67
-81.08
-79.75
-74.08
-66.19
-58.72
-53.31
-50.43
-49.79
-51.60
-52.79
-50.98
-46.45
-41.65
-38.69
-37.95
-38.63
-39.60
-40.22
-38.84
-34.85
-29.49
-25.15
-23.59
-25.08
-28.81
-33.65
-38.63
-42.21
-43.40
-42.09
-38.94
-34.63
-29.58
-24.18
-18.93
-14.47
-11.01
-8.53
-6.85
-5.63
-4.30
-2.28
0.74
4.58
8.58
11.87
13.69
13.73
12.28
10.19
8.60
8.50
10.32
13.81
18.16
22.44
26.12
29.25
32.45
36.34
41.09
46.22
50.90
54.38
56.22
56.32
54.65
51.27
46.52
41.37
37.55
36.98
40.94
49.23
60.05
70.62
78.49
82.72
84.19
84.66
85.30
85.26
81.29
68.79
43.93
5.91
-41.85
-92.38
-137.45
-170.69
-189.77
-196.77
-196.59
-194.35
-193.29
-194.18
-196.23
-198.71
-202.06
-207.78
-217.30
-230.48
-244.83
-255.95
-259.10
-251.02
-231.29
-202.44
-168.97
-135.97
-107.52
-85.74
-70.45
-59.12
-47.24
-29.02
0.87
45.04
101.17
161.46
214.30
247.91
254.34
231.97
185.27
122.51
52.75
-16.08
-77.96
-128.53
-165.09
-186.95
-195.82
-195.39
-189.83
-182.00
-172.46
-160.18
-144.34
-126.03
-108.29
-94.66
-86.88
-83.40
-79.60
-69.60
-48.61
-14.75
30.64
83.86
140.14
194.64
242.57
279.27
300.53
303.71
288.87
259.35
221.24
181.74
147.16
121.27
104.98
96.88
94.58
95.41
96.94
97.12
94.66
89.12
81.16
72.38
64.81
60.34
59.59
61.51
63.89
64.72
62.84
58.19
51.64
44.38
37.90
32.59
27.67
21.66
14.37
6.59
-0.17
-4.45
-5.51
-2.59
3.51
10.67
15.95
18.44
18.57
17.57
16.61
16.33
17.89
21.15
24.77
26.52
26.28
24.71
22.53
19.94
9.40
-10.76
-35.31
-52.19
-60.94
-62.78
-60.10
-54.34
-47.24
-40.53
-34.37
-29.06
-25.18
-23.87
-24.25
-24.91
-24.63
-22.95
-20.09
-15.84
-10.76
-6.19
-4.08
-4.51
-6.63
-9.13
-10.90
-11.34
-9.88
-6.79
-3.02
0.05
2.24
3.93
5.62
7.47
9.27
10.81
11.71
11.59
10.21
8.01
5.68
3.77
2.48
1.58
0.75
-0.43
-2.30
-5.03
-8.36
-11.75
-14.60
-16.42
-16.97
-16.25
-14.59
-12.39
-10.10
-8.00
-6.12
-4.30
-2.24
0.27
3.16
6.04
8.26
9.19
8.61
6.84
4.75
3.36
3.38
4.84
7.02
8.83
9.34
8.27
6.23
4.39
4.03
5.75
9.12
12.74
14.72
13.61
9.07
2.16
-5.11
-10.43
-12.06
-9.17
-1.98
8.13
18.41
24.73
22.41
8.15
-17.75
-50.20
-80.35
-98.95
-100.12
-83.74
-54.87
-20.80
12.59
42.75
69.89
94.87
117.16
134.32
143.29
142.16
131.22
112.63
89.36
64.11
38.97
15.61
-4.54
-20.32
-31.17
-37.42
-40.17
-40.90
-40.80
-40.29
-39.17
-37.28
-35.15
-34.26
-36.47
-42.92
-52.92
-63.83
-71.98
-74.34
-69.89
-59.86
-47.02
-33.99
-22.02
-10.95
-0.29
9.40
16.11
17.15
10.95
-1.76
-17.78
-32.80
-43.30
-47.89
-47.58
-44.77
-41.75
-39.50
-37.43
-34.11
-28.64
-21.63
-15.27
-12.45
-15.29
-24.04
-36.75
-50.15
-61.10
-67.94
-71.05
-72.12
-72.91
-73.99
-74.58
-73.43
-69.94
-64.98
-60.51
-58.46
-59.48
-62.55
-65.28
-65.01
-60.03
-50.16
-36.54
-20.85
-4.58
11.45
26.96
41.84
55.80
68.33
78.89
87.15
93.05
96.85
99.01
100.01
100.19
99.75
98.66
96.68
93.46
88.74
82.60
75.57
68.50
62.23
57.22
53.23
49.48
44.98
39.11
32.00
24.50
17.85
13.12
10.74
10.32
10.94
11.45
10.91
8.88
5.57
1.72
-1.71
-3.87
-4.38
-3.43
-2.02
-1.73
-4.16
-10.14
-19.29
-29.91
-39.69
-46.60
-49.65
-49.55
-48.40
-48.72
-52.27
-59.51
-69.59
-80.78
-90.82
-96.88
-97.05
-91.60
-83.50
-77.96
-81.06
-97.42
-128.02
-169.20
-212.54
-249.08
-272.71
-281.25
-275.13
-255.77
-224.33
-181.15
-126.34
-58.95
19.29
102.68
182.73
250.93
300.49
327.54
332.36
319.29
298.15
278.26
264.65
257.42
253.84
250.30
243.68
232.55
203.13
153.60
96.55
48.20
15.35
-4.45
-16.79
-27.01
-37.20
-48.07
-57.70
-65.70
-73.66
-83.55
-95.52
-107.94
-118.62
-125.81
-128.85
-126.11
-117.52
-105.20
-92.43
-81.67
-73.81
-68.48
-64.38
-60.24
-54.15
-45.68
-36.41
-28.93
-25.06
-25.08
-28.03
-32.28
-36.37
-38.96
-39.76
-39.58
-39.55
-40.22
-41.33
-42.25
-42.45
-42.03
-41.40
-41.22
-42.05
-43.86
-45.89
-46.93
-45.85
-42.10
-35.80
-27.55
-18.11
-8.09
2.20
12.74
23.66
35.10
47.10
59.45
71.55
82.18
89.62
92.07
88.41
78.78
64.78
48.86
33.42
19.99
9.00
0.25
-6.42
-10.58
-11.35
-7.78
0.65
13.88
31.18
51.31
72.57
92.90
110.20
122.78
129.93
132.01
130.12
125.43
118.68
110.19
100.22
89.39
78.73
69.18
60.95
53.43
45.50
36.46
26.75
18.22
13.59
15.27
24.41
40.37
60.90
83.01
103.68
120.30
130.76
133.46
127.40
112.56
90.16
62.69
33.45
5.72
-17.97
-36.38
-49.61
-58.77
-65.54
-71.49
-77.79
-84.91
-92.65
-100.48
-108.00
-115.30
-122.91
-131.43
-140.92
-150.63
-159.11
-164.84
-166.89
-165.34
-161.12
-155.52
-149.58
-143.75
-137.92
-131.80
-125.30
-118.60
-111.93
-105.15
-97.55
-88.12
-76.24
-62.14
-46.75
-31.00
-14.93
2.38
22.25
45.03
69.26
91.75
108.80
117.96
119.13
114.51
107.37
100.52
95.27
91.48
88.25
84.72
80.56
75.79
70.42
64.12
56.30
46.39
34.22
20.32
5.84
-7.78
-19.38
-28.35
-34.75
-39.05
-41.80
-43.42
-44.09
-43.92
-43.11
-41.99
-40.98
-40.25
-39.55
-38.01
-34.34
-27.21
-16.02
-1.36
14.71
29.25
39.34
43.15
40.58
33.15
23.25
13.15
4.37
-2.53
-7.60
-11.16
-13.55
-15.12
-16.35
-17.76
-19.85
-22.82
-26.46
-30.15
-32.87
-33.45
-30.69
-23.62
-11.70
5.24
27.09
53.49
83.79
116.82
150.70
182.84
210.09
229.38
238.21
235.03
219.37
191.79
153.59
106.47
52.47
-5.85
-65.01
-120.48
-167.07
-199.91
-215.93
-214.97
-199.95
-175.84
-147.92
-120.12
-94.25
-70.49
-48.48
-28.22
-10.38
4.21
15.27
23.39
29.91
36.34
43.93
53.24
63.86
74.33
82.50
86.14
83.93
76.15
64.85
53.18
44.00
38.85
37.43
38.04
38.66
38.04
36.05
33.20
29.89
25.84
20.35
12.84
3.55
-6.38
-15.33
-21.87
-25.37
-26.11
-24.96
-22.84
-20.31
-17.39
-13.70
-8.89
-2.85
4.04
10.99
17.01
21.23
23.08
22.61
20.41
17.35
14.29
11.81
10.06
8.88
8.01
7.23
6.51
5.97
5.77
6.02
6.63
7.36
7.83
7.74
6.98
5.75
4.40
3.25
2.40
1.68
0.78
-0.55
-2.29
-4.18
-5.76
-6.71
-6.89
-6.40
-5.43
-4.18
-2.83
-1.52
-0.39
0.44
0.95
1.29
1.84
3.00
5.07
7.99
11.30
14.28
16.15
16.44
15.13
12.70
9.93
7.58
6.17
5.83
6.40
7.57
9.11
10.85
12.62
14.12
14.86
14.35
12.33
8.91
4.70
0.49
-2.97
-5.31
-6.57
-7.06
-7.18
-7.22
-7.24
-7.21
-7.03
-6.69
-6.22
-5.78
-5.54
-5.68
-6.31
-7.46
-9.03
-10.82
-12.59
-14.13
-15.25
-15.87
-15.97
-15.57
-14.73
-13.55
-12.19
-10.87
-9.79
-9.11
-8.84
-8.89
-9.04
-9.16
-9.19
-9.23
-9.43
-9.96
-10.82
-11.91
-13.01
-13.91
-14.50
-14.78
-14.84
-14.86
-14.94
-15.11
-15.26
-15.24
-14.92
-14.30
-13.54
-12.88
-12.56
-12.66
-13.02
-13.40
-13.51
-13.17
-12.32
-10.93
-8.94
-6.26
-2.82
1.26
5.66
9.83
13.19
15.26
15.79
14.86
12.81
10.17
7.51
5.28
3.72
2.84
2.42
2.19
1.93
1.60
1.26
1.06
1.10
1.34
1.53
1.34
0.42
-1.37
-3.87
-6.64
-9.07
-10.58
-10.87
-10.00
-8.33
-6.47
-5.10
-4.74
-5.66
-7.71
-10.37
-13.00
-15.09
-16.57
-17.88
-19.68
-22.46
-26.20
-30.21
-33.47
-34.89
-33.71
-29.53
-22.30
-12.21
0.06
13.03
24.46
31.91
33.60
29.14
19.75
7.72
-4.53
-15.44
-24.66
-32.49
-39.06
-43.70
-45.19
-42.42
-35.37
-25.24
-14.34
-5.48
-0.79
-1.05
-5.51
-12.46
-19.97
-26.55
-30.99
-33.07
-33.72
-34.38
-36.12
-39.19
-43.44
-48.56
-54.51
-60.42
-65.77
-71.16
-77.61
-85.41
-93.68
-101.16
-106.33
-108.24
-104.88
-95.45
-81.86
-67.64
-55.85
-47.77
-43.39
-40.79
-37.05
-26.12
-2.73
34.05
80.84
131.59
179.77
219.25
246.87
247.01
213.36
157.79
101.94
60.21
34.30
22.52
17.54
15.78
15.92
20.09
30.47
42.55
52.07
56.35
55.43
50.71
44.97
40.63
41.19
48.67
61.84
77.67
93.01
106.19
116.53
124.52
130.53
135.61
139.95
142.12
140.35
133.74
123.10
110.28
97.89
88.12
82.95
83.22
88.22
96.43
106.01
115.53
124.08
131.61
138.77
146.94
157.63
171.81
189.34
208.65
226.65
239.42
243.14
235.18
214.82
183.10
142.11
94.10
41.31
-13.71
-67.55
-116.13
-155.52
-183.30
-199.29
-205.36
-204.14
-197.80
-187.48
-173.74
-157.53
-140.69
-125.67
-114.52
-108.01
-105.63
-106.36
-109.50
-114.96
-122.74
-132.04
-141.08
-147.81
-150.80
-150.15
-147.41
-144.71
-143.54
-143.99
-144.97
-145.10
-143.65
-140.95
-138.04
-135.84
-134.43
-132.75
-128.92
-121.03
-107.99
-89.95
-68.35
-45.34
-23.08
-3.12
13.81
27.55
38.00
44.82
47.69
46.84
43.54
39.78
37.14
35.44
32.23
23.76
7.09
-17.58
-46.24
-72.18
-88.92
-93.33
-87.37
-77.46
-72.17
-79.16
-102.88
-143.39
-196.45
-254.47
-307.94
-347.46
-365.80
-359.64
-330.20
-282.39
-222.81
-157.49
-90.56
-24.50
38.62
95.94
143.87
179.35
201.75
213.52
219.36
223.92
229.58
235.57
238.79
235.94
225.84
210.25
193.28
179.61
172.51
172.55
177.45
183.07
184.89
179.56
166.01
145.30
119.90
92.56
65.44
40.08
17.97
1.31
-7.04
-4.68
8.69
30.16
53.99
73.28
82.52
79.17
63.72
38.32
5.15
-34.35
-78.72
-125.39
-169.98
-207.22
-232.94
-246.09
-249.29
-247.52
-245.83
-246.96
-250.41
-253.04
-250.44
-238.65
-215.24
-179.80
-133.66
-79.50
-20.50
40.46
101.49
162.14
223.27
286.57
353.54
424.27
496.23
563.94
619.76
655.92
667.11
652.38
615.40
562.83
501.78
437.49
372.64
308.09
244.37
182.78
125.18
72.92
25.75
-18.40
-62.62
-109.43
-159.54
-211.48
-262.30
-308.88
-349.46
-384.34
-415.75
-447.04
-481.76
-522.80
-571.65
-627.63
-687.09
-743.33
-787.54
-811.16
-808.61
-779.34
-728.05
-662.76
-591.75
-520.89
-452.56
-386.41
-321.19
-256.30
-192.29
-130.18
-70.42
-12.28
45.96
106.28
170.12
237.92
308.90
381.17
451.92
517.72
574.92
620.30
651.98
670.13
677.13
676.78
673.15
669.12
665.61
661.46
654.15
640.74
618.83
587.11
545.63
495.78
439.92
380.95
321.63
264.13
209.67
158.60
110.75
65.89
23.98
-14.88
-50.74
-84.11
-116.01
-147.73
-180.43
-214.62
-249.87
-285.03
-318.59
-349.36
-376.94
-401.87
-425.75
-450.91
-480.00
-514.93
-555.49
-597.94
-634.74
-656.08
-652.90
-620.32
-559.75
-478.47
-386.74
-293.97
-205.69
-122.67
-42.19
39.52
124.47
211.21
294.34
365.53
415.75
438.11
430.21
394.94
339.53
272.57
201.33
129.95
59.46
-11.01
-82.73
-156.29
-230.86
-303.71
-369.95
-422.92
-455.55
-462.64
-442.76
-398.93
-337.56
-266.08
-190.74
-115.59
-42.47
28.15
96.44
162.70
226.89
288.24
344.57
392.16
426.10
441.65
435.73
407.81
360.39
298.42
228.18
155.78
85.99
21.19
-38.75
-95.99
-153.61
-214.56
-280.95
-353.30
-429.98
-506.74
-576.35
-629.92
-659.48
-661.30
-637.92
-597.75
-551.57
-508.09
-471.00
-439.28
-410.30
-383.32
-360.79
-346.46
-341.89
-343.88
-344.97
-336.89
-314.76
-279.38
-236.46
-193.29
-155.09
-123.19
-95.68
-69.70
-43.49
-17.34
6.91
27.30
42.97
54.58
64.16
73.89
85.37
98.85
113.36
127.26
139.13
148.52
156.19
163.78
173.06
185.15
200.08
216.80
233.86
249.99
264.72
278.55
292.61
308.25
326.73
349.07
375.89
406.91
440.39
472.76
499.13
514.55
515.73
502.31
476.90
443.97
408.12
372.74
339.46
308.77
280.76
255.69
234.00
215.78
200.51
187.07
174.19
161.02
147.40
133.82
121.16
110.18
101.18
93.92
87.67
81.61
75.15
68.19
61.14
54.66
49.33
45.32
42.32
39.68
36.66
32.79
28.03
22.77
17.59
13.02
9.23
5.93
2.53
-1.65
-7.05
-13.66
-21.06
-28.53
-35.27
-40.65
-44.34
-46.29
-46.75
-46.01
-44.33
-41.80
-38.45
-34.40
-29.93
-25.47
-21.47
-18.15
-15.45
-13.07
-10.72
-8.39
-6.34
-4.95
-4.40
-4.48
-4.73
-4.62
-3.94
-2.86
-1.85
-1.34
-1.54
-2.24
-3.09
-3.70
-3.87
-3.60
-3.07
-2.45
-1.90
-1.48
-1.22
-1.08
-1.06
-1.11
-1.19
-1.26
-1.30
-1.33
-1.44
-1.72
-2.29
-3.25
-4.58
-6.20
-7.93
-9.60
-11.09
-12.35
-13.51
-14.81
-16.50
-18.74
-21.42
-24.17
-26.45
-27.74
-27.77
-26.61
-24.56
-22.05
-19.35
-16.57
-13.67
-10.58
-7.32
-4.05
-0.99
1.68
3.81
5.38
6.36
6.81
6.83
6.56
6.14
5.71
5.33
4.98
4.62
4.21
3.77
3.33
2.96
2.70
2.54
2.47
2.39
2.12
1.38
-0.16
-2.77
-6.50
-11.01
-15.56
-19.21
-21.14
-21.08
-19.41
-17.10
-15.36
-15.18
-16.97
-20.51
-24.99
-29.35
-32.60
-34.17
-34.06
-32.92
-31.69
-31.07
-31.14
-31.14
-30.00
-27.02
-22.50
-17.71
-14.30
-13.21
-13.82
-13.79
-9.71
1.73
22.84
54.23
94.87
142.19
192.49
241.34
284.52
319.05
343.98
360.36
369.80
373.09
368.86
353.89
324.85
280.27
221.97
154.71
85.04
19.49
-36.85
-81.29
-114.12
-138.65
-160.28
-184.25
-213.23
-245.17
-273.30
-288.61
-283.81
-257.14
-214.00
-165.83
-126.18
-105.96
-109.63
-133.64
-167.77
-198.45
-212.98
-203.25
-168.06
-112.62
-46.57
19.10
74.96
114.85
136.47
140.90
131.87
114.71
95.57
80.28
73.52
77.85
93.19
117.01
145.00
172.42
195.43
211.93
221.55
225.16
224.04
219.31
211.71
201.76
189.84
176.38
161.86
146.71
131.22
115.27
97.99
77.64
52.03
19.46
-20.25
-65.21
-111.87
-155.96
-193.85
-223.52
-244.85
-259.13
-268.25
-273.91
-277.30
-279.07
-279.44
-278.20
-274.93
-269.28
-261.13
-250.75
-238.48
-224.86
-210.55
-196.13
-181.87
-168.13
-155.69
-145.76
-139.74
-138.04
-140.38
-145.84
-153.05
-160.26
-166.45
-172.31
-180.04
-192.18
-208.74
-227.16
-242.79
-249.87
-242.79
-218.57
-178.47
-127.38
-71.99
-16.80
35.10
81.32
120.13
151.36
175.80
194.58
209.24
221.21
233.50
247.58
262.09
266.41
251.95
220.63
184.73
161.82
151.81
149.86
150.43
146.42
135.10
118.98
103.58
93.48
89.57
88.46
86.63
80.85
69.46
53.51
36.77
23.28
14.87
10.28
5.85
-0.83
-10.93
-24.22
-38.58
-50.60
-57.23
-57.67
-53.72
-49.06
-46.33
-46.73
-49.93
-54.31
-57.83
-59.23
-58.61
-57.18
-56.61
-57.54
-59.84
-62.85
-65.68
-67.45
-67.59
-65.99
-63.14
-59.97
-57.51
-56.77
