1594128392.00
64.000000
-0.00
-0.00
-0.00
-0.00
-0.00
-0.00
-0.00
-0.00
-0.00
-0.00
0.00
0.01
0.01
-0.00
-0.03
-0.05
-0.05
0.00
0.13
0.36
0.66
1.01
1.37
1.72
2.06
2.40
2.79
3.24
3.80
4.42
5.06
5.66
6.20
6.68
7.15
7.68
8.31
9.14
10.09
11.04
11.88
12.56
13.14
13.76
14.65
15.96
17.91
20.32
22.90
25.38
27.58
29.57
31.68
34.32
37.81
42.54
48.15
54.10
59.83
64.97
69.58
74.14
79.34
85.71
93.76
103.00
112.62
121.73
129.77
136.75
143.30
150.75
157.77
166.64
177.95
191.79
206.97
220.57
228.25
225.36
208.53
176.87
132.76
80.05
23.07
-34.94
-92.44
-149.16
-205.23
-260.37
-313.74
-363.87
-409.83
-450.91
-486.50
-515.74
-537.23
-549.22
-549.96
-538.37
-514.21
-478.67
-433.88
-382.45
-327.02
-269.84
-212.63
-156.66
-102.95
-52.37
-5.90
35.58
71.43
101.35
125.50
144.38
158.69
169.15
176.37
180.75
182.57
182.07
179.51
175.23
169.65
163.18
156.15
148.81
141.30
133.69
126.02
118.33
110.69
103.16
95.80
88.68
81.83
75.25
68.95
62.95
57.25
51.86
46.78
42.02
37.58
33.45
29.62
26.09
22.84
19.85
17.11
14.60
12.33
10.30
8.53
7.01
5.73
4.65
3.73
2.92
2.21
1.58
1.05
0.63
0.33
0.13
-0.01
-0.15
-0.32
-0.56
-0.84
-1.11
-1.29
-1.34
-1.28
-1.18
-1.16
-1.33
-1.74
-2.30
-2.88
-3.30
-3.43
-3.30
-3.07
-3.02
-3.36
-4.18
-5.36
-6.57
-7.48
-7.83
-7.67
-7.28
-7.12
-7.59
-8.84
-10.65
-12.54
-13.99
-14.65
-14.54
-13.98
-13.49
-13.54
-14.45
-16.40
-19.36
-22.93
-26.15
-27.51
-25.40
-18.76
-7.87
5.50
18.64
28.99
35.16
37.40
37.18
36.29
35.90
36.14
36.44
36.15
35.14
33.84
32.90
32.73
33.24
33.87
33.89
32.80
30.50
27.28
23.60
19.92
16.22
12.29
7.92
3.06
-2.07
-7.02
-11.35
-14.76
-17.21
-18.87
-19.90
-20.44
-20.46
-19.90
-18.74
-17.06
-15.05
-13.01
-11.25
-9.98
-9.30
-9.15
-9.35
-9.64
-9.79
-9.69
-9.22
-8.28
-6.67
-4.23
-0.95
2.80
6.44
9.25
10.81
11.11
10.55
9.67
8.78
7.90
6.81
5.33
3.56
1.85
0.71
0.40
0.81
1.41
1.59
0.90
-0.64
-2.53
-4.00
-4.29
-3.11
-0.85
1.43
2.38
0.77
-4.01
-11.78
-21.64
-32.27
-41.79
-48.44
-51.10
-49.63
-44.86
-38.29
-31.51
-25.68
-21.37
-18.59
-17.28
-17.55
-19.67
-23.86
-29.86
-36.84
-43.57
-48.76
-51.59
-51.93
-50.18
-46.90
-42.43
-36.78
-29.78
-21.46
-12.28
-3.12
5.06
11.71
17.10
22.22
28.41
36.73
47.51
60.23
73.75
86.57
97.05
103.69
105.27
101.32
92.30
79.77
65.95
52.94
42.00
33.10
25.24
17.10
8.06
-1.29
-9.32
-14.14
-14.47
-10.15
-2.19
7.60
17.00
24.23
28.31
29.30
28.02
25.67
23.48
22.37
22.91
24.70
27.11
29.55
31.91
34.93
40.36
50.87
69.05
95.71
127.24
156.96
177.28
183.11
173.94
153.80
129.54
108.05
94.43
89.27
92.21
103.35
122.95
149.11
176.26
196.18
201.15
187.20
151.79
97.39
30.16
-42.41
-114.70
-184.37
-251.27
-315.60
-376.43
-436.54
-496.76
-554.68
-604.82
-641.73
-662.80
-668.63
-662.20
-618.53
-528.33
-403.42
-272.88
-163.60
-86.14
-35.41
2.11
40.86
91.56
149.82
206.76
250.83
273.62
272.71
252.29
222.43
196.36
187.85
200.99
230.59
267.83
302.89
326.88
333.79
322.08
284.64
226.77
161.03
101.44
55.51
24.21
4.55
-7.92
-17.53
-27.07
-35.40
-41.57
-43.08
-36.68
-19.02
10.56
49.48
92.43
132.99
166.10
186.31
189.05
168.10
126.24
74.77
30.25
7.74
13.82
44.11
83.86
114.84
123.62
107.53
73.14
31.27
-9.02
-43.73
-72.37
-96.59
-118.23
-138.56
-157.94
-178.18
-202.55
-235.37
-279.49
-332.63
-387.25
-432.13
-455.86
-450.36
-415.16
-357.14
-288.87
-223.89
-170.23
-129.38
-98.09
-71.32
-44.66
-16.78
12.34
41.64
70.29
100.38
134.46
172.91
213.39
252.20
284.94
310.16
328.38
329.95
310.90
276.45
237.19
200.57
173.89
150.39
125.13
96.66
66.35
36.99
13.25
-2.60
-11.52
-16.24
-20.32
-25.00
-30.55
-36.81
-41.91
-43.85
-42.13
-37.64
-31.50
-24.86
-17.41
-8.40
2.70
16.91
34.35
52.89
68.54
77.23
74.02
57.70
33.04
7.92
-11.03
-21.35
-24.30
-23.04
-20.70
-20.69
-25.55
-37.31
-57.49
-86.13
-121.49
-160.47
-199.16
-234.53
-249.04
-232.72
-187.09
-125.29
-64.15
-15.53
16.96
36.26
47.20
53.79
56.00
53.10
45.89
38.04
35.08
41.79
60.53
88.35
118.63
141.24
147.61
134.12
104.00
65.72
27.82
0.77
-11.09
-10.31
-4.91
-3.03
-9.19
-22.86
-39.62
-54.10
-60.47
-55.08
-36.72
-8.18
24.44
53.06
70.76
74.07
63.76
44.75
22.71
2.13
-15.26
-29.48
-40.68
-48.02
-46.82
-35.00
-13.58
12.57
36.95
53.65
60.03
57.27
49.21
40.24
32.95
28.17
23.80
17.41
7.16
-7.05
-23.58
-39.89
-53.70
-64.32
-72.49
-80.35
-88.02
-96.10
-104.53
-112.56
-119.15
-123.27
-124.44
-122.31
-116.64
-107.08
-93.83
-77.35
-58.50
-38.44
-18.41
0.44
17.23
31.36
42.44
49.88
53.32
52.78
48.82
42.56
35.39
28.74
23.73
21.10
20.95
23.06
26.97
32.18
38.12
44.30
50.25
55.59
60.03
63.31
65.24
65.75
64.82
62.49
58.83
53.98
48.14
41.62
34.77
27.93
21.36
15.08
8.83
2.08
-5.80
-15.23
-26.29
-38.57
-51.23
-63.30
-73.86
-82.33
-88.51
-92.58
-94.95
-96.10
-96.43
-96.27
-95.83
-95.38
-95.18
-95.57
-96.78
-98.78
-101.22
-103.43
-104.53
-103.90
-101.42
-97.49
-92.68
-87.33
-81.18
-73.47
-63.16
-49.24
-31.17
-9.17
15.71
41.90
67.51
90.83
110.45
125.50
136.13
143.05
147.12
149.02
149.13
147.34
143.65
137.96
130.37
122.26
114.87
108.61
102.89
96.75
89.33
81.09
72.91
65.57
61.27
60.94
63.23
65.22
64.44
59.65
52.97
47.36
45.27
51.05
66.61
89.98
116.21
140.29
158.51
172.09
183.81
196.57
216.80
248.73
291.97
341.64
391.44
434.78
469.88
496.72
490.94
440.91
354.62
255.54
164.73
99.76
49.21
3.67
-40.82
-84.43
-121.48
-146.01
-157.42
-161.18
-165.20
-177.31
-199.11
-228.63
-261.59
-289.68
-306.46
-310.91
-307.86
-304.75
-309.03
-322.59
-343.40
-366.55
-383.42
-386.07
-370.23
-336.45
-289.16
-235.61
-182.78
-137.54
-105.55
-88.70
-85.23
-90.10
-95.85
-94.46
-80.56
-53.30
-18.10
15.20
37.26
43.37
35.53
20.91
7.72
0.32
-2.56
-6.37
-16.37
-33.45
-52.94
-67.06
-69.43
-58.70
-39.07
-17.77
-1.13
8.20
11.67
12.84
14.63
17.51
19.63
18.46
12.73
3.58
-5.77
-11.60
-11.48
-5.31
4.78
15.58
24.29
29.56
31.72
32.21
32.57
33.61
35.19
36.47
36.53
34.85
31.62
27.54
23.57
20.47
18.58
17.69
17.17
16.17
14.01
10.51
6.13
1.91
-0.93
-1.46
0.57
4.65
9.75
14.74
18.77
21.56
23.36
24.69
26.03
27.61
29.22
30.46
30.86
30.17
28.40
25.89
23.12
20.60
18.69
17.47
16.80
16.34
15.74
14.80
13.61
12.45
11.58
11.02
10.44
9.34
7.31
4.40
1.18
-1.45
-2.72
-2.47
-1.28
-0.17
-0.05
-1.23
-3.08
-4.31
-3.46
0.39
7.16
15.62
23.62
28.61
28.30
21.34
7.93
-9.85
-27.89
-40.77
-42.97
-31.06
-5.51
28.43
61.79
84.79
90.42
77.30
50.17
17.79
-10.86
-30.02
-38.86
-40.48
-39.34
-38.60
-38.84
-38.75
-36.83
-32.87
-28.18
-24.55
-22.70
-21.56
-18.67
-11.71
-0.14
14.22
27.76
36.87
39.45
35.88
28.57
20.78
15.22
13.13
14.11
16.46
18.01
16.99
12.70
5.85
-1.65
-7.41
-9.49
-7.27
-1.81
4.53
9.02
9.62
6.00
-0.32
-6.63
-10.22
-9.81
-6.41
-3.22
-4.32
-12.77
-28.76
-49.07
-68.22
-80.49
-81.92
-71.45
-50.64
-23.01
6.80
33.64
52.29
58.29
49.83
29.69
5.82
-10.92
-11.20
8.42
43.62
83.90
116.57
131.41
123.93
95.69
52.15
-0.21
-55.49
-107.95
-151.74
-181.81
-195.21
-192.12
-176.16
-154.15
-134.66
-125.40
-129.36
-143.55
-160.75
-172.82
-173.78
-161.58
-139.15
-113.05
-89.85
-70.80
-50.61
-20.98
24.13
85.48
158.09
232.72
299.02
339.85
339.64
297.53
231.03
162.76
106.57
65.22
35.48
12.96
-4.07
-12.56
-8.63
7.79
30.67
50.58
59.36
52.44
30.56
-1.18
-34.85
-62.45
-78.81
-82.93
-77.04
-65.45
-53.94
-49.04
-55.98
-74.94
-99.47
-118.31
-120.51
-100.87
-62.97
-17.93
20.80
44.14
51.94
51.86
53.90
64.15
82.26
103.39
122.67
138.76
154.39
173.26
195.89
217.11
227.42
217.99
186.07
137.48
84.52
40.74
14.92
7.66
12.01
17.46
15.03
0.84
-23.17
-51.31
-77.41
-97.62
-111.40
-120.35
-126.34
-130.05
-130.72
-127.12
-118.81
-106.52
-91.70
-75.49
-57.89
-38.38
-16.75
5.82
26.87
43.89
55.61
62.57
66.29
67.86
66.91
61.92
51.39
35.11
14.57
-7.85
-30.16
-51.78
-73.62
-97.51
-125.16
-157.01
-191.60
-225.49
-253.91
-272.26
-277.68
-270.05
-251.96
-227.21
-199.01
-168.44
-134.29
-94.13
-45.99
10.12
71.57
133.34
188.85
231.26
255.21
258.43
242.98
214.83
181.69
150.03
122.57
97.79
71.59
40.48
4.31
-32.61
-63.66
-83.30
-89.73
-85.13
-73.71
-59.21
-42.97
-24.01
-0.12
29.47
62.46
93.93
118.60
133.28
137.61
133.62
124.20
112.65
101.06
89.95
78.89
67.68
57.27
48.66
42.12
36.69
31.92
27.89
25.45
26.07
31.44
43.11
60.43
80.55
90.08
78.22
44.94
1.40
-39.95
-73.28
-97.58
-113.92
-122.95
-122.74
-110.11
-84.00
-47.00
-4.17
37.31
72.01
91.88
93.72
81.15
62.52
44.47
28.69
16.31
3.58
-9.96
-22.16
-28.91
-26.92
-15.45
2.68
21.23
33.34
34.25
24.39
7.46
-10.79
-25.81
-34.83
-36.93
-34.10
-29.37
-24.47
-18.32
-10.31
-0.70
8.97
16.76
21.34
22.32
20.63
17.69
15.21
12.68
8.40
1.04
-10.14
-24.81
-41.86
-59.40
-75.68
-89.20
-101.68
-115.94
-134.58
-157.76
-182.37
-203.15
-214.90
-214.98
-194.08
-152.17
-94.59
-29.53
34.51
90.19
131.72
155.49
156.24
134.94
101.02
68.44
46.47
36.51
34.84
36.57
38.42
39.39
40.71
42.22
42.51
39.67
33.30
25.06
17.95
14.96
16.92
23.87
33.59
43.03
49.67
52.61
52.43
50.13
46.22
40.70
33.81
25.98
18.14
11.46
7.22
6.23
8.35
12.00
16.20
18.10
14.35
2.52
-17.54
-42.90
-68.02
-86.51
-93.49
-87.35
-70.23
-46.71
-21.88
0.19
17.38
29.26
36.21
38.65
36.85
31.00
21.80
10.41
-2.19
-15.48
-29.15
-42.34
-53.04
-58.21
-54.85
-41.61
-19.95
5.46
28.76
45.45
54.01
55.55
52.36
46.26
37.99
27.56
14.36
-1.39
-17.91
-32.51
-43.30
-50.09
-53.85
-55.66
-56.03
-56.14
-57.45
-61.05
-67.57
-77.59
-91.14
-106.46
-119.45
-124.72
-119.58
-105.04
-85.39
-66.91
-56.56
-59.15
-74.68
-97.53
-110.38
-99.45
-65.55
-23.79
10.22
29.43
35.44
34.57
33.94
37.70
44.03
48.48
48.28
44.85
41.09
39.66
41.97
49.05
60.60
73.51
84.25
91.48
96.47
101.67
109.35
122.03
139.42
161.77
187.22
212.73
235.85
255.52
271.85
285.67
286.53
270.00
238.49
197.85
153.53
110.09
71.90
43.66
23.86
10.70
3.65
2.04
4.53
9.34
16.21
22.84
25.04
17.19
-5.29
-43.32
-94.52
-153.58
-212.78
-262.76
-294.82
-303.41
-288.56
-255.97
-214.93
-175.63
-145.80
-128.40
-121.64
-121.72
-125.37
-131.27
-138.96
-147.34
-154.16
-156.72
-153.34
-144.29
-132.07
-120.06
-110.54
-103.28
-95.83
-85.29
-70.33
-52.12
-33.81
-19.36
-11.93
-12.67
-20.23
-31.27
-41.46
-46.84
-44.90
-34.73
-17.94
2.09
21.94
40.01
57.18
75.97
98.32
123.76
149.65
170.25
178.57
169.77
143.81
105.83
64.20
26.81
-1.28
-16.96
-21.53
-19.75
-16.82
-15.78
-16.25
-15.15
-8.94
5.58
32.98
74.37
125.92
179.87
227.01
260.03
275.47
273.18
242.24
184.65
115.18
50.25
-4.14
-50.51
-94.46
-134.39
-165.11
-182.50
-179.59
-156.52
-120.58
-78.79
-42.64
-21.04
-14.52
-17.15
-21.72
-21.95
-17.66
-12.93
-12.18
-17.37
-26.31
-34.33
-37.96
-36.08
-27.86
-15.38
-2.24
8.08
14.16
16.90
19.20
23.62
31.44
44.31
61.94
83.19
106.76
131.05
154.01
172.38
181.56
171.25
141.35
98.24
52.03
12.37
-15.22
-30.27
-36.19
-37.72
-37.99
-36.75
-33.38
-28.07
-22.47
-19.59
-20.81
-25.82
-32.92
-39.43
-42.26
-40.55
-35.67
-30.41
-27.77
-29.77
-36.83
-47.83
-59.63
-67.69
-68.39
-60.13
-43.94
-23.16
-2.31
16.72
30.81
38.41
40.19
38.05
34.23
30.30
26.87
23.93
21.42
19.42
18.99
21.52
27.74
37.16
48.06
58.16
65.34
68.13
65.54
57.49
44.41
27.03
6.31
-16.72
-41.20
-66.69
-93.16
-120.63
-147.90
-172.07
-188.98
-194.58
-186.87
-167.28
-140.82
-114.63
-95.54
-87.55
-90.78
-102.02
-116.58
-130.09
-139.52
-142.92
-138.65
-124.92
-100.47
-65.67
-23.46
21.28
63.80
101.26
133.28
160.43
181.73
193.52
191.01
171.81
138.98
101.27
70.04
54.45
57.88
77.25
104.62
130.56
147.10
148.77
132.31
96.13
40.89
-29.24
-105.13
-175.44
-230.19
-264.06
-277.85
-277.47
-271.04
-264.86
-260.82
-254.45
-240.04
-214.55
-179.11
-137.89
-95.94
-57.11
-22.97
6.89
36.55
68.21
101.35
134.45
167.74
203.89
246.35
296.67
352.46
410.48
462.45
497.60
507.74
491.52
454.79
407.13
357.81
290.24
202.50
107.36
23.38
-38.57
-78.50
-102.33
-117.51
-130.01
-142.86
-152.23
-154.37
-148.68
-136.02
-117.88
-96.33
-74.70
-57.39
-48.60
-47.37
-50.44
-52.90
-48.78
-32.77
-1.06
44.47
96.14
143.89
181.56
207.33
223.05
232.20
237.43
239.20
235.52
223.80
202.87
174.49
141.10
104.04
62.99
17.00
-33.91
-87.68
-140.01
-185.59
-219.72
-240.70
-250.41
-253.13
-253.52
-254.73
-257.77
-262.04
-266.53
-270.91
-275.76
-282.07
-290.46
-300.41
-310.30
-317.55
-319.48
-314.27
-302.09
-285.61
-269.33
-257.81
-253.52
-255.59
-260.21
-262.56
-258.98
-248.22
-231.22
-209.81
-185.14
-157.40
-126.39
-92.34
-56.34
-20.16
14.83
48.63
82.86
120.10
161.65
205.70
246.67
276.33
286.47
271.92
232.78
174.77
108.28
45.03
-4.75
-34.20
-40.06
-22.18
16.99
72.35
135.83
197.47
245.17
267.19
255.93
211.61
143.34
66.72
-1.24
-47.35
-63.48
-49.88
-13.45
36.31
91.34
146.43
198.02
242.55
276.02
298.09
308.77
307.95
296.30
276.26
251.67
226.46
203.76
185.87
178.51
184.35
200.88
221.81
241.11
255.65
265.54
273.05
253.53
197.74
116.06
30.15
-44.21
-102.33
-145.65
-177.18
-199.59
-214.82
-219.94
-213.67
-198.23
-178.38
-158.66
-142.19
-131.35
-128.29
-133.89
-144.02
-153.72
-160.24
-162.60
-161.16
-157.72
-155.66
-158.03
-164.44
-167.98
-159.54
-131.94
-83.27
-17.55
56.13
126.22
177.52
199.01
189.74
157.27
113.40
69.20
32.39
5.76
-12.26
-24.78
-34.64
-42.76
-49.07
-52.36
-53.10
-52.86
-53.28
-54.61
-54.07
-48.17
-34.30
-11.38
19.54
54.74
89.09
116.79
132.35
132.84
115.93
78.07
18.15
-55.94
-127.82
-177.56
-191.38
-176.81
-143.90
-106.76
-80.22
-75.03
-92.66
-130.49
-180.13
-230.15
-269.61
-289.50
-287.01
-264.93
-229.22
-186.81
-144.78
-108.64
-82.22
-67.54
-64.21
-71.69
-88.66
-111.58
-134.52
-150.72
-154.31
-142.97
-119.09
-88.00
-57.06
-32.31
-15.59
-4.12
7.98
27.40
59.05
104.42
161.34
223.53
281.75
325.54
345.71
336.96
300.17
242.82
177.09
116.30
70.75
45.36
39.77
50.45
73.33
105.25
143.82
186.24
228.56
266.26
295.65
315.23
325.63
328.57
325.25
315.57
298.66
273.97
241.95
203.51
159.26
109.43
55.35
1.31
-44.99
-74.64
-81.96
-68.63
-44.49
-24.16
-21.13
-42.42
-86.56
-145.23
-207.20
-261.96
-301.54
-320.77
-316.89
-289.62
-241.83
-179.91
-112.96
-50.76
-1.53
29.50
40.63
33.24
11.14
-20.08
-53.74
-83.35
-104.09
-114.43
-116.49
-115.06
-115.42
-120.41
-128.63
-134.32
-129.37
-106.73
-63.74
-4.07
62.52
122.61
162.98
174.82
156.89
116.39
66.86
24.06
1.31
6.04
38.76
94.34
164.41
239.50
310.45
368.92
407.93
422.74
412.06
378.66
329.14
272.03
215.40
164.67
121.62
84.67
50.19
14.17
-26.10
-70.95
-118.13
-163.38
-201.82
-229.40
-244.03
-245.94
-237.24
-221.24
-201.66
-182.08
-165.47
-153.69
-146.93
-143.45
-139.73
-131.37
-114.58
-87.58
-51.59
-10.75
28.84
60.61
79.41
82.89
72.41
52.73
30.60
12.70
3.77
5.54
16.78
34.03
52.50
66.97
72.50
65.46
44.71
12.64
-25.09
-61.36
-90.53
-110.97
-125.35
-138.35
-152.97
-167.65
-176.14
-170.49
-145.69
-102.99
-50.27
1.26
41.98
67.57
79.80
83.82
84.05
81.31
72.91
55.36
28.03
-4.96
-35.72
-56.05
-61.33
-52.57
-35.49
-17.47
-4.36
1.28
-0.04
-6.35
-15.70
-26.80
-38.94
-51.36
-63.16
-73.55
-82.24
-89.47
-95.64
-100.66
-103.72
-103.60
-99.59
-92.59
-85.45
-82.59
-88.47
-105.58
-132.90
-165.41
-195.05
-213.00
-212.44
-191.13
-152.80
-106.68
-65.27
-40.62
-40.11
-63.60
-102.74
-143.73
-172.05
-177.24
-156.25
-113.92
-61.05
-10.83
24.55
36.60
21.63
-18.91
-78.48
-146.23
-209.35
-256.21
-279.24
-276.91
-253.06
-215.31
-172.47
-131.95
-97.63
-70.45
-49.61
-33.52
-20.37
-6.98
10.06
33.40
64.33
103.93
151.09
202.10
251.02
290.54
317.28
331.47
337.05
341.62
356.05
388.23
438.39
497.87
550.75
584.65
591.83
570.05
522.75
460.04
392.89
330.53
279.27
241.24
221.38
221.74
239.12
245.63
220.70
160.13
78.17
10.05
-40.40
-73.65
-90.47
-96.50
-95.06
-87.63
-77.76
-70.99
-72.92
-92.40
-124.34
-156.70
-179.50
-189.73
-188.53
-178.96
-163.70
-145.25
-127.40
-110.33
-95.06
-83.89
-78.49
-77.47
-77.81
-76.62
-73.72
-70.66
-67.64
-65.81
-67.37
-73.92
-85.01
-98.49
-111.43
-121.81
-128.41
-129.60
-124.91
-115.15
-101.63
-85.52
-68.11
-46.93
-23.86
-1.96
16.31
29.65
38.18
43.32
46.88
50.18
53.50
55.51
55.13
51.92
46.49
40.20
34.28
28.94
23.30
16.25
7.61
-0.55
-5.46
-5.58
-2.37
-0.01
-2.95
-12.88
-27.01
-39.26
-43.58
-38.31
-27.12
-17.25
-15.78
-26.22
-47.19
-73.24
-97.05
-112.45
-116.85
-110.93
-98.03
-82.73
-69.55
-62.06
-61.88
-68.29
-73.80
-72.08
-60.80
-43.95
-28.38
-18.67
-14.69
-14.71
-11.66
-0.53
18.94
42.96
65.78
82.95
93.13
97.18
97.63
96.83
94.44
87.76
75.00
57.80
41.53
32.37
33.09
40.89
48.82
49.15
37.58
15.70
-10.21
-32.51
-45.65
-47.62
-39.24
-22.48
0.04
25.23
49.72
69.92
82.87
86.95
82.34
70.87
55.35
38.40
21.67
5.73
-9.54
-24.14
-37.31
-47.43
-52.36
-50.14
-39.84
-22.01
1.18
26.22
49.02
65.76
73.39
70.38
57.17
36.49
12.38
-10.92
-30.01
-42.87
-48.90
-49.03
-45.31
-40.69
-37.87
-39.25
-46.14
-57.68
-70.59
-80.28
-83.21
-78.79
-69.70
-59.65
-53.02
-53.62
-63.31
-81.08
-103.19
-124.25
-138.59
-141.72
-130.16
-105.00
-72.46
-40.76
-15.63
2.25
16.56
33.12
57.47
95.49
148.91
213.98
282.86
346.34
396.39
427.14
436.12
408.95
345.28
261.21
179.27
113.72
67.91
40.65
30.16
33.54
46.94
66.45
85.51
96.46
93.82
76.77
49.45
18.22
-12.18
-40.35
-66.12
-91.58
-120.12
-154.28
-193.49
-233.28
-267.26
-290.05
-299.85
-297.49
-286.26
-269.74
-249.29
-223.69
-190.17
-148.14
-101.73
-59.71
-30.26
-17.70
-21.01
-34.97
-53.68
-71.36
-83.37
-86.59
-80.54
-65.88
-45.53
-24.86
-10.82
-9.69
-22.47
-43.71
-64.15
-76.14
-74.57
-58.85
-32.22
9.71
60.94
106.84
131.46
134.87
120.63
94.79
64.75
38.09
19.75
9.79
4.44
-1.05
-10.44
-26.38
-43.14
-54.47
-57.82
-63.45
-74.72
-88.79
-94.73
-84.59
-56.86
-14.87
33.20
77.79
111.13
127.22
126.92
118.50
114.81
119.84
132.85
149.66
162.20
164.77
156.17
139.71
121.24
105.09
91.64
78.60
61.55
37.98
9.95
-16.15
-33.85
-41.45
-44.80
-54.14
-77.01
-114.32
-158.18
-195.61
-215.14
-213.06
-194.50
-170.04
-148.83
-128.96
-107.22
-82.01
-57.18
-40.28
-36.92
-41.59
-42.44
-26.26
15.87
82.72
162.98
238.44
290.32
305.79
282.83
230.26
164.41
103.23
59.55
38.36
36.86
47.71
60.45
66.19
61.75
51.86
44.03
41.04
40.47
38.06
31.16
20.09
7.64
-2.43
-9.06
-12.72
-14.37
-14.19
-11.90
-7.92
-3.68
-0.18
3.49
10.44
24.50
47.71
77.93
107.53
125.60
122.99
97.53
55.85
10.32
-26.50
-47.98
-55.46
-56.20
-58.52
-67.36
-82.64
-100.63
-116.89
-128.59
-135.91
-141.05
-146.07
-150.65
-151.88
-145.93
-130.81
-108.53
-84.72
-67.56
-64.57
-78.86
-106.81
-139.31
-165.99
-179.55
-177.64
-161.11
-132.25
-93.36
-46.08
7.57
63.25
113.69
150.03
161.74
147.50
118.67
90.93
73.80
67.48
66.43
64.85
60.30
54.11
49.95
49.90
52.59
54.19
51.00
41.23
25.38
5.78
-14.00
-29.63
-37.88
-38.17
-32.38
-23.70
-15.34
-9.55
-7.03
-7.08
-7.90
-8.24
-8.45
-10.34
-15.97
-26.48
-41.50
-58.44
-73.91
-84.18
-86.56
-80.44
-67.58
-51.60
-36.94
-27.63
-26.07
-32.43
-44.60
-59.10
-72.42
-82.06
-87.14
-88.21
-86.69
-84.09
-81.46
-79.08
-76.70
-73.97
-70.62
-66.16
-59.60
-49.16
-32.70
-8.71
22.82
60.03
99.72
138.49
173.99
205.59
234.15
261.47
289.66
320.80
356.40
396.44
438.50
477.29
505.48
515.76
503.43
468.21
414.37
349.19
280.48
214.13
153.28
98.44
48.63
2.33
-41.92
-85.96
-132.33
-183.94
-242.76
-307.85
-374.12
-432.39
-471.93
-484.71
-469.38
-431.94
-383.28
-333.93
-289.37
-248.75
-207.70
-163.13
-116.37
-73.25
-40.22
-20.34
-11.56
-8.62
-6.86
-5.15
-5.91
-10.39
-17.70
-23.82
-23.82
-15.25
0.28
18.10
32.97
41.52
43.63
41.29
37.44
34.67
34.21
35.56
36.74
35.25
28.92
17.20
1.08
-16.79
-32.71
-42.90
-44.76
-37.97
-24.67
-8.95
5.38
15.43
19.40
18.34
15.49
14.13
15.37
17.73
16.69
8.74
-7.64
-30.69
-55.38
-75.24
-84.90
-82.45
-70.17
-52.67
-33.58
-14.46
6.07
31.22
63.93
105.61
156.61
211.12
256.89
284.54
288.52
268.59
229.22
176.83
118.53
61.22
9.86
-32.77
-66.08
-91.27
-108.90
-117.34
-113.07
-92.98
-57.38
-11.95
33.64
69.18
87.01
84.80
65.87
37.75
8.75
-15.15
-32.04
-43.47
-52.65
-62.60
-74.45
-86.47
-94.98
-95.55
-85.46
-65.56
-39.79
-14.08
6.01
17.20
19.66
17.22
14.55
14.51
16.84
19.05
18.32
13.75
6.81
0.75
-1.42
1.43
8.14
16.38
24.10
30.29
34.50
35.86
32.61
22.64
4.89
-19.13
-45.42
-68.62
-84.12
-90.02
-87.39
-79.12
-67.96
-55.36
-41.10
-25.87
-10.77
2.03
10.06
12.00
8.41
1.66
-5.22
-9.73
-11.19
-10.68
-10.32
-12.43
-18.55
-29.19
-43.38
-58.37
-69.97
-73.45
-64.85
-42.90
-10.42
26.23
59.02
81.31
90.68
89.12
81.32
72.43
65.90
62.41
62.21
64.20
65.94
65.00
58.88
45.87
26.28
2.96
-19.53
-36.24
-44.38
-44.51
-39.19
-31.43
-23.77
-17.40
-12.99
-11.06
-12.03
-16.21
-23.71
-34.06
-46.66
-60.83
-74.21
-83.31
-83.89
-72.92
-50.72
-21.03
10.34
38.33
60.02
75.32
84.85
88.56
84.94
72.07
50.29
21.83
-5.69
-25.71
-35.24
-36.76
-35.79
-37.71
-44.62
-53.93
-60.37
-58.38
-45.79
-24.17
1.00
23.73
39.88
49.50
56.67
65.73
79.10
92.91
103.78
104.15
89.65
61.20
23.11
-12.74
-37.51
-48.27
-48.23
-43.95
-42.26
-47.03
-59.31
-76.09
-92.92
-106.17
-112.26
-108.56
-94.29
-71.51
-43.01
-15.82
5.62
18.78
21.40
12.61
-5.20
-28.61
-51.56
-67.02
-71.01
-63.10
-48.82
-37.60
-35.65
-42.01
-49.55
-49.12
-33.94
-3.22
40.84
92.78
139.64
169.21
173.66
150.76
104.20
44.00
-16.00
-58.91
-73.32
-58.06
-19.71
32.44
88.86
140.88
182.90
196.11
174.03
127.48
73.96
26.57
-7.12
-19.58
-12.90
9.66
43.41
85.67
133.04
174.31
189.60
168.24
116.01
51.02
-8.13
-52.68
-82.38
-103.10
-121.97
-139.35
-148.25
-140.70
-114.04
-72.59
-25.94
16.98
44.21
50.48
40.68
25.84
15.21
11.94
14.00
17.75
21.46
24.46
26.18
24.54
15.99
-2.91
-33.21
-71.84
-112.28
-146.90
-170.61
-182.02
-182.85
-176.98
-170.32
-164.25
-159.39
-156.62
-157.68
-164.51
-176.90
-191.13
-201.45
-201.70
-187.98
-159.23
-119.52
-76.96
-40.51
-15.63
-2.16
3.20
5.52
8.28
16.34
32.48
57.58
91.70
131.06
174.10
218.72
263.52
305.42
346.12
387.11
428.01
465.73
497.68
523.52
543.54
559.35
540.54
473.00
363.58
233.40
101.80
-17.72
-113.26
-187.83
-243.25
-284.89
-315.03
-337.84
-351.57
-359.11
-363.04
-364.56
-364.31
-349.28
-316.22
-267.60
-212.04
-158.38
-113.43
-79.54
-56.35
-41.70
-32.46
-28.88
-28.96
-30.47
-31.66
-33.30
-36.35
-42.64
-52.39
-64.94
-80.69
-96.40
-106.12
-103.51
-86.00
-54.74
-14.77
28.92
72.01
110.85
145.11
177.30
211.52
243.09
268.81
274.11
252.81
209.47
154.83
98.31
44.41
-5.06
-48.12
-80.01
-95.53
-90.19
-63.87
-22.93
22.69
63.24
92.39
108.40
104.70
84.85
59.31
37.55
23.21
15.80
12.89
12.30
12.53
13.20
15.33
20.48
29.15
40.29
53.84
70.64
90.85
113.19
134.32
149.29
152.41
139.72
110.47
70.84
30.81
0.13
-15.80
-17.29
-8.90
3.52
23.69
49.89
79.45
107.14
126.55
130.10
117.14
91.16
58.56
25.89
-5.21
-29.31
-46.33
-59.08
-70.88
-83.72
-98.87
-117.23
-139.57
-167.65
-200.37
-234.23
-264.79
-288.01
-300.92
-302.54
-292.67
-271.06
-239.34
-198.52
-150.04
-98.79
-52.27
-17.16
1.82
2.81
-12.78
-43.78
-86.76
-134.78
-182.32
-225.07
-257.88
-276.68
-280.32
-270.88
-255.95
-242.09
-229.42
-217.21
-204.61
-189.99
-174.65
-164.63
-150.32
-132.15
-133.57
-151.03
-165.05
-163.84
-142.17
-103.56
-58.80
-17.11
14.90
36.80
55.87
76.57
97.99
119.29
137.58
147.45
151.20
156.07
171.53
207.70
266.00
337.25
410.09
469.06
494.66
480.49
432.40
363.30
291.29
232.25
196.16
192.71
222.29
269.52
321.42
368.19
400.32
413.02
406.69
351.78
248.14
157.96
93.74
39.82
-9.80
-57.93
-102.35
-136.86
-155.58
-150.40
-122.49
-93.64
-83.71
-94.36
-119.03
-149.33
-171.89
-176.60
-157.24
-119.33
-82.04
-58.28
-53.96
-67.44
-86.69
-97.13
-94.77
-84.89
-78.26
-85.18
-103.25
-120.78
-126.05
-112.84
-82.64
-43.61
-3.86
30.21
53.52
67.83
75.26
77.33
74.45
65.97
50.55
28.73
2.31
-26.12
-52.55
-72.84
-84.10
-85.73
-77.99
-65.49
-53.64
-46.91
-46.52
-50.22
-53.77
-52.57
-43.37
-25.22
1.04
33.02
65.41
91.66
105.38
102.19
81.67
47.99
8.86
-28.72
-51.84
-55.15
-42.47
-22.69
-3.85
10.24
20.13
28.33
36.15
43.20
46.56
44.99
38.71
30.64
24.23
21.57
22.55
25.40
28.34
29.46
28.14
24.73
20.78
17.64
15.76
14.92
14.76
15.22
15.56
14.75
11.95
8.23
5.68
5.54
7.09
6.62
-0.90
-19.53
-49.35
-85.38
-117.19
-133.75
-128.73
-102.48
-61.73
-14.86
31.87
78.04
117.46
142.31
147.16
129.98
92.79
41.00
-15.59
-65.37
-99.75
-115.58
-114.23
-100.67
-85.90
-73.85
-68.00
-69.76
-78.21
-91.29
-105.34
-115.03
-115.59
-104.72
-83.32
-56.41
-31.20
-10.24
0.25
-3.29
-17.85
-33.86
-38.73
-22.85
15.16
67.53
119.77
155.58
164.90
148.01
114.27
76.91
46.25
26.72
17.27
13.30
8.91
0.63
-11.70
-26.18
-41.00
-57.20
-76.51
-99.09
-122.74
-143.56
-156.59
-157.83
-146.42
-116.57
-73.23
-29.34
2.91
19.44
23.43
21.13
17.99
16.89
18.15
18.70
15.90
9.12
-0.31
-10.35
-18.78
-23.88
-25.03
-22.45
-18.68
-16.00
-15.33
-15.91
-16.50
-15.72
-12.47
-6.63
1.42
9.12
13.48
12.47
5.89
-4.73
-16.60
-26.70
-33.04
-34.17
-31.55
-28.05
-26.37
-27.00
-27.83
-24.60
-12.33
10.04
44.50
90.55
145.25
203.25
257.80
300.87
325.23
326.68
306.22
272.98
238.28
211.13
194.23
184.56
175.22
160.45
137.99
98.28
43.87
-14.12
-64.40
-105.04
-140.93
-177.26
-213.85
-244.28
-261.10
-258.19
-236.35
-198.44
-153.24
-107.99
-71.68
-48.61
-36.24
-28.07
-14.69
4.26
24.03
38.60
45.68
44.17
38.36
33.73
33.33
37.33
41.79
41.78
33.52
17.17
-3.49
-21.95
-32.76
-34.14
-27.60
-17.16
-6.45
2.15
8.23
12.13
14.71
16.15
16.01
14.09
10.71
7.03
4.10
2.42
1.63
1.36
1.40
1.87
3.20
5.60
9.24
13.99
19.82
27.09
36.89
50.32
67.66
87.66
107.19
121.84
126.88
118.72
96.29
62.13
22.54
-13.64
-37.20
-41.47
-24.41
10.33
54.30
96.41
125.66
133.81
117.41
78.92
26.72
-26.40
-66.47
-82.61
-70.98
-36.54
8.43
48.64
71.10
69.18
43.58
0.46
-51.88
-105.77
-155.60
-197.81
-230.47
-252.77
-265.23
-270.09
-271.24
-273.46
-280.52
-293.40
-309.25
-322.18
-325.18
-312.65
-282.49
-236.62
-179.64
-116.25
-49.01
21.64
94.87
166.67
228.47
268.93
278.65
254.79
204.52
143.75
91.43
62.21
62.45
90.01
136.98
193.51
248.64
292.71
318.71
322.92
304.71
267.47
218.29
166.04
119.78
84.46
61.91
51.67
50.66
52.12
48.12
32.57
3.75
-34.01
-75.39
-114.74
-147.97
-164.22
-156.74
-127.69
-87.48
-55.91
-34.87
-23.66
-22.88
-29.80
-43.88
-65.38
-93.11
-123.33
-150.14
-166.39
-169.23
-159.24
-139.47
-114.76
-90.55
-70.67
-56.05
-45.22
-35.36
-26.69
-21.31
-21.62
-29.38
-44.73
-64.99
-84.62
-96.27
-92.65
-71.04
-34.10
10.52
52.20
81.10
92.18
86.95
72.33
56.61
44.43
35.15
24.02
5.02
-26.17
-70.03
-123.27
-179.15
-229.94
-268.83
-290.73
-292.92
-275.74
-242.89
-200.33
-155.20
-112.32
-75.13
-45.66
-24.13
-8.67
4.42
18.87
37.83
61.70
90.65
122.24
152.53
178.58
200.10
219.88
241.35
267.91
299.55
335.85
372.49
402.72
420.98
425.89
421.00
411.72
404.30
379.50
327.37
251.49
168.27
96.69
47.99
28.84
26.51
26.44
15.74
-9.00
-45.67
-91.60
-139.02
-179.35
-207.22
-223.65
-233.24
-243.42
-256.96
-274.14
-293.57
-309.70
-315.48
-305.94
-279.74
-237.48
-182.70
-118.19
-50.93
6.80
45.33
60.41
53.48
33.39
15.56
15.55
45.65
105.79
181.95
257.81
319.90
357.68
367.25
351.73
304.44
232.53
164.91
107.33
56.20
11.79
-28.88
-69.98
-115.00
-165.86
-221.18
-280.68
-347.47
-421.03
-477.98
-499.76
-480.10
-425.83
-348.47
-257.11
-161.57
-74.54
-4.56
46.50
77.94
93.37
97.48
95.78
94.33
97.11
105.56
122.23
150.55
188.11
224.87
250.30
256.81
242.18
209.47
165.40
113.92
66.23
31.02
9.73
-2.48
-11.08
-17.96
-22.08
-22.18
-18.31
-11.45
-5.58
-5.22
-13.07
-28.55
-48.29
-67.00
-79.87
-83.67
-76.60
-60.64
-40.96
-24.66
-18.05
-23.37
-39.32
-62.54
-88.92
-114.10
-135.55
-149.22
-153.65
-149.64
-137.48
-118.50
-96.20
-75.50
-59.84
-49.79
-43.00
-35.89
-24.82
-4.38
28.99
74.94
129.89
190.01
252.09
312.14
363.66
380.89
346.23
265.04
164.23
72.43
5.14
-36.42
-59.47
-72.64
-80.48
-79.74
-65.69
-39.07
-8.25
15.30
23.26
14.60
-4.77
-25.49
-37.62
-36.89
-26.87
-15.87
-10.61
-12.26
-16.91
-19.38
-16.99
-9.73
-0.49
6.66
8.95
7.14
4.46
3.98
6.25
9.21
10.06
7.07
0.39
-8.14
-15.69
-19.75
-19.25
-15.00
-9.30
-4.40
-2.28
-3.84
-8.59
-14.56
-19.22
-20.61
-18.24
-13.02
-6.04
1.98
11.28
22.89
37.70
55.38
74.16
91.82
107.02
120.77
134.60
149.31
163.51
173.56
174.88
164.16
141.06
105.03
61.45
17.02
-23.02
-56.59
-84.43
-108.43
-129.82
-147.83
-160.12
-163.77
-158.01
-144.41
-126.35
-107.53
-90.84
-78.27
-69.98
-65.00
-61.84
-60.01
-59.62
-60.56
-62.04
-62.59
-61.68
-58.46
-52.33
-43.61
-34.32
-26.99
-23.41
-24.01
-27.72
-34.12
-40.93
-44.94
-43.98
-38.94
-32.96
-30.10
-33.80
-45.68
-67.00
-94.50
-121.39
-140.28
-146.66
-139.20
-119.52
-91.48
-46.76
8.32
58.38
92.19
109.86
117.04
119.84
122.53
127.30
134.37
139.79
141.08
136.25
124.58
105.61
80.97
54.02
28.67
7.45
-11.16
-29.04
-47.34
-62.34
-72.14
-75.75
-73.82
-68.27
-61.43
-56.18
-53.05
-50.72
-46.64
-39.86
-30.32
-18.66
-3.78
14.94
34.69
48.79
48.59
31.54
-0.53
-40.87
-80.50
-111.61
-127.35
-125.52
-104.39
-70.59
-35.42
-7.70
16.88
45.97
82.33
124.84
168.36
205.99
231.24
242.19
241.75
235.90
230.17
226.47
223.24
217.04
205.90
190.91
177.42
172.29
172.87
175.35
175.59
172.47
167.63
163.46
159.66
153.52
141.18
120.14
92.98
62.11
32.24
8.85
-3.42
-5.18
-0.09
7.08
12.36
13.22
9.95
1.16
-13.49
-31.02
-51.51
-75.23
-102.12
-130.58
-158.00
-186.61
-218.38
-252.47
-282.46
-307.28
-327.52
-344.76
-359.04
-369.52
-381.07
-397.09
-416.75
-431.43
-439.43
-441.61
-440.75
-438.56
-401.77
-318.05
-200.86
-107.99
-43.38
-0.24
38.29
76.33
113.17
145.37
163.26
161.17
140.90
115.13
90.99
72.90
62.13
59.72
66.21
77.11
88.80
99.64
112.81
124.99
131.45
129.30
118.45
103.34
85.25
64.74
42.01
22.67
8.46
0.33
-1.82
1.32
7.82
14.14
16.43
12.33
3.80
-6.11
-13.10
-13.80
-7.02
5.78
22.36
38.60
49.80
53.66
50.68
44.71
41.50
47.08
66.08
102.41
153.73
210.98
262.15
297.15
311.02
304.67
283.61
239.06
176.37
111.34
57.28
16.41
-15.70
-42.33
-62.94
-74.81
-76.60
-67.25
-50.38
-33.65
-24.67
-26.84
-38.01
-51.98
-61.49
-60.05
-42.96
-12.35
22.79
50.52
60.74
47.99
12.21
-41.66
-104.93
-165.68
-213.37
-241.26
-246.91
-231.80
-200.68
-160.34
-117.64
-77.56
-41.57
-9.15
20.66
47.96
71.40
88.30
95.73
92.31
79.66
62.70
47.89
40.93
44.64
58.26
77.72
96.97
109.63
110.66
97.43
70.47
33.80
-6.02
-41.33
-65.38
-74.16
-67.05
-46.63
-17.91
12.84
39.60
57.75
64.91
61.49
50.29
35.68
22.20
13.09
9.44
10.15
12.22
11.57
4.29
-11.79
-35.24
-60.26
-78.66
-82.71
-68.06
-35.78
8.05
54.54
94.48
121.78
135.10
135.57
125.47
107.93
86.18
62.89
39.54
14.70
-13.80
-45.79
-80.73
-116.49
-147.90
-168.01
-170.61
-152.72
-118.04
-73.92
-26.58
15.61
44.54
56.13
50.62
31.64
4.44
-28.37
-64.30
-97.23
-124.63
-146.71
-163.08
-172.74
-174.93
-154.11
-107.25
-64.14
-33.42
-8.63
13.51
35.38
56.76
74.32
83.39
78.64
60.67
40.05
26.81
25.92
37.01
54.03
68.40
73.38
65.12
45.87
24.19
5.75
-8.51
-20.07
-31.85
-46.64
-65.61
-88.54
-111.36
-125.61
-124.48
-105.24
-69.61
-24.58
19.20
50.69
61.21
48.57
17.67
-22.73
-62.09
-89.80
-98.43
-85.52
-54.18
-12.33
31.44
69.99
98.97
113.31
111.07
96.42
78.33
68.80
71.45
87.01
113.10
140.54
158.50
157.38
132.15
86.09
29.83
-23.10
-60.56
-76.92
-73.99
-58.66
-37.28
-17.97
-5.68
0.97
8.17
24.02
50.11
82.64
114.69
138.39
142.94
122.66
78.41
17.36
-48.17
-104.20
-138.50
-144.69
-125.01
-89.56
-51.08
-21.10
-7.07
-10.50
-27.69
-51.76
-72.75
-83.98
-86.38
-84.25
-80.42
-74.48
-64.90
-52.09
-39.23
-30.26
-28.88
-36.24
-49.46
-63.86
-75.93
-84.83
-91.56
-95.80
-95.74
-88.09
-69.20
-37.16
5.24
49.53
83.74
96.93
84.55
49.22
0.20
-49.05
-84.80
-97.62
-85.21
-52.00
-5.91
46.86
101.13
153.18
200.45
240.80
271.99
292.40
302.80
307.04
312.03
320.65
329.56
330.70
315.23
277.77
219.57
148.76
66.83
-11.10
-68.44
-98.24
-105.08
-99.01
-88.13
-76.99
-68.71
-65.94
-68.67
-77.32
-91.35
-108.31
-124.97
-139.64
-153.43
-169.37
-189.94
-213.57
-236.63
-253.93
-259.59
-249.07
-221.50
-181.03
-136.06
-96.40
-69.14
-57.74
-60.91
-73.23
-87.70
-98.67
-103.61
-103.19
-99.92
-96.45
-95.25
-97.45
-102.16
-106.42
-106.01
-96.96
-77.07
-46.69
-8.42
33.29
73.19
106.52
130.13
143.47
149.20
152.79
160.93
178.77
207.17
241.47
272.43
289.06
282.38
248.44
189.54
113.93
33.80
-37.56
-88.93
-114.20
-113.85
-94.55
-66.38
-38.74
-17.11
-2.20
8.34
16.99
24.18
28.16
26.63
18.96
7.13
-5.05
-13.92
-17.68
-17.11
-14.81
-13.57
-14.81
-17.94
-20.93
-21.43
-18.20
-11.75
-4.09
2.26
5.59
5.74
4.14
2.81
3.37
6.26
10.73
15.46
19.20
21.48
22.53
23.06
23.65
24.40
24.75
23.63
20.08
13.77
5.55
-2.82
-9.22
-12.12
-11.22
-7.55
-3.07
0.27
1.21
-0.46
-4.05
-8.38
-12.30
-14.88
-15.64
-14.50
-11.71
-7.78
-3.33
0.98
4.62
7.27
8.90
9.72
10.11
10.52
11.35
12.79
14.77
16.98
18.92
20.17
20.48
19.86
18.55
16.84
14.99
13.15
11.35
9.51
7.54
5.39
3.10
0.80
-1.34
-3.23
-4.81
-6.13
-7.26
-8.21
-8.97
-9.60
-10.23
-11.24
-12.99
-15.76
-19.44
-23.50
-27.13
-29.53
-30.23
-29.22
-26.94
-24.11
-21.49
-19.56
-18.51
-18.09
-17.70
-16.55
-14.12
-10.71
-7.85
-8.12
-14.43
-28.79
-51.50
-81.07
-114.80
-149.60
-182.63
-211.31
-233.31
-246.53
-249.66
-242.67
-227.14
-205.71
-181.12
-155.29
-129.04
-102.47
-75.61
-48.67
-21.78
5.37
33.38
62.58
92.16
119.94
142.94
158.65
166.18
166.69
162.99
158.23
154.68
153.19
153.53
154.97
156.77
158.27
158.81
157.80
154.61
148.80
140.33
129.76
118.09
106.29
94.91
83.89
73.27
63.12
53.52
44.56
36.41
29.29
23.16
17.68
12.37
8.04
5.56
4.89
4.86
3.96
1.35
-2.93
-8.18
-13.37
-15.04
-10.67
-0.78
10.83
19.55
22.53
19.61
12.73
4.90
3.01
12.12
32.06
57.30
80.66
97.21
105.23
105.51
100.77
100.88
116.61
154.74
215.13
291.99
376.15
456.34
521.19
529.65
458.25
318.33
152.89
5.39
-103.74
-176.03
-222.63
-254.17
-276.51
-286.11
-279.03
-256.97
-228.58
-204.05
-189.42
-185.15
-187.86
-192.74
-191.97
-180.67
-159.84
-135.97
-116.42
-105.22
-102.04
-103.79
-106.63
-105.23
-96.65
-82.03
-66.05
-53.65
-47.24
-46.15
-47.77
-49.34
-47.82
-41.96
-33.04
-24.02
-18.05
-17.12
-21.87
-31.70
-44.54
-56.51
-62.74
-59.30
-44.99
-22.29
3.33
25.43
38.97
42.40
38.04
30.13
22.48
16.86
13.01
9.79
6.57
3.71
2.22
2.77
5.06
7.93
10.09
10.57
9.36
7.26
5.38
4.62
5.29
7.01
8.99
10.45
10.98
10.70
10.05
9.58
9.72
10.50
11.67
12.74
13.27
13.14
12.64
12.52
13.65
16.39
19.92
22.26
20.88
14.00
1.54
-14.66
-31.53
-46.09
-56.50
-62.34
-64.14
-62.73
-58.86
-52.89
-45.41
-37.35
-29.77
-23.26
-17.77
-12.71
-7.42
-1.82
3.60
7.95
10.52
11.15
10.36
9.10
8.34
8.73
10.32
12.65
14.89
16.28
16.47
15.58
14.06
12.34
10.72
9.27
7.92
6.49
4.90
3.15
1.33
-0.48
-2.21
-3.75
-5.02
-6.07
-7.21
-8.96
-11.87
-16.01
-20.64
-24.16
-24.64
-20.52
-11.30
2.09
17.69
33.10
46.14
55.17
59.11
57.22
49.01
34.49
14.33
-9.50
-34.11
-56.47
-74.28
-86.60
-93.76
-96.97
-96.46
-93.15
-88.28
-83.43
-80.20
-79.67
-81.70
-84.73
-86.40
-84.57
-78.58
-69.06
-57.34
-44.44
-30.66
-15.91
-0.76
12.94
22.26
24.22
17.40
2.78
-16.32
-35.49
-50.57
-58.86
-59.35
-52.44
-39.30
-21.45
-0.82
19.99
38.21
51.86
60.85
67.13
73.54
82.08
92.45
101.95
106.79
104.24
94.14
79.09
63.19
50.05
41.43
36.93
34.79
33.23
31.36
29.55
29.19
31.91
38.78
49.61
62.94
76.58
88.79
99.10
108.22
117.54
128.04
139.69
151.37
161.51
168.67
171.68
169.61
161.53
146.67
124.91
97.29
66.15
34.56
5.39
-19.70
-40.76
-59.22
-77.15
-96.22
-117.22
-139.72
-162.25
-182.75
-199.25
-210.63
-217.09
-220.07
-221.53
-222.66
-222.72
-218.79
-206.69
-183.06
-147.55
-103.77
-58.31
-18.16
11.91
30.85
40.75
44.82
45.30
42.48
35.52
23.93
9.10
-5.49
-15.45
-17.46
-10.89
1.80
16.13
27.62
33.58
33.92
30.51
25.62
20.51
15.09
8.68
1.29
-5.73
-10.16
-10.23
-5.92
1.05
8.60
15.81
23.42
32.85
44.54
57.11
67.93
74.68
76.69
75.34
73.07
71.74
71.47
70.83
68.15
63.34
58.25
55.92
59.10
68.80
83.68
100.53
115.64
126.20
131.85
133.35
130.96
123.77
110.47
90.78
66.21
39.69
14.43
-5.99
-20.34
-30.15
-38.16
-45.80
-52.14
-55.05
-53.04
-46.49
-35.15
-20.32
-5.31
5.54
9.22
5.37
-3.96
-14.97
-22.32
-16.41
10.80
61.37
129.67
204.59
273.14
323.96
350.31
331.43
262.62
160.81
55.97
-29.25
-88.86
-127.97
-153.73
-170.66
-180.49
-180.83
-171.15
-155.05
-138.96
-127.98
-123.43
-123.33
-124.43
-124.17
-119.03
-107.93
-93.12
-79.03
-69.22
-64.52
-63.47
-63.72
-63.36
-60.02
-52.96
-43.65
-34.92
-29.05
-26.55
-26.34
-26.82
-26.66
-24.51
-20.17
-14.68
-9.83
-7.00
-6.41
-7.28
-8.33
-8.49
-6.98
-3.96
-0.36
2.48
3.58
2.84
1.02
-0.66
-1.22
-0.18
2.02
4.41
5.78
5.04
1.43
-5.38
-14.95
-25.83
-35.21
-39.65
-36.28
-24.35
-6.08
13.70
29.33
36.67
34.68
25.59
13.44
2.14
-6.08
-10.92
-13.18
-13.74
-12.86
-10.51
-6.63
-1.84
2.82
6.21
7.56
6.91
4.83
2.31
0.28
-0.46
0.34
2.25
4.26
5.11
3.90
0.48
-4.54
-10.22
-15.65
-20.42
-24.33
-26.98
-27.44
-24.52
-17.44
-6.38
6.17
17.17
24.07
25.78
22.98
17.55
11.67
7.07
4.52
3.89
4.55
5.63
6.20
5.74
4.24
2.31
1.00
1.41
4.22
9.47
16.38
23.46
28.89
31.04
28.66
21.55
10.85
-1.11
-11.24
-16.91
-17.12
-13.11
-8.02
-5.36
-6.92
-11.59
-15.66
-14.64
-5.90
9.62
27.58
42.19
49.00
46.81
37.54
24.73
11.56
-0.36
-10.79
-19.65
-26.81
-31.41
-32.12
-28.26
-20.52
-10.93
-2.20
3.26
4.27
1.23
-4.01
-8.68
-10.64
-9.06
-4.79
0.06
3.15
2.65
-2.35
-11.96
-25.31
-40.49
-54.54
-63.63
-64.17
-54.38
-35.57
-11.73
10.43
25.78
32.37
31.69
27.26
22.43
18.83
16.17
13.36
9.81
6.34
4.39
5.03
8.04
12.02
15.07
15.66
13.53
9.70
6.08
4.42
5.51
8.84
12.87
15.72
16.10
13.86
10.10
6.68
5.29
6.77
10.54
15.07
18.54
19.55
17.80
14.06
9.87
6.96
6.90
10.78
18.67
28.95
38.12
41.46
34.71
16.32
-11.55
-43.25
-71.88
-91.86
-100.92
-100.14
-92.65
-82.01
-71.13
-62.02
-55.90
-52.91
-51.79
-49.67
-43.02
-29.42
-9.09
14.60
36.77
53.12
61.81
63.79
61.61
57.78
53.62
49.37
44.83
40.02
35.17
29.91
22.49
10.35
-8.39
-32.90
-58.53
-77.68
-82.84
-70.07
-41.50
-4.85
29.52
52.66
60.12
52.68
34.75
11.76
-11.89
-33.40
-50.71
-61.65
-63.92
-56.16
-39.23
-16.57
6.52
24.52
33.20
30.63
17.16
-5.17
-33.21
-63.14
-90.89
-112.59
-124.27
-123.61
-111.01
-89.64
-64.67
-41.90
-26.18
-20.26
-24.14
-34.97
-47.60
-56.17
-56.20
-46.35
-29.01
-9.37
6.58
14.45
13.06
5.28
-4.09
-10.58
-11.83
-7.77
0.22
10.45
21.58
32.74
44.66
57.33
68.98
76.27
76.12
67.81
53.79
38.85
28.27
28.28
41.51
65.62
94.20
120.31
140.09
153.63
163.68
173.43
188.02
210.03
238.55
270.44
303.20
336.75
372.02
408.15
419.31
385.37
302.48
187.92
68.36
-34.45
-109.79
-157.24
-183.39
-197.31
-203.11
-201.84
-193.61
-180.02
-164.31
-149.99
-139.74
-134.77
-134.84
-135.89
-133.64
-125.97
-113.98
-100.64
-88.85
-80.45
-76.01
-75.12
-75.02
-73.13
-68.19
-60.91
-52.99
-45.99
-40.75
-37.43
-35.87
-34.94
-33.67
-31.62
-29.07
-26.45
-24.01
-21.68
-19.48
-17.58
-16.06
-14.98
-14.32
-14.09
-14.39
-15.34
-16.89
-18.40
-18.40
-14.94
-6.47
7.04
23.52
39.42
51.18
56.98
57.28
54.22
50.04
45.30
38.99
29.58
16.79
2.45
-9.82
-16.40
-15.58
-8.47
1.67
11.10
17.24
19.49
18.83
16.76
14.30
11.69
8.64
5.03
1.17
-2.21
-4.40
-5.18
-4.90
-4.42
-4.61
-6.11
-8.97
-12.68
-16.35
-19.02
-20.07
-19.42
-17.51
-14.99
-12.50
-10.40
-8.79
-7.58
-6.61
-5.67
-4.62
-3.29
-1.57
0.50
2.70
4.72
6.30
7.41
8.23
8.89
9.54
10.27
11.10
12.08
13.27
14.72
16.38
18.03
19.15
19.31
18.34
16.34
13.67
10.77
7.99
5.31
3.91
4.00
5.33
7.41
9.65
11.60
13.11
14.39
15.94
18.32
21.64
25.69
29.84
33.28
35.25
35.41
33.94
31.54
29.10
27.25
26.27
26.08
26.18
25.88
24.45
21.40
16.71
10.96
5.15
0.56
-1.86
-1.92
-0.49
0.85
0.60
-2.11
-6.99
-12.64
-16.98
-18.25
-16.00
-11.62
-7.89
-7.70
-12.87
-23.29
-37.01
-51.16
-63.11
-71.30
-75.46
-75.82
-72.53
-65.94
-57.24
-48.63
-42.64
-40.88
-43.00
-47.18
-50.09
-48.34
-40.49
-27.95
-14.13
-2.65
4.06
5.25
0.11
-10.46
-23.64
-36.06
-45.21
-49.68
-49.10
-43.98
-35.63
-28.01
-23.56
-21.79
-20.94
-20.20
-19.81
-20.41
-22.56
-26.62
-35.82
-51.59
-71.93
-93.44
-113.48
-130.20
-141.96
-147.70
-128.93
-83.96
-30.33
12.72
39.23
53.61
62.77
71.52
81.38
91.31
96.44
94.43
87.55
79.97
74.46
71.69
71.05
71.52
72.11
69.91
63.87
55.84
48.57
43.59
41.13
40.73
41.74
43.35
43.33
40.38
35.31
29.71
24.84
21.38
19.52
19.25
20.37
22.01
23.58
24.82
24.66
20.82
10.84
-6.09
-27.91
-50.04
-67.55
-77.70
-80.53
-79.05
-77.08
-76.55
-76.47
-74.05
-67.19
-55.65
-41.76
-27.35
-12.33
5.37
27.73
54.50
82.53
107.08
124.37
132.90
133.24
126.05
110.70
85.95
52.45
14.92
-18.50
-39.49
-43.58
-32.35
-12.39
8.51
25.15
36.15
43.22
47.38
46.53
36.77
14.37
-19.26
-57.17
-89.72
-109.24
-113.39
-105.54
-91.41
-75.00
-57.00
-35.52
-9.33
20.12
48.54
71.22
85.60
92.39
94.33
93.61
90.33
82.37
67.66
46.74
23.57
3.91
-7.42
-9.01
-3.56
4.39
9.36
7.83
-0.34
-12.53
-25.39
-36.83
-46.55
-55.22
-62.97
-68.84
-71.06
-68.19
-60.53
-50.25
-40.53
-33.89
-30.93
-30.37
-30.13
-28.33
-24.26
-18.53
-12.59
-8.33
-7.04
-8.77
-12.35
-16.19
-18.85
-19.46
-17.73
-13.76
-8.22
-1.90
4.86
12.09
19.96
28.93
39.87
53.67
70.42
87.83
101.51
106.62
99.74
80.17
50.23
14.46
-22.40
-52.96
-71.86
-79.17
-78.94
-75.17
-69.78
-63.16
-55.37
-47.02
-39.16
-33.48
-30.98
-31.32
-32.66
-32.95
-30.91
-26.60
-21.45
-17.50
-16.84
-19.88
-24.42
-26.09
-20.38
-4.67
20.86
52.41
83.93
108.66
121.84
122.07
111.24
92.93
71.18
49.60
30.76
16.25
6.29
0.43
-2.86
-6.29
-13.21
-25.29
-40.52
-54.16
-61.19
-59.86
-51.21
-38.81
-25.45
-13.94
-4.28
6.89
23.28
44.99
66.11
78.79
75.69
53.37
13.83
-34.83
-79.98
-108.90
-113.61
-94.02
-54.61
-4.11
47.34
90.98
117.24
120.63
105.83
91.47
81.63
73.62
59.88
36.65
4.30
-32.56
-66.32
-90.02
-100.76
-100.52
-91.30
-75.04
-52.93
-26.24
2.70
30.09
50.67
55.50
39.66
11.03
-14.96
-26.60
-22.66
-10.53
0.28
4.62
1.58
-6.35
-14.36
-19.25
-20.77
-20.05
-17.99
-14.36
-8.07
1.49
13.96
27.95
40.27
46.95
45.02
33.65
14.39
-9.68
-34.97
-57.74
-74.42
-82.59
-81.36
-71.32
-54.19
-32.48
-8.82
14.56
36.09
54.10
65.80
67.36
55.60
30.36
-3.74
-37.61
-60.58
-64.43
-47.07
-13.54
26.30
62.29
88.00
102.33
108.09
108.45
104.11
93.20
73.58
45.72
13.82
-15.74
-37.49
-49.55
-53.85
-54.29
-53.84
-52.82
-49.45
-41.95
-30.73
-19.12
-12.01
-13.35
-23.90
-40.62
-57.86
-69.64
-71.96
-64.14
-48.86
-30.88
-14.86
-3.39
3.66
8.12
11.76
14.78
15.69
12.69
5.35
-4.42
-13.05
-16.95
-14.18
-5.31
7.05
19.61
29.81
36.58
40.31
42.04
42.63
42.23
40.34
36.32
29.90
21.60
12.62
4.51
-1.48
-4.83
-5.93
-5.83
-5.79
-6.70
-8.79
-11.72
-14.82
-17.40
-18.96
-19.32
-18.70
-17.51
-16.11
-14.74
-13.59
-12.72
-11.99
-11.03
-9.42
-6.96
-3.83
-0.17
3.79
7.70
11.23
14.31
17.10
19.78
22.16
23.75
24.48
24.58
24.16
23.44
22.92
23.45
25.77
29.91
34.98
40.14
44.66
47.72
49.16
50.02
52.39
58.09
67.30
73.34
69.35
51.78
21.84
-15.68
-54.43
-87.58
-108.56
-112.53
-98.31
-69.91
-33.63
0.67
22.21
23.17
1.92
-36.09
-79.98
-117.03
-136.15
-129.04
-94.94
-41.94
15.21
60.19
80.86
73.42
43.22
1.95
-37.76
-67.84
-85.90
-93.10
-90.83
-78.80
-55.65
-21.34
20.83
63.78
97.97
114.85
110.14
85.41
47.51
6.55
-26.84
-44.08
-40.49
-16.59
22.44
68.71
114.19
152.24
178.10
188.40
180.74
154.05
109.73
52.87
-7.65
-61.11
-98.32
-114.76
-111.77
-95.31
-73.06
-51.22
-32.62
-17.02
-2.84
10.84
23.32
32.47
35.84
31.95
21.22
6.02
-9.81
-21.88
-26.44
-21.40
-6.95
14.32
38.22
59.93
75.11
80.56
74.70
57.70
31.39
-1.10
-36.04
-69.99
-100.37
-125.40
-143.63
-153.36
-152.81
-141.05
-119.02
-90.22
-60.37
-36.16
-23.42
-25.44
-41.96
-69.09
-100.27
-127.80
-144.58
-145.54
-128.66
-95.19
-49.38
2.32
52.42
93.74
120.80
130.67
123.56
102.56
73.06
41.68
15.12
-1.21
-4.39
5.23
24.00
46.05
65.16
76.91
80.01
76.19
68.75
60.69
53.38
46.56
39.29
31.24
23.16
16.56
12.73
11.81
12.76
13.89
13.79
11.92
8.68
4.95
1.54
-1.09
-2.88
-4.09
-5.14
-6.61
-9.02
-12.67
-17.34
-22.24
-26.18
-28.11
-27.51
-24.64
-20.42
-15.99
-12.24
-9.52
-7.55
-5.63
-2.94
1.21
7.05
14.19
21.58
27.69
31.05
30.85
27.33
21.78
15.95
11.22
7.93
5.30
1.99
-2.93
-9.34
-15.86
-20.55
-21.80
-19.07
-13.04
-5.11
3.19
10.57
15.90
17.86
14.97
6.14
-8.15
-25.20
-40.37
-48.94
-48.58
-41.05
-31.77
-27.29
-31.72
-44.27
-59.38
-69.32
-67.90
-53.16
-27.52
4.45
39.01
74.92
112.92
153.14
192.93
226.23
245.42
244.55
222.08
181.21
127.97
68.64
8.00
-50.34
-102.64
-143.93
-168.57
-172.11
-153.50
-116.30
-67.75
-16.86
28.04
60.54
76.51
73.88
52.29
13.24
-39.51
-99.34
-157.11
-202.42
-226.33
-223.32
-192.61
-138.20
-67.94
7.68
77.20
129.80
157.80
158.16
133.75
93.05
47.45
7.43
-20.53
-34.72
-36.82
-29.20
-14.49
4.32
23.60
38.98
46.11
42.23
27.39
3.73
-22.37
-43.49
-55.33
-58.55
-56.70
-53.41
-50.61
-47.93
-45.03
-38.97
-28.41
-14.26
1.15
15.40
27.09
36.25
43.99
50.78
57.03
61.74
63.26
60.43
53.52
44.16
34.52
26.35
20.32
16.32
13.15
9.65
5.46
1.14
-2.41
-4.72
-5.99
-7.05
-8.66
-11.42
-15.18
-19.19
-22.49
-24.63
-25.71
-26.17
-26.46
-26.93
-27.76
-28.53
-28.38
-26.54
-22.99
-18.37
-13.45
-8.87
-5.33
-3.25
-2.25
-1.24
0.76
4.07
8.57
14.69
22.78
31.62
38.15
38.90
31.68
16.54
-4.18
-26.25
-44.14
-50.60
-42.65
-25.16
-7.49
3.34
5.68
1.03
-9.98
-25.27
-42.38
-58.51
-70.50
-74.47
-67.18
-44.57
-6.09
38.46
75.63
96.86
105.17
107.50
108.99
111.41
111.20
103.60
84.04
51.71
9.63
-37.67
-85.95
-131.79
-171.26
-199.28
-209.98
-199.72
-167.46
-115.58
-50.22
20.11
85.46
136.55
166.48
172.33
154.42
117.37
69.24
16.58
-29.43
-59.66
-72.12
-74.61
-70.48
-60.23
-44.04
-21.24
4.55
28.33
45.11
52.25
50.58
44.17
36.58
29.90
24.61
20.00
15.74
11.54
7.30
3.21
-0.13
-3.15
-6.76
-11.51
-17.50
-23.67
-28.69
-31.82
-33.35
-34.14
-35.72
-38.69
-42.47
-45.76
-47.01
-44.68
-38.45
-29.54
-19.71
-11.20
-5.01
-2.23
-4.43
-12.80
-25.29
-37.30
-43.45
-39.48
-25.08
-2.68
21.63
40.49
48.84
48.60
45.55
44.25
44.73
37.86
17.06
-17.99
-57.89
-92.75
-110.64
-100.72
-60.22
3.77
76.32
144.64
200.01
239.21
251.43
233.83
194.14
145.27
106.49
76.11
52.75
36.50
24.83
14.82
3.10
-15.01
-43.20
-80.52
-120.74
-150.84
-159.67
-145.00
-114.72
-81.83
-57.81
-46.51
-42.45
-35.72
-16.01
19.39
63.09
102.00
124.49
125.24
106.35
73.89
32.82
-13.09
-61.80
-109.65
-146.30
-161.94
-154.01
-126.93
-89.78
-54.37
-31.85
-24.69
-31.12
-45.18
-59.14
-66.25
-62.22
-46.38
-24.06
-2.48
13.23
21.20
22.91
21.01
17.75
15.60
14.01
10.06
2.16
-7.78
-15.39
-15.10
-2.19
25.85
69.81
124.27
178.13
219.34
239.25
234.47
207.49
165.31
106.01
41.48
-11.47
-44.92
-62.71
-71.93
-76.57
-76.96
-72.37
-63.44
-51.16
-39.27
-32.21
-31.92
-37.25
-45.78
-55.60
-65.41
-73.49
-76.01
-70.07
-54.83
-31.54
-3.43
24.22
44.16
52.57
50.20
41.90
32.48
24.52
18.54
14.24
11.34
10.04
10.77
12.92
15.16
15.34
11.73
4.44
-3.81
-9.06
-7.98
0.32
13.07
25.46
32.35
30.04
17.81
-1.58
-23.00
-40.61
-50.29
-51.40
-45.02
-33.34
-18.64
-2.64
13.70
30.06
47.19
65.50
84.31
103.45
121.69
135.58
139.76
128.62
99.88
57.33
8.19
-40.14
-80.19
-106.92
-119.00
-118.40
-109.82
-99.32
-92.94
-89.55
-96.42
-118.56
-152.02
-183.77
-198.79
-189.63
-167.46
-141.22
-121.69
-118.08
-131.79
-157.21
-186.09
-206.79
-212.16
-199.79
-170.72
-130.01
-83.68
-34.57
17.03
70.69
123.13
166.85
192.79
195.15
173.27
133.19
87.30
49.56
30.20
32.61
52.90
82.90
114.34
140.39
157.19
164.64
165.26
162.40
158.70
154.73
149.29
140.82
128.46
113.41
99.12
89.40
85.89
86.57
86.53
80.95
68.31
51.37
35.66
26.12
24.04
26.27
27.16
21.91
9.43
-7.20
-22.71
-32.68
-35.74
-33.82
-30.65
-29.52
-31.82
-36.90
-43.00
-48.58
-53.05
-56.63
-59.78
-62.52
-64.24
-64.02
-61.21
-55.94
-49.16
-42.31
-36.67
-32.82
-30.50
-28.83
-26.83
-23.92
-20.10
-15.80
-11.59
-7.94
-5.06
-3.08
-2.05
-1.98
-2.74
-4.01
-5.25
-5.89
-5.49
-3.88
-1.01
3.13
8.68
15.88
24.83
35.28
46.49
57.34
66.65
73.58
77.97
80.51
82.55
85.69
91.08
98.88
107.98
116.25
121.32
121.36
115.75
105.04
90.50
73.47
54.98
35.74
16.29
-2.83
-21.18
-38.69
-55.93
-73.90
-93.52
-114.97
-137.32
-158.60
-176.37
-188.35
-193.02
-189.88
-179.52
-163.52
-144.16
-124.00
-105.36
-89.75
-77.66
-68.60
-61.49
-55.08
-48.35
-40.80
-32.42
-23.71
-15.38
-8.18
-2.56
1.48
4.38
6.79
9.29
12.07
14.96
17.58
19.59
20.93
21.74
22.21
22.44
22.36
21.87
20.85
19.26
17.06
14.20
10.68
6.57
2.17
-2.06
-5.61
-8.08
-9.29
-9.50
-9.32
-9.71
-11.83
-16.50
-23.22
-29.38
-30.43
-21.57
-0.42
30.95
65.89
95.33
111.34
110.00
92.28
62.63
26.71
-10.33
-44.24
-71.17
-87.44
-90.29
-79.46
-58.35
-33.69
-13.31
-3.37
-6.09
-19.39
-38.28
-57.17
-72.02
-81.25
-85.16
-84.33
-78.27
-65.26
-43.50
-13.02
23.18
59.50
89.88
110.22
120.00
121.69
119.26
116.18
114.20
113.35
112.99
112.80
113.12
114.26
115.44
114.88
110.56
101.61
89.19
76.36
67.02
64.28
68.98
78.83
89.97
98.84
103.71
105.12
105.44
108.07
116.45
133.16
157.53
186.86
217.04
243.01
259.38
261.75
248.97
224.20
194.13
163.33
134.68
108.82
84.35
58.20
27.17
-9.71
-50.41
-91.03
-132.57
-176.65
-223.22
-269.43
-311.55
-347.01
-374.70
-394.84
-408.98
-425.69
-452.13
-490.05
-534.93
-579.80
-619.57
-651.88
-676.82
-658.20
-577.41
-444.41
-292.02
-149.15
-27.16
73.53
154.92
217.91
263.01
286.29
289.60
278.95
264.11
254.26
253.19
259.83
270.45
280.84
282.91
271.00
244.22
203.21
154.72
106.94
68.03
44.35
38.53
45.42
56.20
62.12
58.82
47.67
33.15
20.68
13.82
13.48
16.98
21.24
24.17
26.03
29.14
35.24
44.95
57.18
70.83
84.78
97.98
108.18
112.47
108.43
94.14
69.18
34.46
-6.10
-43.88
-65.54
-62.54
-37.93
-3.65
24.23
38.90
36.87
17.77
-16.21
-59.71
-105.90
-146.90
-174.90
-184.59
-174.78
-149.84
-116.88
-82.57
-51.12
-24.35
-1.92
17.46
34.35
47.94
55.69
55.69
48.05
34.61
17.48
-1.54
-20.74
-38.31
-52.21
-60.83
-62.79
-57.76
-47.32
-35.21
-25.85
-22.01
-23.85
-29.40
-35.96
-41.29
-44.41
-46.01
-47.79
-51.06
-55.07
-57.69
-56.92
-52.24
-45.02
-38.12
-35.02
-38.62
-49.86
-66.38
-81.12
-86.90
-80.66
-65.75
-47.96
-30.34
-12.12
9.00
35.59
67.09
99.18
126.61
146.28
158.70
167.44
177.22
185.12
189.89
189.60
182.33
167.06
144.18
115.16
82.12
47.41
13.46
-16.20
-38.89
-53.08
-58.76
-57.17
-50.26
-39.74
-26.69
-11.90
4.20
19.88
32.75
40.68
42.98
40.60
36.53
35.07
40.21
54.08
71.47
84.31
85.32
73.48
53.49
32.59
16.45
6.79
1.58
-3.20
-10.25
-19.08
-26.30
-29.29
-26.83
-19.35
-8.53
3.36
14.42
22.83
26.36
23.13
10.21
-13.81
-47.31
-85.93
-124.28
-158.24
-185.29
-205.47
-210.17
-195.51
-165.21
-128.97
-95.97
-70.14
-54.51
-43.29
-31.45
-16.02
1.66
18.08
31.29
39.45
42.61
42.25
41.05
41.00
43.09
45.73
46.48
44.03
38.90
33.14
28.94
28.41
32.90
42.86
56.22
68.51
73.98
69.38
57.10
44.25
35.16
30.62
28.69
25.92
19.10
7.93
-4.77
-15.52
-23.66
-32.13
-45.27
-65.59
-91.51
-118.60
-140.99
-154.25
-157.47
-153.34
-145.37
-135.10
-121.68
-98.48
-64.97
-27.50
4.55
25.00
33.40
33.80
33.03
34.88
41.39
52.80
69.35
91.01
116.83
141.12
157.95
162.76
154.21
135.11
110.06
84.25
61.46
43.35
29.78
20.66
15.83
14.33
13.70
9.19
-3.83
-27.25
-58.06
-88.93
-110.33
-114.97
-101.26
-73.74
-41.53
-13.81
3.70
10.52
8.34
1.76
-3.51
-3.50
4.22
18.52
38.56
63.97
91.76
116.90
133.49
136.83
125.65
103.29
76.28
51.63
30.81
13.92
-1.08
-15.92
-29.81
-39.71
-42.79
-39.04
-31.30
-23.71
-19.14
-18.38
-20.66
-24.85
-30.39
-36.48
-41.73
-43.77
-40.15
-29.12
-10.87
12.34
37.00
59.48
76.80
86.80
88.02
79.38
59.19
28.45
-9.29
-48.30
-82.12
-105.43
-115.55
-112.78
-99.81
-80.44
-58.37
-36.80
-18.13
-3.83
5.41
9.63
9.55
6.40
1.80
-2.34
-4.38
-3.15
1.68
9.30
17.82
24.85
28.29
27.06
21.44
12.56
1.92
-9.01
-18.96
-26.87
-31.90
-33.95
-33.88
-33.51
-34.91
-39.68
-48.27
-59.91
-72.87
-84.74
-92.88
-94.59
-87.71
-71.23
-46.03
-14.70
19.37
53.47
86.49
118.99
152.02
185.54
217.51
243.81
259.38
259.55
241.14
203.36
148.42
82.19
13.98
-44.86
-83.48
-95.11
-79.67
-44.49
-2.23
33.24
51.55
48.88
28.30
-2.37
-34.19
-60.24
-77.35
-85.63
-87.21
-84.68
-80.14
-75.17
-71.07
-68.91
-69.40
-72.48
-77.01
-81.19
-82.85
-80.19
-72.26
-59.19
-42.28
-23.77
-6.33
7.65
16.88
21.48
22.68
22.07
20.52
17.82
12.85
4.64
-6.60
-19.13
-30.07
-36.55
-36.92
-31.28
-21.18
-8.73
4.16
16.18
26.22
33.12
35.66
33.28
27.03
20.06
17.01
22.34
38.02
62.08
89.13
112.45
127.18
132.34
130.70
126.53
122.69
118.93
112.35
99.60
79.09
51.86
20.63
-12.14
-45.62
-80.15
-115.66
-149.88
-178.39
-196.43
-201.56
-195.39
-183.54
-173.36
-170.75
-177.73
-191.66
-207.14
-218.99
-224.57
-224.41
-221.19
-217.67
-214.44
-209.59
-199.59
-182.02
-157.98
-132.11
-110.26
-96.51
-90.89
-88.51
-82.00
-64.36
-32.55
11.01
59.83
106.86
146.90
177.89
201.17
215.93
221.70
219.78
212.65
202.92
193.47
188.40
188.60
193.48
200.60
206.80
209.75
209.41
205.91
202.77
203.31
207.10
209.41
202.61
180.97
144.29
98.72
54.37
21.32
5.45
7.12
23.12
48.91
80.26
112.94
141.70
160.52
164.22
150.30
120.18
79.30
35.18
-5.22
-37.59
-61.24
-78.70
-94.66
-114.91
-144.59
-185.67
-235.08
-284.42
-321.97
-336.53
-321.20
-275.77
-206.88
-125.96
-45.95
21.74
69.24
93.23
94.83
78.69
51.20
18.40
-15.74
-49.96
-84.94
-121.83
-160.42
-198.46
-232.06
-257.21
-271.07
-272.77
-262.95
-243.08
-215.13
-180.88
-141.49
-97.17
-47.87
5.53
59.75
108.62
143.98
157.78
145.63
109.93
60.79
12.86
-20.11
-30.14
-17.15
12.41
48.53
81.70
105.50
117.31
116.76
104.01
79.48
44.85
7.66
-21.35
-33.74
-28.79
-11.84
10.04
30.65
45.37
51.46
48.38
36.90
20.56
4.24
-6.71
-8.74
-1.74
10.83
23.78
32.61
34.83
29.89
19.10
5.07
-9.75
-23.90
-36.58
-46.71
-52.56
-52.74
-47.18
-37.81
-27.84
-20.76
-18.98
-23.08
-31.81
-42.97
-54.42
-64.38
-71.19
-72.74
-66.62
-50.87
-25.20
8.32
45.48
81.18
111.15
133.20
147.49
155.82
160.55
163.00
162.89
158.99
150.28
137.39
122.43
108.25
97.41
91.88
91.82
95.49
99.87
101.34
97.07
84.64
62.70
31.63
-4.73
-41.03
-72.09
-94.38
-106.70
-108.83
-101.91
-87.77
-68.41
-44.41
-17.14
10.44
34.50
51.62
61.24
64.13
61.36
44.78
11.53
-33.68
-81.52
-121.77
-155.58
-183.69
-205.14
-216.17
-213.19
-193.43
-158.20
-113.01
-65.34
-21.83
15.12
45.49
69.76
87.29
97.59
100.11
95.35
85.71
74.95
67.55
65.53
67.37
68.75
65.45
54.76
36.51
13.35
-10.02
-27.72
-35.17
-30.46
-14.82
8.65
35.68
61.94
83.95
99.41
107.74
109.63
106.72
101.13
95.09
90.04
86.20
82.57
77.72
70.52
60.65
48.64
35.62
22.93
11.83
3.35
-1.67
-2.39
1.86
11.27
24.92
40.35
53.56
59.86
55.36
38.86
12.87
-16.70
-42.46
-58.06
-60.36
-50.06
-30.94
-8.15
13.53
30.67
41.23
44.05
38.32
23.36
-0.81
-32.82
-69.51
-106.35
-138.57
-162.65
-177.20
-183.13
-182.81
-178.82
-172.97
-165.68
-156.24
-143.39
-126.27
-105.03
-81.21
-57.63
-37.75
-24.57
-19.40
-21.20
-26.80
-32.24
-34.45
-32.56
-27.99
-23.26
-20.51
-20.16
-20.86
-20.50
-17.56
-12.13
-5.81
-0.68
2.12
3.22
4.67
8.80
16.69
27.53
38.76
47.34
51.14
49.89
45.26
40.24
37.80
39.97
47.26
58.56
71.64
83.54
91.21
91.95
84.37
69.34
50.70
34.79
28.63
37.33
61.56
96.83
134.70
165.73
182.73
182.86
167.87
142.60
112.90
83.85
59.05
40.56
29.25
24.87
26.11
30.80
36.36
40.57
42.06
40.64
37.02
32.29
27.39
22.68
18.00
12.72
6.04
-2.82
-14.35
-28.58
-44.80
-61.58
-76.95
-88.93
-96.17
-98.25
-95.82
-90.28
-83.56
-77.75
-74.86
-76.57
-83.82
-96.46
-113.05
-130.92
-146.67
-156.98
-159.54
-153.83
-141.50
-126.04
-111.95
-103.34
-102.66
-109.79
-122.09
-135.28
-145.03
-148.44
-144.87
-135.78
-123.74
-111.17
-99.39
-88.40
-77.39
-65.63
-53.25
-41.47
-32.21
-27.26
-27.41
-31.87
-38.42
-43.91
-45.25
-40.20
-27.64
-7.69
18.44
48.52
79.35
107.01
127.61
138.30
138.40
129.86
116.83
104.30
96.27
94.52
98.21
104.72
110.91
114.44
114.33
110.88
105.04
97.80
89.89
81.71
73.69
66.37
60.35
56.02
53.27
51.43
49.52
46.62
42.22
36.40
29.68
22.85
16.63
11.50
7.60
4.65
2.11
-0.79
-4.54
-9.22
-14.35
-19.06
-22.47
-23.89
-23.16
-20.63
-17.14
-13.71
-11.27
-10.26
-10.62
-11.79
-12.77
-12.64
-11.03
-8.35
-5.68
-4.26
-4.96
-7.88
-12.20
-16.09
-17.41
-14.85
-8.57
-0.05
8.55
15.37
19.42
20.87
21.69
24.41
30.56
39.60
49.27
56.86
60.41
59.39
54.78
49.83
48.42
52.90
62.96
76.31
89.84
99.96
102.50
93.22
71.21
40.16
7.16
-19.36
-31.97
-26.43
-3.52
30.92
58.55
62.80
39.04
-2.91
-47.61
-84.79
-112.16
-132.34
-148.76
-161.95
-170.30
-168.98
-155.03
-129.87
-98.40
-65.79
-34.65
-3.81
27.26
61.80
103.87
152.75
202.15
243.21
269.48
279.54
276.55
265.40
237.85
191.15
128.49
59.00
-6.53
-59.78
-97.54
-121.70
-137.20
-148.14
-153.58
-150.19
-135.25
-110.34
-81.52
-57.89
-46.69
-49.25
-59.96
-69.31
-69.69
-58.79
-39.84
-18.77
-1.81
6.51
4.34
-8.56
-30.24
-57.84
-87.46
-114.88
-133.89
-140.38
-135.62
-124.79
-114.25
-107.50
-104.21
-100.97
-94.30
-80.03
-56.53
-25.27
10.69
46.58
77.95
102.50
121.09
136.89
153.40
172.24
187.25
194.10
189.71
173.44
148.20
119.41
92.28
69.21
48.95
28.99
9.84
-4.35
-7.98
3.48
30.17
65.88
99.24
117.99
114.78
91.00
54.96
16.27
-17.34
-42.06
-54.29
-51.11
-34.22
-10.21
10.53
26.18
35.91
38.55
34.06
22.87
6.19
-14.54
-37.79
-61.57
-83.43
-101.75
-114.75
-120.42
-117.40
-106.00
-88.73
-69.83
-54.23
-46.25
-49.67
-65.76
-92.49
-125.10
-157.24
-183.33
-199.94
-205.99
-201.90
-189.57
-171.44
-150.39
-129.91
-112.98
-102.20
-99.06
-103.07
-111.35
-119.88
-125.23
-125.79
-121.84
-113.07
-98.93
-78.86
-52.27
-18.47
22.12
66.70
109.85
145.29
170.43
186.11
195.61
203.21
213.16
228.33
248.95
272.68
283.38
269.85
233.92
188.34
144.98
108.88
80.04
56.77
37.48
21.82
12.07
9.97
14.13
19.93
21.71
15.56
1.37
-18.80
-40.14
-55.69
-60.77
-55.53
-44.84
-35.23
-31.60
-34.94
-43.67
-53.73
-60.25
-60.66
-55.50
-47.28
-38.54
-30.80
-24.96
-22.12
-23.71
-28.89
-34.87
-37.36
-32.26
-17.82
3.87
27.45
46.19
55.30
54.12
45.76
35.66
29.45
31.41
43.50
65.38
94.19
123.87
145.52
149.26
127.91
81.15
17.66
-46.82
-94.69
-113.93
-103.47
-73.63
-40.94
-20.26
-18.21
-31.09
-48.28
-57.98
-52.93
-33.30
-5.53
21.85
42.42
53.41
57.01
55.03
47.29
33.57
16.29
-0.63
-11.58
-10.85
4.86
35.04
75.22
119.23
161.59
198.74
228.82
251.15
265.30
270.77
267.60
256.83
241.00
223.37
206.56
191.27
176.49
159.90
138.93
111.40
75.52
30.47
-22.89
-81.30
-138.96
-188.38
-223.19
-241.31
-246.66
-248.06
-255.08
-273.42
-302.02
-333.87
-359.69
-372.55
-370.65
-357.01
-336.44
-312.38
-285.60
-255.14
-220.55
-183.36
-147.10
-115.87
-92.40
-76.60
-65.81
-56.36
-45.39
-31.97
-17.04
-2.48
10.19
20.15
28.06
35.21
42.17
47.82
49.74
45.43
33.76
15.88
-5.56
-25.85
-39.90
-44.56
-40.11
-30.01
-19.28
-12.67
-13.15
-22.78
-40.07
-60.99
-80.90
-96.46
-106.15
-109.99
-109.27
-106.13
-104.47
-105.28
-106.13
-102.83
-91.93
-71.99
-44.14
-11.88
31.80
81.38
123.30
146.03
147.83
135.09
117.58
105.15
104.99
119.48
142.67
167.97
188.85
199.91
198.28
184.73
163.09
138.27
114.04
90.52
66.53
43.54
23.69
8.81
-0.24
-4.10
-4.70
-4.44
-5.94
-9.12
-11.44
-9.74
-1.63
13.90
36.80
66.29
100.76
136.31
166.96
185.36
184.90
163.04
123.51
75.57
30.85
-1.00
-15.59
-13.46
2.18
27.92
61.19
99.18
136.72
166.09
178.59
167.48
131.32
75.69
11.72
-47.62
-92.28
-119.02
-130.20
-131.98
-132.18
-138.13
-154.49
-181.59
-214.62
-244.15
-259.53
-250.59
-211.93
-147.47
-70.77
0.08
49.75
71.17
66.40
41.92
6.91
-29.98
-63.00
-88.49
-102.47
-100.22
-78.49
-28.97
38.79
102.51
144.10
159.88
156.99
145.83
135.01
129.12
129.08
132.28
137.40
145.03
154.60
163.31
167.37
162.60
147.08
122.16
91.19
60.44
37.10
25.07
24.11
30.85
40.71
49.53
54.02
50.50
35.54
11.60
-20.22
-57.44
-95.10
-126.13
-143.53
-143.28
-127.06
-101.50
-75.25
-56.59
-49.93
-55.21
-69.30
-87.96
-107.24
-123.66
-133.44
-132.62
-119.25
-94.09
-61.37
-27.48
1.09
19.59
25.42
17.52
-4.28
-38.97
-82.37
-126.39
-160.47
-175.58
-168.62
-143.74
-110.35
-78.43
-53.85
-35.91
-19.17
1.89
28.16
54.40
72.05
73.46
55.42
20.55
-24.10
-70.43
-112.00
-146.25
-174.38
-198.41
-219.47
-236.91
-247.66
-247.09
-230.66
-195.21
-141.14
-73.11
1.42
73.08
131.95
170.32
183.75
168.40
131.70
91.11
57.84
37.35
34.60
51.09
84.63
129.40
177.27
215.80
231.32
219.75
189.77
153.79
119.86
91.14
67.96
49.74
36.45
28.02
23.73
22.52
22.65
21.99
19.62
15.55
10.39
5.17
0.87
-1.86
-2.71
-2.08
-0.99
-0.08
0.01
-1.16
-3.52
-6.51
-9.14
-10.33
-9.49
-6.45
-0.51
8.91
22.30
39.07
56.78
71.10
76.95
70.69
51.17
23.79
-3.72
-24.41
-34.85
-35.97
-31.60
-26.03
-21.92
-19.70
-18.17
-16.43
-14.45
-12.82
-12.14
-12.35
-12.85
-12.93
-12.13
-10.45
-8.52
-6.95
-6.05
-5.78
-5.81
-5.89
-5.98
-6.41
-7.81
-11.18
-17.40
-26.38
-36.73
-45.58
-49.56
-46.15
-35.15
-19.13
-2.64
9.73
15.33
14.47
10.02
5.74
4.50
7.14
12.54
18.64
23.68
27.03
29.13
30.99
33.40
36.58
40.02
42.83
44.25
43.91
41.90
38.61
34.43
29.52
23.93
17.43
10.08
2.26
-5.44
-12.19
-17.16
-19.74
-19.64
-17.02
-12.92
-8.25
-3.54
1.42
7.35
14.73
23.15
30.44
34.07
31.70
23.42
11.55
-0.51
-9.68
-14.16
-13.55
-8.09
1.35
11.24
18.87
21.41
16.28
2.33
-19.52
-46.72
-75.45
-102.50
-128.18
-151.71
-170.61
-181.75
-182.33
-171.13
-149.35
-119.31
-79.09
-35.35
5.41
38.56
60.57
69.89
67.58
57.50
46.90
43.13
47.40
60.29
81.94
110.42
142.45
174.14
191.97
186.63
173.91
159.54
140.42
118.82
97.85
80.12
66.74
57.21
51.47
48.93
45.43
39.53
33.12
28.52
27.46
30.03
34.24
37.60
37.20
28.43
10.42
-13.22
-37.10
-55.86
-65.85
-66.38
-59.15
-48.49
-41.68
-44.70
-60.11
-87.00
-120.78
-154.11
-179.12
-189.58
-183.35
-163.83
-137.50
-111.35
-90.75
-77.99
-72.24
-71.05
-71.75
-72.55
-72.87
-72.49
-71.32
-69.77
-68.76
-69.32
-71.79
-75.08
-76.94
-74.99
-68.22
-57.72
-46.24
-36.74
-30.64
-27.14
-23.99
-18.96
-11.24
-1.82
7.11
13.43
15.82
14.24
9.52
2.72
-5.06
-12.74
-18.91
-21.46
-17.99
-7.11
10.10
29.44
44.63
50.17
44.18
29.79
13.99
4.40
5.45
16.31
31.46
43.64
47.64
42.33
30.76
18.20
9.32
6.17
7.85
11.56
14.59
15.95
16.74
19.48
26.52
38.57
54.22
70.73
85.24
96.03
102.65
105.25
103.94
98.34
87.92
72.91
54.91
36.79
22.00
13.39
12.19
17.64
27.14
37.11
44.29
46.85
44.70
39.15
31.72
23.13
12.84
-0.49
-17.83
-38.69
-60.89
-81.31
-97.12
-106.64
-109.52
-106.26
-97.58
-84.44
-68.24
-51.24
-36.19
-25.25
-18.99
-15.92
-13.45
-9.67
-4.61
-0.37
0.37
-3.69
-11.19
-18.72
-22.46
-19.85
-10.45
4.30
21.84
39.08
52.70
59.50
57.16
44.98
24.50
-0.62
-25.64
-46.34
-60.24
-67.11
-68.45
-66.48
-63.63
-61.78
-61.23
-60.18
-54.82
-40.90
-16.57
15.38
47.77
71.11
77.94
66.54
41.85
12.40
-14.58
-36.66
-56.05
-75.22
-94.84
-112.63
-124.62
-127.57
-121.23
-108.40
-92.70
-75.48
-52.33
-18.33
28.14
83.89
142.79
198.47
246.59
285.91
318.84
353.62
395.98
445.53
495.82
537.92
563.84
568.50
550.68
513.62
468.38
423.73
382.67
343.48
304.45
266.57
232.87
205.98
152.40
58.61
-63.66
-186.99
-290.55
-367.45
-418.74
-446.68
-458.16
-457.10
-441.22
-411.05
-371.67
-330.41
-293.00
-261.36
-233.89
-207.57
-179.19
-143.53
-99.76
-52.08
-7.21
29.80
57.52
77.07
90.01
97.60
102.33
104.32
101.15
89.16
65.92
31.47
-11.69
-59.28
-105.66
-144.17
-170.40
-183.60
-186.36
-182.64
-175.82
-167.73
-158.63
-147.79
-133.92
-116.00
-93.23
-64.95
-30.84
7.88
47.43
82.00
105.70
115.07
110.86
97.84
82.46
70.24
63.11
59.29
55.28
48.42
38.38
26.78
15.92
7.07
0.37
-5.83
-13.90
-25.05
-38.15
-50.29
-58.76
-62.25
-61.44
-57.10
-50.48
-42.82
-34.48
-24.95
-13.66
-1.16
11.42
23.09
35.28
49.54
66.04
83.57
99.97
112.98
120.56
122.42
110.79
86.03
57.29
35.10
23.43
19.56
21.01
24.01
27.60
32.30
40.38
52.90
66.21
76.87
82.40
81.64
73.55
57.85
34.92
7.41
-21.56
-49.41
-73.88
-93.25
-106.36
-113.59
-115.62
-113.42
-107.49
-99.54
-92.39
-88.23
-87.44
-88.51
-90.41
-92.59
-95.49
-99.45
-104.66
-110.22
-113.56
-111.64
-102.88
-89.62
-76.14
-66.37
-61.61
-61.33
-63.99
-68.17
-73.42
-73.21
-64.55
-48.70
-29.18
-7.69
14.27
34.08
48.24
54.22
52.18
43.95
33.21
24.39
21.94
27.72
41.54
61.61
85.09
108.48
127.32
138.39
135.43
121.14
101.11
80.55
62.54
47.97
36.47
26.95
18.97
12.86
10.01
10.46
13.02
15.90
17.48
16.86
13.59
8.27
2.69
0.11
3.05
11.81
23.74
33.46
35.02
23.40
-2.44
-38.82
-78.19
-111.96
-133.25
-138.29
-126.65
-100.84
-65.67
-27.26
8.55
34.99
49.02
51.74
47.73
43.15
42.85
47.72
55.07
59.07
54.24
38.20
12.77
-16.41
-42.02
-57.31
-60.53
-54.55
-44.61
-35.50
-29.65
-27.50
-28.53
-31.98
-36.54
-40.23
-39.84
-32.05
-15.56
7.71
32.76
52.85
63.60
64.19
56.83
45.21
32.86
21.97
13.48
7.82
5.63
8.08
15.96
28.51
42.61
53.43
55.50
45.25
23.14
-6.06
-34.84
-56.24
-67.18
-70.28
-69.39
-67.10
-62.82
-53.65
-37.38
-15.30
7.42
24.25
31.09
29.06
23.42
19.98
22.82
31.16
40.31
45.32
44.21
39.10
34.80
35.27
41.69
50.77
57.29
55.86
43.63
21.62
-5.64
-31.76
-51.32
-60.83
-60.78
-54.33
-45.82
-38.68
-34.57
-34.68
-38.60
-45.97
-55.35
-63.30
-63.88
-51.72
-24.54
14.44
56.30
89.52
104.31
96.95
68.69
31.26
-2.22
-23.49
-31.45
-30.33
-25.41
-20.01
-14.57
-8.36
-1.20
4.44
4.79
-2.06
-14.61
-26.85
-30.64
-19.89
6.27
43.16
82.25
115.49
138.58
150.32
152.96
149.26
140.21
124.94
103.12
76.54
49.45
26.83
9.91
0.38
-1.73
0.82
3.26
1.39
-7.05
-22.36
-44.17
-74.90
-114.48
-158.90
-200.89
-231.90
-243.95
-232.40
-198.56
-135.40
-56.72
12.34
54.23
69.44
69.70
66.54
64.98
63.51
55.92
35.74
3.01
-35.83
-71.70
-97.05
-107.58
-103.30
-88.48
-63.67
-37.48
-18.20
-10.20
-13.37
-24.08
-36.41
-44.12
-42.47
-29.40
-7.87
18.27
45.39
69.46
85.59
89.03
76.84
49.46
10.92
-33.58
-77.50
-114.92
-142.27
-158.31
-162.84
-155.48
-135.85
-104.91
-67.07
-28.80
3.42
25.94
40.34
52.66
70.12
97.31
133.88
175.15
215.63
252.02
284.41
315.13
345.66
373.87
393.77
397.65
379.25
336.89
274.58
200.83
126.86
63.20
16.48
-12.39
-27.97
-37.92
-49.89
-68.87
-96.67
-131.05
-167.44
-201.35
-230.03
-253.41
-273.23
-292.28
-312.79
-335.84
-357.86
-371.05
-366.75
-340.01
-293.26
-236.14
-182.65
-145.39
-131.66
-137.84
-151.66
-159.13
-151.55
-129.09
-98.22
-67.29
-32.21
5.60
42.25
75.90
107.33
139.65
171.39
199.93
222.15
236.07
238.14
226.69
203.37
173.27
144.05
123.44
116.60
122.96
136.29
145.79
143.50
127.82
102.40
72.83
43.57
17.01
-6.38
-26.07
-42.11
-52.63
-54.81
-47.94
-35.30
-23.14
-18.05
-24.26
-41.59
-67.34
-96.41
-119.63
-129.36
-125.24
-114.77
-106.56
-107.14
-110.12
-106.62
-89.85
-57.50
-10.71
42.56
92.36
127.95
141.16
132.85
111.09
85.97
64.08
46.74
31.88
17.68
4.37
-6.34
-12.01
-12.22
-8.36
-2.70
2.64
6.15
7.85
9.63
13.06
19.64
29.21
40.55
52.43
64.28
75.99
87.74
99.66
110.35
117.59
118.66
111.33
95.01
70.92
41.48
7.37
-25.56
-51.15
-65.60
-68.61
-63.03
-52.66
-40.78
-29.56
-19.86
-11.40
-4.17
1.34
4.79
5.81
4.93
2.96
0.35
-2.42
-5.13
-8.10
-12.27
-17.91
-25.22
-33.19
-40.42
-45.65
-48.35
-48.64
-47.10
-45.26
-39.96
-32.12
-22.94
-13.33
-3.92
4.49
9.47
11.03
8.71
3.00
-6.36
-19.31
-35.97
-56.57
-81.68
-112.12
-142.72
-168.44
-183.50
-184.35
-169.02
-137.45
-91.80
-37.34
17.45
62.89
89.90
94.21
76.25
41.82
-1.41
-41.22
-65.31
-67.76
-50.02
-21.84
12.48
49.24
85.04
118.13
146.24
169.59
190.35
210.19
226.92
234.79
225.76
195.13
145.63
87.56
34.50
-2.67
-19.59
-18.95
-7.23
8.39
23.84
39.04
56.02
75.43
93.91
104.71
100.55
77.85
38.33
-10.97
-60.90
-104.23
-138.48
-165.69
-189.75
-212.84
-233.36
-246.92
-248.59
-235.72
-209.68
-175.64
-140.76
-112.02
-93.97
-87.68
-90.94
-99.15
-106.66
-107.94
-98.67
-76.63
-42.73
-1.34
40.16
73.29
91.27
91.71
77.56
56.02
35.45
22.07
17.89
20.95
27.15
32.84
36.28
37.68
37.97
37.57
35.96
32.21
25.92
17.88
9.94
4.22
1.98
2.87
5.06
6.05
3.90
-1.85
-9.92
-17.95
-23.59
-25.73
-25.15
-24.33
-26.17
-32.72
-44.16
-58.55
-72.36
-81.59
-83.37
-76.98
-64.26
-48.75
-34.52
-24.68
-20.45
-20.86
-23.08
-23.59
-19.39
-8.95
8.04
30.76
57.70
86.95
116.41
144.43
169.13
187.91
196.94
193.55
176.97
149.45
116.16
84.37
62.25
54.97
62.13
76.68
90.59
97.57
95.87
87.89
78.93
76.12
83.91
101.82
123.29
142.70
155.92
160.99
156.45
141.59
119.43
94.84
73.12
56.65
49.69
55.15
74.16
103.87
124.51
121.90
96.66
79.02
76.22
86.37
97.67
103.36
98.86
82.93
59.67
34.58
11.07
-13.21
-40.65
-72.80
-108.09
-140.54
-160.60
-160.41
-139.99
-111.60
-85.32
-68.12
-65.70
-78.32
-106.45
-148.20
-197.75
-246.68
-285.56
-307.18
-306.88
-285.22
-248.39
-207.78
-175.17
-157.93
-157.25
-168.82
-185.29
-198.05
-200.03
-187.18
-159.82
-121.02
-74.87
-25.59
23.60
71.35
118.26
164.49
207.97
239.74
247.33
225.49
182.13
136.14
94.86
58.18
22.23
-14.83
-50.84
-79.27
-91.98
-84.75
-61.22
-32.02
-10.66
-7.76
-25.97
-55.63
-79.88
-83.42
-63.34
-34.34
-6.47
14.99
29.21
38.86
46.01
51.87
57.00
61.89
68.18
78.96
95.77
116.93
137.37
150.25
150.00
134.96
108.01
75.32
44.34
20.25
5.57
0.78
4.69
14.74
27.03
36.82
39.97
34.99
22.89
7.03
-8.22
-19.37
-24.98
-25.82
-23.77
-20.47
-16.41
-11.76
-6.87
-2.52
0.28
0.90
-0.60
-3.42
-6.52
-9.12
-11.16
-13.17
-15.67
-18.85
-22.36
-25.77
-28.73
-31.38
-34.10
-37.26
-40.93
-44.72
-48.07
-50.56
-52.17
-53.17
-53.94
-54.59
-54.79
-53.94
-51.44
-47.18
-41.57
-35.60
-30.44
-27.04
-25.76
-26.22
-27.50
-28.58
-28.89
-28.77
-29.41
-32.38
-38.72
-48.27
-59.51
-70.12
-78.09
-82.77
-85.28
-88.02
-93.55
-103.31
-117.15
-133.66
-150.80
-166.63
-179.84
-189.62
-195.52
-197.34
-195.43
-190.94
-185.43
-179.89
-173.73
-164.32
-147.74
-120.84
-83.99
-42.48
-5.93
15.39
15.74
-2.75
-30.36
-53.43
-60.04
-44.69
-9.38
37.96
87.76
133.95
175.38
214.16
252.99
292.86
332.97
372.67
411.67
449.53
486.53
521.27
548.56
560.36
549.21
512.42
454.72
385.57
314.58
251.03
199.96
160.55
128.11
97.27
65.19
32.84
1.77
-28.21
-55.34
-78.07
-97.45
-116.84
-140.22
-179.10
-232.00
-275.75
-299.45
-298.42
-269.07
-213.44
-139.22
-57.43
21.75
89.74
138.53
160.81
155.18
125.68
79.51
25.72
-36.71
-96.62
-140.17
-161.75
-164.46
-151.33
-122.13
-76.11
-15.41
54.59
124.08
181.11
214.69
218.64
194.23
149.26
93.52
34.97
-21.85
-74.14
-121.00
-162.32
-197.43
-225.71
-245.30
-254.51
-253.17
-242.94
-226.60
-208.57
-193.84
-175.27
-151.21
-122.19
-88.29
-50.04
-10.93
22.73
44.58
52.29
49.40
41.83
36.25
36.55
41.78
48.09
52.23
53.20
51.83
49.97
47.04
41.57
31.69
15.85
-5.38
-29.03
-49.24
-62.59
-68.69
-69.39
-66.57
-57.72
-40.10
-12.79
21.42
55.66
80.79
87.84
74.10
46.57
17.91
-0.85
-5.56
0.21
8.55
12.33
9.51
3.59
0.79
5.86
19.29
37.55
54.80
65.70
66.75
57.14
39.01
16.61
-5.57
-22.45
-31.68
-34.00
-32.03
-28.34
-23.87
-17.80
-9.11
1.71
11.84
17.51
16.27
8.61
-2.02
-11.10
-15.22
-14.01
-9.88
-7.15
-9.41
-17.59
-29.70
-41.86
-50.24
-52.13
-46.57
-33.38
-15.40
3.21
17.38
22.38
16.35
1.84
-14.52
-24.36
-21.41
-5.27
18.20
39.21
48.41
41.13
19.10
-10.86
-40.54
-64.01
-79.74
-89.96
-98.66
-108.70
-119.53
-127.48
-127.64
-116.84
-95.75
-68.95
-42.55
-21.05
-5.00
8.44
22.68
40.58
62.57
86.24
107.55
123.03
131.20
132.83
129.98
124.63
118.06
110.65
102.47
93.97
86.39
81.58
81.19
85.96
95.45
108.06
120.95
130.34
132.01
122.23
98.98
62.96
17.99
-29.66
-72.82
-105.32
-123.88
-128.79
-123.35
-112.44
-101.27
-94.36
-94.81
-103.64
-119.31
-138.28
-155.97
-168.17
-172.10
-167.17
-154.77
-137.43
-117.76
-97.24
-76.75
-57.19
-39.44
-23.87
-9.86
3.97
19.12
36.37
56.45
78.17
98.01
111.65
116.20
111.14
98.06
79.90
59.77
42.75
31.13
22.30
10.38
-9.94
-41.06
-81.97
-128.68
-174.92
-208.72
-220.17
-206.31
-171.26
-122.78
-69.64
-19.81
21.99
55.98
92.92
143.08
208.65
283.28
357.82
424.54
479.04
520.54
513.36
442.87
329.72
211.62
111.89
34.72
-23.96
-68.58
-101.84
-125.33
-134.76
-128.81
-112.83
-96.09
-85.47
-83.00
-87.14
-94.67
-102.32
-103.39
-94.48
-78.41
-61.80
-49.59
-42.66
-38.89
-35.25
-30.38
-22.30
-11.99
-3.49
-1.00
-5.55
-15.15
-27.05
-39.58
-51.85
-61.07
-63.58
-56.50
-39.43
-15.39
9.22
26.56
30.77
21.27
3.74
-13.28
-22.50
-20.69
-8.97
8.75
28.80
47.22
61.14
69.27
71.81
70.31
67.07
64.12
62.34
61.07
58.31
52.28
42.52
29.80
15.85
2.17
-11.09
-25.09
-41.14
-59.57
-78.58
-95.50
-109.29
-120.16
-128.89
-136.05
-140.84
-141.29
-135.91
-124.69
-110.22
-98.14
-92.08
-91.10
-91.11
-87.30
-77.25
-62.70
-47.51
-36.37
-35.87
-49.37
-75.81
-111.59
-150.72
-185.07
-205.58
-203.03
-172.06
-117.74
-50.03
20.59
84.83
137.38
177.60
198.03
194.49
188.64
190.55
197.06
207.57
220.80
233.84
243.07
244.92
238.54
226.00
206.53
181.17
153.24
125.70
100.17
77.87
59.06
38.20
14.67
-10.85
-35.29
-56.30
-75.49
-96.31
-119.37
-143.00
-164.05
-174.48
-170.42
-150.38
-115.80
-67.54
-16.94
22.15
42.70
47.35
43.92
37.47
30.79
25.00
20.51
17.60
18.11
23.85
34.15
45.26
49.56
40.51
15.65
-21.54
-63.25
-99.46
-121.56
-126.87
-119.77
-110.18
-106.69
-112.64
-124.63
-134.76
-133.97
-116.79
-84.23
-39.54
4.19
35.82
51.18
53.45
49.34
45.44
45.40
49.59
56.29
62.70
68.12
73.16
78.07
82.07
83.47
80.35
71.62
55.12
32.94
9.34
-11.62
-27.35
-36.65
-39.36
-35.19
-22.82
-1.50
27.59
60.97
93.33
117.31
126.34
117.45
90.48
54.83
21.25
-3.47
-17.51
-23.54
-26.89
-30.24
-34.12
-37.78
-40.22
-42.49
-47.49
-56.96
-70.54
-85.93
-99.43
-107.69
-108.93
-103.22
-88.46
-69.50
-51.58
-37.88
-29.02
-23.43
-19.10
-14.65
-9.80
-6.44
-7.65
-15.35
-29.30
-47.77
-67.73
-86.11
-100.50
-109.59
-114.69
-119.23
-126.93
-140.74
-161.85
-188.37
-215.56
-237.29
-242.86
-226.16
-186.45
-128.20
-60.32
5.90
59.62
93.14
103.84
94.74
72.53
45.81
22.40
6.84
-0.69
-3.53
-6.57
-13.82
-26.85
-45.41
-67.00
-87.92
-104.19
-112.21
-109.57
-95.97
-73.43
-45.47
-16.29
11.40
37.29
63.39
92.51
125.79
160.46
189.51
204.41
199.12
174.71
139.66
107.06
89.41
94.04
121.09
164.86
216.81
267.93
310.71
337.70
342.53
322.75
282.29
231.26
182.33
145.48
123.51
113.58
107.17
95.78
76.54
53.74
35.69
29.70
38.72
60.49
92.64
130.01
166.75
199.01
225.26
244.65
255.65
256.85
247.84
234.14
219.13
202.36
181.02
152.16
114.39
69.47
23.29
-39.61
-111.39
-173.93
-216.48
-241.95
-257.71
-267.31
-269.89
-262.13
-246.52
-224.34
-201.33
-185.01
-180.24
-187.19
-203.04
-226.54
-254.99
-286.17
-314.56
-336.81
-351.34
-356.49
-350.18
-331.27
-301.02
-262.62
-220.56
-176.41
-131.26
-85.70
-39.62
6.92
52.48
93.79
127.36
150.72
164.92
172.54
176.65
179.68
182.58
184.82
184.81
181.23
173.72
163.68
152.79
141.87
130.34
116.60
99.05
77.23
52.46
27.02
2.81
-19.77
-41.77
-64.11
-85.85
-103.21
-110.75
-103.98
-82.14
-49.39
-13.38
17.91
39.49
51.17
57.09
63.48
76.11
98.19
129.60
167.84
209.22
250.15
287.63
319.28
342.93
356.65
359.16
350.34
331.70
306.13
277.24
248.34
221.62
197.81
176.40
156.13
135.54
113.46
89.24
62.67
33.96
3.49
-28.30
-60.92
-93.88
-126.63
-158.56
-189.07
-217.71
-244.23
-268.51
-290.36
-309.09
-323.34
-331.16
-330.56
-320.38
-301.06
-274.79
-245.17
-216.05
-190.56
-170.28
-155.27
-144.52
-136.55
-129.94
-123.39
-115.80
-106.28
-94.45
-80.73
-66.48
-53.72
-44.43
-39.91
-40.17
-44.01
-49.43
-54.39
-57.41
-57.86
-55.89
-52.04
-46.92
-41.16
-35.61
-31.30
-29.29
-30.24
-34.02
-39.63
-45.35
-49.36
-50.36
-48.14
-43.45
-37.40
-30.94
-24.54
-18.40
-12.54
-6.86
-1.16
4.54
10.10
15.50
20.71
25.67
29.87
33.05
35.46
37.91
40.36
42.19
42.67
41.31
38.10
32.67
25.35
17.42
11.04
6.53
3.15
0.10
-2.91
-5.62
-8.85
-12.70
-16.15
-16.73
-15.03
-13.27
-13.61
-16.97
-23.08
-33.07
-47.20
-64.14
-79.70
-92.43
-101.90
-107.20
-106.57
-87.41
-46.84
6.51
54.60
99.52
145.66
193.68
238.67
273.28
290.75
285.52
257.80
208.43
150.46
98.82
62.98
42.37
28.27
12.93
-8.10
-35.21
-65.93
-92.68
-112.49
-125.52
-133.41
-137.63
-138.79
-137.76
-134.66
-127.83
-113.96
-93.33
-69.00
-44.88
-23.50
-4.84
13.02
29.14
41.62
49.80
52.56
49.17
39.89
26.51
12.45
0.62
-7.50
-11.65
-12.45
-12.05
-12.16
-13.53
-15.76
-16.33
-13.30
-6.08
4.71
17.02
27.80
35.43
39.28
39.47
37.87
37.31
41.03
51.92
70.45
93.42
116.08
131.87
129.31
103.23
57.29
3.80
-39.83
-58.51
-44.51
2.93
76.01
160.75
242.95
311.64
360.06
386.93
392.61
365.20
304.78
224.44
142.73
74.20
25.23
-5.23
-18.24
-18.74
-12.75
-4.94
1.56
3.02
-4.04
-19.77
-42.85
-65.38
-84.05
-98.97
-112.39
-124.35
-139.28
-163.66
-199.16
-244.07
-286.55
-319.66
-340.46
-349.24
-349.49
-347.58
-351.93
-347.31
-356.65
-369.11
-377.65
-375.68
-356.42
-314.74
-233.50
-118.50
3.22
95.54
142.53
144.96
117.77
80.58
49.98
34.84
32.53
40.66
56.96
83.40
116.20
149.28
176.69
194.89
203.63
203.93
197.04
187.97
184.39
188.81
200.47
216.84
234.92
251.61
252.06
229.16
185.63
132.96
82.03
39.64
8.09
-13.40
-27.56
-38.45
-47.37
-53.85
-56.57
-55.03
-49.43
-40.91
-30.72
-21.18
-15.20
-14.20
-18.68
-28.86
-44.49
-64.54
-87.56
-111.55
-134.40
-153.56
-165.32
-166.69
-157.55
-141.81
-124.82
-114.79
-117.58
-132.91
-153.38
-167.37
-165.46
-145.74
-114.77
-83.80
-62.60
-54.21
-54.50
-55.60
-51.00
-38.80
-21.72
-4.46
9.88
20.95
30.66
40.48
49.14
52.39
45.37
25.97
-2.84
-33.23
-55.54
-62.22
-50.92
-24.97
8.91
44.27
77.61
108.75
139.20
169.79
199.41
225.38
244.95
256.60
260.73
259.01
253.45
245.56
235.87
224.30
210.58
194.64
176.60
156.78
135.29
112.22
87.80
62.83
39.01
18.88
5.18
0.10
4.45
17.14
35.05
53.39
66.64
69.95
60.57
38.91
8.50
-24.91
-55.24
-77.98
-91.32
-96.14
-94.82
-89.98
-83.49
-76.52
-69.93
-64.79
-62.26
-63.00
-66.58
-71.24
-74.51
-74.02
-68.57
-58.60
-45.97
-33.23
-22.63
-15.32
-11.22
-9.36
-8.54
-8.01
-7.74
-8.16
-9.61
-11.81
-13.77
-14.23
-12.41
-8.47
-3.52
0.97
3.92
5.13
5.27
5.39
6.25
7.92
9.79
11.04
11.03
9.57
6.99
3.98
1.35
-0.34
-0.93
-0.73
-0.23
-0.22
-1.58
-4.99
-10.55
-17.59
-24.93
-31.11
-34.77
-34.65
-30.43
-23.03
-14.30
-6.25
-0.38
2.53
2.47
-0.04
-3.66
-7.46
-11.14
-14.82
-18.22
-20.27
-19.69
-15.46
-7.24
5.44
22.29
42.03
62.54
81.33
95.73
102.72
100.00
82.68
51.59
14.55
-17.54
-37.71
-45.55
-44.84
-40.60
-35.91
-31.76
-27.00
-20.91
-14.22
-8.73
-5.89
-5.94
-8.80
-13.23
-18.56
-23.22
-26.81
-30.16
-34.73
-41.34
-49.77
-59.85
-70.31
-79.75
-86.78
-91.00
-92.91
-93.60
-93.87
-88.07
-76.39
-60.58
-42.98
-25.69
-10.70
0.55
7.55
11.23
13.63
16.10
20.13
26.39
34.69
43.90
52.94
60.31
64.36
63.62
56.69
44.26
28.95
14.55
4.41
0.09
0.69
3.50
5.36
3.73
-1.84
-10.33
-19.34
-26.95
-32.29
-35.56
-37.37
-38.07
-37.74
-36.08
-32.86
-28.26
-22.87
-17.22
-11.38
-4.80
3.17
12.65
22.83
32.20
39.29
43.37
45.01
45.80
47.51
51.17
56.33
60.96
62.37
58.46
48.52
33.65
16.42
0.36
-11.10
-15.41
-12.10
-2.52
10.72
24.68
36.96
46.47
53.49
58.64
62.31
63.25
59.64
50.43
36.48
20.47
6.19
-3.03
-6.53
-5.89
-5.19
-8.37
-16.98
-29.32
-41.63
-49.81
-51.28
-46.75
-33.66
-13.33
8.16
22.95
26.01
16.09
-4.80
-32.16
-62.88
-92.76
-118.41
-138.21
-152.84
-164.68
-177.14
-193.01
-206.44
-213.02
-207.34
-185.14
-145.98
-94.53
-38.79
11.93
50.92
74.83
83.06
73.81
49.25
16.75
-14.66
-36.50
-42.86
-29.84
0.88
44.39
92.57
136.42
168.29
184.71
189.56
182.38
168.68
154.42
143.67
138.01
137.20
139.45
133.54
115.33
88.07
59.99
36.65
19.41
7.15
-1.57
-8.17
-13.70
-17.46
-19.04
-17.85
-14.09
-7.76
1.61
14.96
31.38
48.05
61.58
67.55
62.90
47.11
23.63
-0.41
-16.81
-19.67
-7.56
16.51
45.68
72.13
89.67
93.70
83.41
61.19
31.08
-2.90
-37.46
-70.51
-100.84
-127.89
-151.79
-173.00
-192.10
-208.89
-221.30
-225.12
-215.55
-189.66
-148.55
-97.97
-46.56
-3.05
26.48
40.30
40.71
32.30
20.00
7.79
-1.54
-6.00
-4.25
4.23
18.78
37.37
56.76
72.95
81.95
80.67
67.77
44.24
13.27
-20.34
-51.52
-76.16
-92.12
-99.21
-98.62
-92.03
-81.26
-68.44
-56.33
-48.15
-46.57
-52.24
-62.66
-72.09
-73.03
-58.70
-25.87
23.20
80.52
134.11
171.34
182.93
166.17
126.02
73.65
22.90
-14.18
-31.04
-28.22
-12.38
6.61
19.26
19.36
5.37
-19.89
-50.87
-81.20
-105.24
-118.98
-120.43
-109.67
-88.87
-62.06
-34.35
-10.61
6.03
15.29
19.91
24.51
33.63
49.84
72.69
98.65
122.43
138.69
143.81
136.96
120.17
97.56
73.95
53.40
38.19
28.63
23.55
21.28
20.62
21.30
23.89
29.04
36.67
45.56
53.56
58.50
59.11
55.63
49.57
42.82
36.61
30.91
24.64
16.53
6.09
-5.95
-17.96
-28.35
-36.44
-42.85
-49.20
-57.36
-68.56
-83.05
-99.94
-117.54
-133.70
-146.14
-152.88
-152.71
-145.74
-133.66
-119.32
-105.84
-95.47
-88.74
-84.37
-79.79
-72.31
-60.17
-43.19
-22.83
-1.61
17.80
33.47
44.86
52.70
58.44
63.40
68.17
72.47
75.57
76.89
76.19
73.50
68.66
61.16
50.47
36.59
20.65
4.80
-8.35
-16.62
-19.06
-16.08
-9.26
-0.69
7.63
14.25
18.53
20.57
20.98
20.58
20.01
19.62
19.36
18.96
18.09
16.50
14.05
10.76
6.78
2.37
-2.13
-6.33
-9.89
-12.54
-14.13
-14.64
-14.14
-12.88
-11.21
-9.53
-8.20
-7.37
-6.92
-6.53
-5.79
-4.36
-2.18
0.49
3.04
4.66
4.56
2.26
-2.18
-8.14
-14.58
-20.37
-24.66
-27.23
-28.55
-29.49
-31.03
-33.83
-38.02
-43.18
-48.64
-53.73
-58.07
-61.61
-64.52
-66.99
-69.17
-71.36
-73.97
-77.33
-81.25
-84.41
-84.28
-77.73
-62.02
-36.02
-0.87
40.39
83.76
125.35
161.91
190.64
208.85
214.02
204.66
181.45
148.14
111.07
77.38
52.80
39.95
37.77
42.44
49.40
54.77
56.39
54.18
49.97
46.78
47.66
54.39
66.26
79.83
89.80
91.03
80.57
58.95
29.88
-1.39
-30.02
-52.94
-69.04
-78.56
-82.13
-80.39
-74.12
-64.57
-53.64
-43.52
-36.03
-32.07
-31.45
-32.74
-34.09
-34.00
-31.67
-27.13
-21.07
-14.37
-7.64
-1.13
5.19
11.26
16.67
20.70
22.63
22.27
20.36
18.50
18.58
21.90
28.36
36.28
42.96
45.67
42.69
33.85
20.51
4.86
-10.76
-24.45
-34.93
-41.50
-44.01
-42.96
-39.56
-35.64
-33.29
-34.13
-38.68
-46.16
-54.79
-62.52
-67.89
-70.51
-71.05
-70.85
-71.52
-74.53
-81.00
-91.16
-103.92
-116.55
-125.13
-125.58
-115.19
-93.53
-62.33
-24.29
18.55
65.33
115.73
168.13
218.35
259.77
285.23
289.77
272.61
237.39
190.76
140.04
91.47
49.46
16.56
-6.01
-18.25
-21.42
-17.99
-11.24
-4.45
-0.07
0.67
-2.35
-8.44
-16.53
-25.52
-34.31
-42.05
-48.23
-52.83
-56.34
-59.49
-62.89
-66.71
-70.64
-74.09
-76.57
-77.99
-78.62
-78.86
-78.74
-77.68
-74.56
-68.11
-57.44
-42.52
-24.33
-4.66
14.38
31.06
44.28
53.72
59.68
62.80
63.88
63.53
62.21
60.11
57.37
53.86
49.23
43.08
35.31
26.45
17.72
10.71
7.05
8.12
14.07
23.47
33.83
42.64
48.22
50.06
48.67
45.10
41.26
38.23
35.86
33.16
29.39
24.69
19.83
15.98
14.06
15.67
20.94
28.14
34.48
37.88
38.09
36.39
35.36
37.73
47.03
64.33
87.37
111.34
131.24
143.58
146.63
140.92
116.66
71.63
13.50
-43.62
-89.10
-121.03
-143.90
-164.12
-185.36
-206.71
-221.66
-223.45
-208.61
-178.58
-138.62
-93.17
-52.54
-25.72
-15.33
-15.97
-19.84
-21.68
-20.65
-18.36
-16.33
-14.77
-11.08
-3.13
9.82
25.57
40.16
49.90
53.55
52.37
48.36
40.44
28.78
13.27
-6.04
-27.57
-47.65
-61.51
-65.36
-58.32
-42.13
-19.83
4.95
28.68
48.12
60.27
62.54
53.60
34.34
8.46
-18.02
-39.08
-50.80
-52.51
-46.65
-37.35
-28.57
-22.78
-20.57
-20.78
-21.82
-22.19
-20.90
-17.77
-13.56
-9.68
-7.52
-7.93
-10.45
-13.61
-15.45
-14.65
-11.20
-6.36
-2.18
-0.20
-1.12
-4.48
-9.51
-15.53
-21.85
-26.91
-27.94
-21.46
-5.74
17.10
40.58
55.95
56.46
40.66
13.48
-16.24
-40.37
-55.18
-62.23
-64.89
-65.55
-61.72
-47.68
-19.33
21.31
64.78
97.88
109.79
97.55
67.07
29.87
-2.57
-24.77
-36.94
-42.86
-45.86
-46.25
-41.39
-28.36
-6.65
20.67
48.31
71.30
86.73
93.92
93.15
84.56
67.91
43.90
15.50
-11.69
-31.32
-39.39
-36.44
-27.45
-19.15
-16.21
-18.93
-23.68
-25.68
-22.49
-15.78
-10.13
-10.03
-16.83
-27.88
-38.07
-42.69
-39.94
-31.82
-22.86
-17.94
-19.94
-28.72
-41.52
-54.30
-63.59
-67.32
-65.51
-60.02
-53.56
-48.60
-46.29
-46.30
-46.61
-46.81
-46.92
-47.24
-48.26
-50.68
-55.18
-61.93
-70.14
-77.61
-80.83
-75.36
-57.58
-26.78
13.27
54.32
85.97
99.56
91.72
65.71
30.03
-5.91
-35.75
-57.85
-73.81
-84.87
-89.06
-81.41
-56.99
-14.86
39.18
93.33
134.24
152.60
147.41
126.11
100.63
82.41
78.76
91.63
118.54
154.62
194.67
234.04
268.53
293.18
302.92
294.50
267.91
226.18
173.64
114.44
52.62
-7.23
-59.77
-98.97
-119.18
-117.69
-96.80
-65.09
-36.44
-23.68
-28.55
-42.56
-55.18
-60.24
-57.45
-50.42
-43.76
-40.72
-42.34
-48.26
-58.09
-71.03
-84.49
-94.43
-96.68
-89.38
-73.98
-54.31
-34.58
-18.01
-5.91
2.56
8.96
14.41
18.93
21.76
22.35
20.67
16.90
10.91
2.75
-7.65
-20.33
-35.17
-51.40
-66.96
-78.53
-82.65
-78.26
-65.69
-48.78
-33.06
-23.39
-21.64
-25.81
-31.31
-32.97
-28.71
-19.23
-7.52
3.18
11.00
15.90
18.93
21.27
23.44
25.18
26.26
26.48
25.99
25.29
24.90
25.02
25.59
26.24
26.42
25.85
24.33
21.84
18.52
14.58
10.13
5.51
1.04
-3.08
-6.70
-9.98
-13.37
-17.41
-22.49
-28.59
-35.18
-41.32
-46.22
-49.34
-50.70
-50.84
-50.41
-50.03
-50.17
-51.29
-53.64
-56.95
-59.80
-59.55
-53.23
-38.99
-17.56
7.47
30.51
46.13
50.92
45.13
32.34
17.72
5.81
-0.95
-2.47
-0.19
4.25
9.57
14.92
20.00
24.46
27.76
29.29
29.26
29.31
32.70
41.65
56.49
74.35
89.36
94.75
85.92
62.91
29.82
-3.50
-28.61
-41.58
-43.68
-39.71
-34.95
-32.59
-32.94
-34.61
-36.54
-38.86
-42.66
-48.42
-54.91
-59.01
-57.20
-47.13
-29.42
-7.81
11.76
23.96
26.43
20.38
9.62
-2.03
-12.30
-20.83
-28.39
-35.67
-42.36
-47.09
-48.58
-46.22
-41.13
-35.18
-30.02
-26.76
-26.06
-28.98
-35.39
-43.84
-50.90
-52.82
-45.62
-26.18
6.71
51.86
105.55
162.07
214.10
254.30
275.17
271.93
244.49
197.82
140.90
84.45
38.15
3.69
-15.21
-20.46
-18.53
-15.54
-13.66
-12.16
-10.53
-10.89
-17.96
-35.65
-65.10
-101.00
-134.26
-155.78
-159.60
-145.87
-120.64
-92.59
-68.15
-50.30
-37.29
-26.60
-17.37
-11.03
-10.17
-17.17
-30.82
-44.53
-49.30
-36.54
-4.38
40.58
85.82
117.74
126.84
111.29
78.01
33.14
-10.51
-42.55
-61.54
-72.08
-76.74
-72.35
-53.42
-17.23
30.76
78.14
109.49
114.40
93.03
55.33
16.93
-14.60
-35.85
-47.84
-52.85
-52.92
-48.23
-37.57
-20.42
1.00
21.55
34.16
35.22
26.60
13.31
0.75
-7.20
-9.20
-5.25
1.60
9.80
17.93
25.03
30.17
32.93
33.88
34.51
36.65
36.96
35.41
32.26
28.10
23.50
19.10
15.30
11.74
7.25
0.22
-8.26
-17.71
-26.68
-33.78
-38.54
-41.80
-45.32
-50.83
-59.19
-69.31
-79.56
-87.30
-90.71
-89.22
-83.58
-75.26
-65.76
-56.11
-46.40
-36.68
-26.95
-17.59
-9.16
-2.12
3.50
8.11
12.35
16.87
21.77
26.86
31.70
36.06
39.94
43.51
46.71
49.16
50.21
49.30
46.44
42.32
38.10
35.00
33.76
34.37
36.25
38.47
40.10
40.42
38.88
35.17
29.25
21.44
12.43
3.25
-5.00
-11.47
-15.79
-18.19
-19.36
-20.25
-21.62
-23.84
-26.72
-29.60
-31.71
-32.45
-31.73
-29.92
-27.68
-25.63
-24.13
-23.18
-22.50
-21.70
-20.45
-18.57
-16.00
-12.75
-8.90
-4.61
-0.16
4.05
7.60
10.20
11.82
12.67
13.10
13.50
14.13
15.08
16.32
17.67
18.92
19.80
20.07
19.55
18.19
16.20
13.92
11.69
9.68
7.93
6.28
4.57
2.58
0.25
-2.38
-5.17
-7.98
-10.61
-12.92
-14.72
-15.89
-16.45
-16.49
-16.06
-15.23
-14.23
-13.34
-12.77
-12.60
-12.80
-13.36
-14.21
-14.76
-14.47
-13.23
-11.45
-9.86
-9.23
-10.20
-13.22
-17.95
-22.47
-24.57
-22.88
-17.47
-9.53
-0.54
8.12
15.15
20.22
25.02
31.11
38.71
46.38
52.16
55.05
55.16
52.97
50.08
50.22
56.52
70.26
90.52
115.34
143.37
173.55
204.09
220.59
213.00
181.21
135.71
89.10
49.18
19.02
2.58
-3.46
-1.18
9.91
29.50
54.89
81.39
100.42
106.90
99.20
78.09
47.05
11.56
-23.72
-55.97
-84.03
-107.30
-124.39
-134.33
-137.83
-136.42
-131.59
-124.85
-117.45
-110.22
-103.38
-96.21
-88.09
-79.22
-69.84
-60.05
-50.17
-40.92
-33.44
-28.91
-27.84
-30.16
-35.42
-42.67
-50.77
-58.73
-65.84
-71.40
-74.58
-74.23
-69.36
-59.76
-46.19
-30.31
-14.15
0.67
13.38
23.99
32.89
40.20
45.37
47.34
45.19
38.94
29.93
20.71
14.18
12.35
15.35
20.95
25.11
23.42
12.86
-6.86
-33.05
-60.98
-85.62
-103.11
-111.83
-112.32
-106.45
-96.67
-85.64
-76.24
-71.16
-71.82
-76.84
-82.33
-83.50
-77.37
-64.87
-50.95
-42.28
-43.70
-55.68
-73.65
-91.60
-105.47
-114.67
-120.57
-123.72
-122.21
-112.05
-89.44
-52.12
-2.22
54.13
109.28
157.38
196.24
226.64
250.35
268.26
281.28
288.85
289.72
283.29
270.71
254.55
236.99
218.46
188.28
141.83
83.70
25.81
-20.88
-52.01
-69.48
-78.38
-83.73
-88.83
-93.15
-95.25
-94.41
-91.33
-87.04
-82.40
-77.85
-73.71
-70.53
-67.90
-65.89
-64.87
-64.49
-62.72
-56.34
-42.84
-22.24
2.43
27.08
47.48
60.58
64.85
60.40
48.64
32.30
15.05
1.07
-6.01
-5.23
0.97
7.69
10.27
6.60
-1.87
-11.31
-18.10
-20.54
-19.56
-17.36
-15.67
-14.57
-12.75
-8.62
-1.89
6.13
12.94
16.01
14.01
7.50
-0.98
-8.21
-11.73
-10.94
-7.19
-2.81
0.29
1.73
2.56
4.28
7.51
11.40
13.90
13.14
8.83
2.61
-2.58
-4.30
-1.85
3.33
8.58
11.45
11.14
9.04
7.71
9.56
15.34
23.54
31.02
34.70
33.12
27.42
20.68
16.18
15.65
18.58
22.91
26.58
28.75
29.79
30.84
32.64
34.94
36.70
36.81
34.87
31.19
28.01
26.77
27.92
30.56
32.74
32.36
28.21
20.70
11.90
4.77
1.53
2.80
7.19
12.10
14.85
13.84
8.90
0.96
-8.49
-18.20
-27.11
-34.39
-39.56
-42.65
-44.34
-45.90
-48.70
-53.59
-60.55
-68.59
-76.12
-81.58
-83.96
-83.06
-79.30
-73.59
-66.85
-59.82
-52.73
-45.38
-37.50
-29.10
-20.82
-13.64
-8.43
-5.26
-3.12
-0.38
4.31
10.99
18.06
22.97
23.53
19.20
11.54
3.53
-1.88
-3.07
-0.39
4.40
9.14
12.37
13.78
14.05
14.20
14.82
15.78
16.39
15.95
14.40
12.61
12.03
13.89
18.25
23.79
28.23
29.51
26.80
21.05
14.38
8.93
5.69
4.11
2.59
-0.41
-5.39
-11.57
-17.40
-21.49
-23.30
-23.22
-22.24
-21.27
-20.67
-20.16
-19.16
-17.22
-14.37
-11.12
-8.17
-6.04
-4.82
-4.27
-4.06
-3.93
-3.95
-4.32
-5.32
-7.10
-9.74
-13.33
-18.12
-24.36
-32.14
-41.09
-50.34
-58.78
-65.42
-69.79
-72.07
-73.00
-73.61
-74.89
-77.38
-80.85
-83.98
-84.46
-79.74
-68.08
-49.62
-26.73
-3.29
16.89
31.56
40.60
45.59
48.84
52.56
58.33
67.03
78.39
90.68
100.69
104.60
99.74
86.26
67.81
50.36
39.49
37.74
43.55
52.39
59.11
60.40
55.68
46.50
35.27
24.26
15.40
10.09
9.11
12.03
16.75
19.80
17.62
8.41
-6.82
-24.35
-39.37
-48.21
-50.01
-46.68
-41.70
-38.07
-36.88
-36.98
-35.81
-30.92
-21.26
-7.89
6.32
17.56
22.67
20.48
12.54
2.54
-4.84
-5.77
1.06
14.06
29.41
43.00
52.14
56.67
58.58
60.78
65.48
72.85
80.99
87.18
89.65
88.68
86.44
85.73
88.87
97.15
110.24
126.29
142.28
154.56
159.35
153.68
135.58
106.25
70.75
35.79
6.56
-15.36
-32.00
-47.32
-64.79
-87.19
-113.84
-140.38
-162.27
-178.25
-190.79
-204.09
-221.80
-245.33
-276.31
-313.04
-348.96
-375.77
-386.82
-377.87
-347.18
-296.07
-229.92
-161.88
-105.49
-68.14
-51.38
-53.24
-69.34
-93.52
-119.22
-116.78
-73.90
-6.64
60.01
113.02
151.03
176.54
192.08
199.89
202.32
198.79
189.80
181.86
182.77
196.77
222.99
256.32
289.29
314.46
324.39
308.71
268.89
213.24
151.73
92.59
41.28
0.32
-30.02
-52.77
-71.02
-84.90
-94.29
-100.22
-104.24
-107.08
-108.20
-106.40
-101.92
-95.94
-88.81
-81.32
-74.72
-70.46
-69.72
-73.21
-80.99
-92.56
-106.30
-119.03
-128.13
-133.00
-135.31
-137.62
-141.47
-145.44
-144.99
-134.14
-108.20
-67.08
-16.15
35.46
78.52
107.20
120.97
123.75
121.18
117.74
114.81
111.10
104.45
93.91
80.68
67.56
57.35
51.16
48.03
45.59
41.64
35.30
27.22
18.75
10.91
3.55
-4.48
-14.36
-26.26
-38.93
-50.19
-57.81
-60.49
-58.16
-51.89
-43.28
-33.89
-24.96
-17.18
-10.74
-5.39
-0.76
3.22
6.10
7.06
5.53
1.75
-3.06
-7.31
-9.84
-10.64
-10.77
-11.73
-14.60
-19.45
-25.62
-32.04
-37.83
-42.38
-45.32
-46.46
-45.80
-43.81
-41.32
-39.30
-38.38
-38.63
-39.50
-40.30
-40.41
-39.55
-37.61
-34.54
-30.23
-24.65
-18.03
-10.93
-4.07
2.01
7.25
12.11
17.32
23.53
30.95
39.18
47.33
54.25
58.99
61.14
61.01
59.56
58.01
57.44
58.29
60.26
62.41
63.52
62.61
59.26
54.03
48.31
44.16
43.59
47.70
56.00
65.92
73.57
74.64
66.17
47.99
23.63
-0.18
-15.18
-14.10
6.61
45.10
93.81
141.33
175.45
186.87
171.98
133.78
80.72
23.93
-25.94
-61.06
-77.50
-75.16
-57.05
-28.41
4.30
34.57
57.01
68.48
68.42
58.40
41.05
18.68
-6.85
-33.91
-60.29
-82.88
-98.18
-103.71
-99.16
-86.74
-70.53
-54.90
-42.98
-36.51
-36.37
-42.79
-55.24
-71.92
-89.26
-102.31
-105.74
-95.13
-68.83
-28.43
22.06
77.88
134.72
188.87
236.64
273.84
296.45
300.51
283.01
243.33
184.37
112.49
36.26
-35.19
-94.01
-133.56
-152.38
-155.12
-150.12
-145.30
-145.55
-152.00
-162.89
-174.82
-180.37
-174.88
-158.77
-135.47
-107.69
-76.87
-44.51
-13.23
13.49
38.84
64.56
88.24
106.24
118.41
127.97
138.61
152.39
169.59
197.82
240.93
294.87
351.40
404.75
452.80
494.85
530.32
505.70
401.78
249.71
101.23
-14.33
-93.89
-145.51
-178.46
-200.09
-215.72
-221.13
-215.20
-204.02
-196.48
-196.67
-202.90
-211.15
-218.83
-224.89
-223.19
-211.12
-192.24
-172.95
-157.20
-145.73
-138.03
-133.70
-132.28
-128.92
-120.12
-106.17
-89.79
-73.09
-56.86
-41.77
-28.97
-19.56
-12.21
-5.85
-0.81
1.81
1.54
-1.16
-5.21
-9.22
-11.58
-10.08
-3.44
8.08
22.89
38.90
53.91
65.91
73.21
74.79
70.53
61.36
49.09
35.92
23.97
14.75
8.87
5.92
4.60
3.11
-0.18
-6.15
-14.45
-23.68
-31.82
-37.15
-38.90
-37.35
-33.57
-28.89
-24.32
-20.43
-17.51
-15.80
-15.60
-17.03
-19.89
-23.47
-26.84
-29.03
-29.37
-27.78
-24.84
-21.56
-19.05
-18.12
-18.98
-21.20
-23.93
-26.34
-28.07
-29.37
-31.03
-34.05
-39.13
-46.29
-54.93
-63.91
-72.17
-79.10
-84.74
-89.75
-95.15
-102.04
-111.19
-122.65
-135.32
-146.85
-154.03
-153.67
-143.75
-124.16
-96.65
-63.82
-27.97
9.64
48.42
87.36
124.17
155.24
176.74
186.26
183.84
171.86
153.96
133.55
112.96
93.50
76.15
62.27
53.73
52.29
58.68
71.97
89.57
108.09
124.54
137.28
146.44
153.47
160.06
167.15
174.36
180.12
182.21
178.43
167.13
147.51
119.95
86.21
49.46
13.91
-16.06
-36.95
-46.90
-46.17
-36.93
-23.02
-9.31
-0.85
-1.57
-12.94
-33.23
-57.63
-79.94
-94.87
-100.07
-96.57
-87.78
-77.68
-68.99
-62.74
-58.81
-56.86
-56.61
-57.46
-58.02
-56.18
-50.10
-39.40
-25.83
-12.57
-2.86
1.72
1.93
0.31
-0.28
1.98
7.17
13.93
20.26
24.28
24.65
20.75
12.63
1.14
-12.02
-24.43
-33.63
-37.57
-35.15
-26.47
-12.84
3.53
19.77
32.87
40.36
40.83
34.32
22.24
6.93
-9.03
-23.48
-35.05
-43.10
-47.40
-47.94
-45.31
-40.79
-36.03
-32.47
-30.86
-31.01
-31.87
-32.10
-30.49
-27.05
-22.95
-19.49
-17.34
-16.24
-15.50
-14.32
-12.13
-8.46
-3.75
0.87
4.83
8.54
13.19
19.98
29.97
43.84
62.09
83.22
103.65
119.03
125.58
121.15
105.35
80.24
46.34
10.58
-17.48
-32.86
-37.71
-37.34
-35.41
-33.25
-29.99
-24.66
-17.17
-9.97
-8.02
-14.05
-28.20
-47.72
-69.04
-88.06
-102.09
-110.45
-115.90
-123.76
-139.98
-169.52
-208.42
-251.69
-291.48
-319.08
-327.20
-312.73
-277.53
-227.12
-168.42
-107.23
-48.23
6.33
55.84
101.75
146.99
194.67
245.77
296.90
340.26
365.59
366.57
344.38
309.24
276.32
257.78
256.00
262.45
263.32
247.06
211.24
161.43
107.51
58.12
16.50
-19.61
-54.01
-87.36
-115.36
-125.44
-109.45
-71.51
-25.03
16.54
44.77
56.83
56.14
47.24
35.59
23.86
13.49
5.23
-0.78
-3.41
-0.84
7.15
17.18
23.13
16.58
-6.64
-44.11
-87.88
-128.81
-161.14
-184.59
-202.90
-219.29
-235.24
-246.25
-245.07
-227.02
-194.54
-157.96
-131.64
-127.21
-135.35
-145.36
-142.72
-115.98
-64.24
1.26
62.06
100.66
107.87
86.22
46.81
6.38
-19.85
-24.07
-7.97
19.70
48.28
70.48
85.38
96.17
107.70
121.85
136.00
143.69
139.91
124.32
101.81
79.82
64.71
59.04
60.93
64.97
64.56
55.10
35.56
8.61
-21.10
-48.26
-69.24
-82.35
-88.39
-90.10
-90.91
-94.16
-97.69
-101.47
-100.49
-93.39
-81.35
-67.37
-54.14
-42.21
-29.80
-14.32
4.85
25.98
44.18
54.73
55.23
46.12
30.99
15.22
3.79
-0.75
2.34
11.84
26.29
44.30
64.42
83.77
98.74
106.14
104.43
95.19
82.30
70.55
63.33
61.09
61.42
60.81
56.53
47.79
36.01
23.43
12.04
2.67
-4.95
-11.57
-17.52
-22.51
-25.97
-27.49
-27.31
-26.38
-26.08
-27.58
-31.35
-36.72
-42.10
-45.63
-45.97
-42.83
-37.06
-30.30
-24.18
-19.71
-16.89
-15.03
-13.27
-11.13
-8.77
-6.80
-5.83
-5.98
-6.73
-7.16
-6.46
-4.47
-1.82
0.35
1.03
-0.30
-3.41
-7.63
-12.06
-15.96
-18.76
-20.13
-20.11
-19.38
-19.45
-22.41
-30.02
-42.55
-58.48
-75.04
-89.68
-101.48
-111.49
-122.33
-136.77
-156.23
-179.90
-205.03
-227.89
-245.06
-254.27
-254.10
-244.56
-226.79
-202.44
-172.79
-138.50
-100.05
-58.22
-14.64
29.63
73.14
114.14
150.60
180.40
201.25
211.18
209.88
199.91
188.71
184.89
194.73
219.93
257.13
298.86
335.44
357.83
359.82
341.91
308.57
266.22
221.78
181.50
149.45
126.16
109.10
81.31
35.55
-21.94
-76.54
-116.65
-138.53
-143.82
-137.44
-122.27
-100.35
-71.50
-36.80
-2.52
23.31
34.85
30.96
15.40
-4.77
-22.11
-29.62
-24.54
-9.14
11.13
31.74
50.88
68.69
85.40
99.49
108.75
110.03
100.78
80.19
51.92
22.67
-1.46
-18.09
-29.13
-38.20
-48.72
-62.10
-78.69
-95.81
-109.86
-119.52
-127.08
-136.58
-150.54
-168.85
-188.96
-209.45
-227.36
-238.86
-240.65
-231.27
-210.85
-180.78
-144.48
-93.56
-34.53
17.82
54.43
78.59
98.35
117.79
136.94
152.37
160.75
158.76
147.59
130.28
111.31
93.77
79.43
69.70
65.42
66.66
70.63
75.15
79.37
83.37
86.96
89.81
91.62
91.77
89.79
84.77
77.76
71.27
67.47
65.87
63.28
55.42
38.60
11.55
-24.42
-64.99
-104.23
-136.48
-158.16
-168.14
-167.29
-157.92
-142.82
-124.79
-105.91
-87.69
-71.51
-58.97
-51.56
-49.73
-52.48
-57.42
-61.76
-63.42
-61.64
-56.69
-49.33
-40.43
-31.16
-23.32
-19.17
-20.55
-27.28
-36.41
-42.76
-41.24
-29.51
-9.69
12.29
29.28
36.27
32.42
20.90
6.79
-5.57
-14.22
-19.54
-23.01
-25.95
-28.88
-31.91
-35.31
-39.70
-45.27
-50.94
-54.19
-52.00
-42.71
-27.03
-8.32
8.59
19.45
22.36
18.31
10.35
1.83
-5.31
-10.44
-13.91
-16.53
-18.89
-21.05
-22.48
-22.40
-20.30
-16.63
-11.37
-3.96
6.12
18.86
33.73
49.81
65.99
80.96
92.41
99.38
102.07
100.71
94.89
83.81
67.00
44.77
18.25
-11.94
-42.96
-70.22
-89.25
-97.24
-93.46
-79.27
-57.70
-24.12
16.00
52.03
77.32
92.38
100.73
104.51
103.19
95.62
81.59
60.55
35.46
11.32
-7.73
-20.14
-26.68
-29.23
-29.61
-29.18
-29.80
-31.67
-33.79
-35.16
-35.47
-34.90
-33.85
-32.64
-31.58
-31.40
-31.69
-31.15
-28.57
-23.59
-16.75
-9.01
-1.22
6.04
12.22
17.20
21.00
23.34
23.88
22.74
20.94
20.17
21.87
26.30
32.17
37.03
38.11
33.65
23.75
10.30
-3.71
-15.52
-23.38
-26.92
-26.76
-24.07
-20.08
-15.92
-12.63
-11.10
-11.93
-15.16
-20.23
-25.93
-30.76
-33.39
-33.06
-29.95
-25.02
-19.71
-15.32
-12.57
-11.34
-10.91
-10.26
-8.60
-5.58
-1.36
3.53
8.45
12.82
16.35
18.95
20.77
22.06
23.13
24.30
25.84
27.85
30.10
31.99
32.69
31.46
28.12
23.36
18.64
15.57
15.20
17.37
20.72
23.36
23.73
21.34
16.94
12.02
8.11
6.10
5.98
7.07
8.39
9.04
8.50
6.58
3.29
-1.25
-6.92
-13.60
-21.06
-28.91
-36.48
-42.90
-47.33
-49.15
-48.24
-44.91
-39.78
-33.39
-26.12
-18.19
-9.88
-1.76
5.30
10.43
13.08
13.43
12.37
11.37
11.87
14.76
19.98
26.42
32.32
35.89
36.09
33.14
28.52
24.39
22.60
23.75
26.77
29.21
28.39
22.58
11.88
-1.77
-15.51
-26.74
-34.24
-38.60
-41.75
-46.25
-54.45
-67.68
-85.92
-107.39
-128.45
-143.85
-147.85
-136.41
-109.47
-72.20
-33.90
-4.76
8.47
5.56
-7.19
-20.25
-25.70
-21.00
-9.47
2.60
10.18
12.48
12.77
15.49
22.80
32.79
40.72
42.20
36.12
25.50
15.84
12.02
15.71
24.82
35.03
42.37
45.13
44.35
42.72
42.67
44.88
47.93
49.14
46.18
38.32
26.97
15.06
5.72
0.95
0.94
4.27
8.81
12.75
15.16
16.09
16.10
15.81
15.61
15.69
16.14
17.09
18.72
21.14
24.32
27.98
31.70
35.02
37.59
39.29
40.23
40.70
40.97
41.19
41.24
40.70
39.11
36.05
31.51
25.89
19.90
14.35
9.83
6.57
4.42
3.00
1.95
1.04
0.20
-0.57
-1.30
-2.14
-3.26
-4.78
-6.60
-8.47
-10.08
-11.19
-11.80
-12.08
-12.28
-12.61
-13.17
-13.99
-15.04
-16.39
-18.05
-20.04
-22.19
-24.22
-25.72
-26.32
-25.74
-23.85
-20.67
-16.37
-11.25
-5.63
0.10
5.64
10.72
15.20
19.00
22.18
24.79
26.96
28.73
30.12
31.05
31.37
30.97
29.80
28.02
25.94
23.95
22.44
21.62
21.50
21.86
22.36
22.67
22.58
22.02
21.05
19.86
18.58
17.29
15.94
14.39
12.48
10.17
7.53
4.81
2.28
0.18
-1.41
-2.59
-3.54
-4.51
-5.64
-7.00
-8.58
-10.31
-12.03
-13.53
-14.57
-14.81
-13.96
-11.85
-8.63
-4.63
-0.26
4.18
8.59
12.84
16.66
19.41
20.25
18.48
14.17
8.52
3.72
1.85
3.82
8.79
14.43
17.93
17.16
11.54
2.05
-9.30
-20.82
-31.67
-41.63
-50.43
-57.46
-61.98
-63.68
-63.29
-62.34
-63.66
-70.27
-83.42
-101.25
-119.07
-130.72
-130.64
-115.63
-84.59
-39.47
16.08
78.28
143.55
207.13
262.26
300.90
316.41
307.48
277.47
233.38
183.76
135.94
93.51
56.32
22.32
-16.75
-58.75
-94.96
-117.92
-126.67
-125.17
-118.76
-111.74
-106.60
-104.04
-102.65
-101.68
-100.84
-100.04
-97.07
-89.67
-76.93
-60.42
-43.74
-30.12
-21.83
-18.51
-16.72
-11.47
0.60
19.30
39.94
56.06
63.01
59.04
45.47
25.03
-0.12
-29.16
-61.36
-94.12
-122.34
-140.09
-144.59
-138.05
-126.62
-116.54
-110.54
-106.76
-100.99
-90.51
-76.62
-64.38
-59.22
-63.03
-72.25
-79.35
-76.52
-59.26
-27.87
13.39
58.64
102.58
141.36
172.46
194.08
204.74
203.75
191.91
171.92
147.88
124.04
103.39
87.06
74.73
65.45
58.44
53.02
48.20
42.34
33.56
20.74
4.51
-12.70
-27.63
-37.67
-42.10
-42.16
-40.05
-37.79
-36.30
-35.41
-34.53
-33.35
-32.13
-31.47
-31.66
-32.37
-32.76
-31.90
-29.38
-25.59
-21.48
-18.10
-16.06
-15.22
-14.89
-14.25
-12.66
-9.90
-6.11
-1.63
3.13
7.61
11.23
13.45
13.95
12.84
10.63
8.03
5.68
3.99
3.06
2.84
3.21
4.00
4.93
5.55
5.36
3.99
1.49
-1.62
-4.59
-6.74
-7.74
-7.73
-7.08
-6.16
-5.18
-4.07
-2.73
-1.18
0.40
1.65
2.34
2.46
2.25
2.15
2.52
3.48
4.92
6.57
8.11
9.46
10.74
12.35
14.77
18.44
23.60
30.31
38.41
47.50
56.88
65.55
72.37
76.41
77.46
76.13
73.81
72.07
72.00
73.75
76.57
79.27
80.78
80.57
78.50
74.52
68.26
59.05
46.16
29.27
8.85
-13.79
-36.71
-57.89
-75.77
-89.76
-100.35
-108.97
-117.48
-127.27
-138.61
-150.23
-159.71
-164.46
-162.94
-155.66
-145.40
-136.48
-133.41
-139.16
-153.92
-174.64
-195.44
-209.06
-208.72
-189.81
-151.44
-96.93
-33.49
29.17
80.89
113.54
123.30
111.92
86.14
55.27
27.71
8.32
-2.27
-6.14
-5.50
-0.88
8.70
23.92
43.07
61.52
73.38
74.45
64.46
47.27
28.74
13.91
4.93
0.97
-0.33
-1.20
-2.80
-5.30
-8.48
-12.06
-15.59
-18.00
-17.91
-14.32
-7.69
-0.31
4.43
3.72
-2.84
-12.60
-21.09
-24.38
-21.11
-12.93
-2.97
6.00
12.92
18.60
24.57
31.73
39.51
46.60
52.06
56.62
61.98
69.40
78.87
88.86
96.98
100.71
98.63
90.99
80.25
69.47
60.82
55.16
52.24
50.90
49.20
45.38
38.73
30.89
24.28
20.30
19.31
20.80
24.02
27.98
32.26
31.67
25.03
16.59
11.99
13.45
18.37
24.26
25.69
18.80
2.69
-19.58
-43.48
-66.49
-85.06
-96.22
-98.44
-89.40
-71.06
-49.43
-30.49
-13.80
1.00
12.55
18.87
18.86
12.51
1.37
-11.24
-20.83
-24.02
-20.97
-14.19
-7.03
-1.87
0.66
1.56
2.83
6.48
13.19
21.42
28.93
34.19
37.03
38.28
38.99
39.82
40.89
41.59
40.61
36.99
30.76
22.99
15.32
9.37
6.22
6.34
9.55
15.04
21.94
29.35
36.42
42.29
46.43
49.03
51.19
54.53
60.33
68.94
79.63
90.92
101.08
108.91
113.78
115.55
113.90
108.09
97.01
79.96
57.52
32.01
7.04
-13.87
-29.01
-39.52
-49.13
-62.35
-82.12
-108.01
-136.13
-160.82
-177.33
-183.95
-182.52
-177.17
-172.10
-169.56
-169.08
-168.09
-163.37
-152.74
-135.99
-115.02
-93.06
-73.56
-59.09
-50.59
-47.42
-47.80
-49.76
-51.74
-52.90
-52.99
-51.94
-49.48
-45.26
-39.16
-31.71
-24.20
-18.30
-15.36
-15.75
-18.66
-22.43
-25.37
-26.51
-25.93
-24.69
-24.15
-25.38
-28.70
-33.60
-39.05
-43.89
-47.48
-49.94
-52.23
-55.73
-61.60
-69.84
-78.96
-86.07
-87.99
-82.77
-70.77
-54.67
-38.23
-24.58
-14.81
-7.86
-1.38
6.82
17.39
29.26
40.45
49.17
54.80
58.17
61.00
65.83
75.21
90.89
113.20
140.87
170.96
199.17
220.55
230.41
226.83
211.40
188.55
164.29
144.43
132.75
129.84
133.15
137.63
139.48
137.25
130.86
120.56
106.20
86.66
59.94
24.06
-22.06
-74.84
-126.23
-166.65
-188.41
-188.10
-167.63
-133.44
-89.48
-47.32
-18.79
-6.61
-4.29
-3.73
-0.50
5.74
13.00
19.92
24.26
25.79
25.38
23.22
18.45
9.89
-2.64
-17.97
-33.58
-46.18
-51.96
-48.54
-36.77
-20.75
-5.75
4.20
7.73
6.40
3.14
1.74
5.16
14.18
27.10
40.63
51.33
56.69
55.85
49.51
39.83
29.45
20.34
13.23
8.02
4.44
2.42
2.02
2.97
4.59
5.81
5.55
3.20
-1.04
-6.21
-11.21
-15.40
-19.04
-22.99
-28.21
-35.13
-43.41
-52.07
-59.90
-65.82
-69.12
-69.38
-66.55
-60.88
-53.07
-44.22
-35.59
-28.22
-22.63
-18.66
-15.76
-13.31
-10.88
-8.23
-5.14
-1.30
3.59
9.51
15.93
21.89
26.44
29.18
30.54
31.52
33.16
35.89
39.27
42.22
43.56
42.66
39.75
35.62
31.21
27.23
23.98
21.43
19.40
17.74
16.57
15.98
15.52
14.22
10.86
4.49
-5.08
-17.19
-30.49
-42.96
-52.85
-59.54
-63.64
-66.51
-69.56
-73.61
-78.73
-84.38
-88.92
-90.64
-88.84
-84.07
-77.81
-71.86
-67.76
-66.50
-68.32
-71.39
-72.59
-68.60
-56.65
-35.43
-5.54
30.30
68.80
100.96
118.60
120.54
112.39
101.58
93.08
88.55
87.30
87.70
88.34
90.43
95.21
103.49
115.76
131.68
150.65
172.20
195.82
220.52
245.35
268.87
283.92
285.04
269.33
238.33
197.54
154.18
113.84
79.05
49.19
22.37
-1.64
-21.27
-34.13
-39.31
-38.80
-37.04
-38.54
-45.96
-59.24
-76.08
-94.35
-113.21
-133.11
-154.76
-177.92
-200.94
-221.60
-238.09
-249.61
-256.68
-260.55
-262.63
-264.07
-265.21
-265.62
-264.13
-259.34
-250.06
-236.49
-221.05
-208.33
-203.82
-211.47
-231.17
-257.66
-281.95
-294.69
-290.22
-268.80
-236.13
-200.09
-167.09
-139.72
-116.87
-95.74
-74.22
-52.23
-31.58
-14.66
-2.96
3.71
7.33
10.89
17.31
28.41
44.32
63.75
85.02
107.18
130.25
154.46
178.77
200.06
213.69
215.44
203.84
181.39
153.85
128.00
109.16
99.60
98.55
103.29
110.68
118.21
124.38
128.51
130.31
129.77
127.21
123.42
119.71
117.49
117.77
120.64
124.99
128.93
130.58
128.91
124.13
117.26
109.27
100.15
88.70
73.29
52.91
28.26
1.81
-23.03
-43.37
-57.89
-67.26
-73.57
-79.11
-85.25
-91.82
-97.28
-99.54
-96.90
-88.88
-76.37
-61.22
-45.45
-30.44
-16.55
-3.28
10.12
23.90
37.51
49.75
59.36
65.77
69.27
70.84
71.46
71.57
70.87
68.64
64.38
58.23
51.09
44.28
39.05
36.09
35.39
36.34
37.96
39.26
39.44
38.11
35.32
31.39
26.78
21.87
16.79
11.20
4.33
-4.75
-16.60
-30.93
-46.43
-61.02
-72.45
-79.07
-80.19
-76.01
-67.10
-54.06
-37.54
-18.50
1.32
19.33
32.61
38.84
37.26
28.83
16.05
2.25
-8.93
-14.30
-11.82
-1.02
16.78
38.85
61.54
81.29
95.54
103.17
104.24
99.59
90.48
78.55
66.10
55.63
49.43
49.08
55.08
66.57
81.58
97.43
111.24
120.73
123.54
117.85
103.45
82.63
59.67
39.19
24.06
14.39
9.30
6.87
6.18
8.55
16.81
32.37
52.73
71.46
81.05
77.83
60.63
30.56
-8.94
-52.38
-92.71
-121.77
-131.48
-115.28
-69.12
1.74
82.91
156.21
206.50
226.43
217.51
187.60
132.84
63.73
-0.90
-46.61
-71.15
-80.57
-81.76
-79.57
-78.47
-80.50
-83.91
-87.52
-91.49
-96.29
-103.27
-114.65
-130.01
-151.39
-180.67
-216.73
-257.29
-298.00
-331.24
-348.56
-342.90
-312.78
-264.70
-210.70
-163.47
-133.25
-124.22
-124.27
-120.48
-103.55
-73.92
-40.14
-11.41
7.43
15.81
16.28
12.99
9.02
5.83
4.56
5.26
7.50
10.13
11.26
9.06
1.69
-11.62
-29.16
-48.56
-68.68
-88.95
-108.02
-124.08
-135.39
-141.09
-142.08
-139.98
-135.55
-129.16
-119.64
-105.17
-84.86
-59.40
-30.92
-2.14
24.81
48.83
69.75
88.11
104.54
119.57
133.97
149.14
167.22
190.92
222.86
264.36
314.07
366.85
413.99
445.78
454.93
439.54
403.78
356.13
306.08
261.21
225.64
200.03
182.71
170.61
160.03
146.91
127.64
100.07
64.21
21.94
-24.40
-73.35
-124.86
-179.30
-235.67
-290.98
-340.89
-380.92
-407.87
-421.02
-422.13
-414.66
-402.47
-388.48
-374.75
-362.31
-350.94
-338.83
-322.83
-299.60
-267.31
-227.17
-183.18
-141.91
-110.06
-90.94
-81.90
-74.87
-59.45
-27.19
24.97
95.34
174.91
249.51
304.83
331.35
325.74
290.08
230.49
156.17
82.96
24.78
-10.64
-21.70
-10.45
17.78
54.95
92.79
125.87
160.49
202.64
252.68
306.95
362.58
417.08
466.66
505.89
529.88
546.15
561.08
575.82
588.57
599.32
607.75
611.15
605.14
526.03
358.47
148.62
-36.55
-163.80
-236.74
-274.76
-296.43
-315.37
-335.39
-346.20
-343.84
-334.04
-327.53
-327.16
-332.38
-341.12
-352.25
-365.82
-375.44
-380.22
-382.39
-383.56
-381.39
-372.41
-354.44
-327.67
-293.83
-236.21
-158.85
-80.90
-19.69
19.78
40.41
47.57
46.31
41.03
37.20
35.72
36.63
39.70
44.39
49.21
52.66
54.05
54.30
56.08
59.53
64.94
71.56
77.69
80.72
78.52
70.33
56.84
39.45
18.81
-3.12
-22.56
-35.80
-41.20
-39.20
-31.87
-22.12
-12.63
-5.62
-1.51
0.56
1.46
1.45
0.54
-0.68
-1.56
-1.56
-0.54
1.15
2.92
3.97
3.59
1.60
-1.46
-4.91
-8.07
-10.53
-12.52
-14.50
-17.67
-23.78
-34.54
-50.23
-68.92
-86.05
-95.32
-91.20
-71.64
-39.85
-2.93
28.56
47.46
52.22
46.48
36.77
28.98
25.95
27.22
30.65
35.04
40.64
47.24
52.84
53.73
46.75
32.25
15.66
5.54
9.55
29.01
56.78
79.95
86.66
72.33
41.44
4.21
-30.03
-56.41
-75.59
-90.21
-101.18
-105.30
-97.29
-74.39
-37.37
3.25
36.98
57.85
66.96
68.18
64.84
57.92
45.76
26.66
-0.06
-31.09
-60.54
-79.83
-84.81
-77.59
-63.33
-47.07
-31.00
-18.40
-10.22
-6.89
-7.25
-7.84
-3.71
10.73
39.04
81.71
132.30
181.03
219.85
238.63
233.37
206.15
165.29
115.86
75.33
58.14
64.02
80.36
93.22
97.42
92.94
82.90
70.60
59.12
48.68
37.29
22.82
4.18
-18.34
-44.99
-75.51
-108.42
-139.88
-166.28
-183.97
-189.03
-178.66
-152.79
-116.73
-77.89
-43.40
-18.62
-8.48
-16.02
-40.26
-75.44
-112.02
-141.92
-157.50
-153.05
-127.89
-88.80
-47.09
-13.39
6.19
11.37
2.37
-16.37
-36.76
-51.74
-59.65
-63.11
-65.65
-69.46
-75.20
-88.19
-111.34
-142.72
-178.38
-215.61
-251.97
-283.28
-304.02
-276.92
-193.06
-81.65
18.18
87.35
125.94
142.38
146.30
145.37
143.82
137.98
125.64
110.11
97.27
90.82
91.54
97.96
107.44
115.90
115.54
102.61
80.81
58.40
42.77
37.87
43.56
55.80
68.36
73.29
67.39
53.89
38.98
27.13
19.52
14.95
11.60
8.38
4.26
-0.46
-4.46
-6.44
-6.45
-5.39
-4.03
-2.48
-0.19
3.38
8.58
15.42
23.60
32.32
40.73
48.32
55.01
61.01
66.77
72.80
79.13
85.54
91.40
95.55
96.26
91.75
80.60
62.49
38.61
10.88
-17.97
-45.30
-69.16
-88.56
-103.26
-113.58
-120.53
-122.03
-118.64
-112.74
-107.96
-107.74
-113.59
-124.05
-135.02
-141.70
-140.83
-132.65
-119.83
-105.61
-91.75
-77.40
-59.94
-37.06
-8.82
21.48
47.66
63.46
65.14
53.02
31.58
7.71
-11.85
-22.69
-23.75
-17.19
-6.60
4.61
14.24
21.45
25.86
26.87
23.76
16.59
7.06
-0.91
-2.08
8.24
32.28
67.92
108.78
146.38
173.13
184.69
180.71
163.97
138.72
109.75
80.63
53.36
29.25
10.14
-1.58
-3.87
3.66
19.08
39.44
60.26
76.48
84.33
83.08
74.95
63.63
52.54
43.90
39.98
41.56
47.64
56.31
65.87
74.90
81.64
83.84
70.54
38.27
-5.53
-47.59
-78.53
-95.83
-101.68
-100.13
-95.23
-89.78
-83.58
-75.93
-67.15
-58.67
-51.80
-47.11
-44.44
-43.17
-42.48
-40.35
-35.71
-29.07
-22.15
-16.51
-12.91
-11.28
-11.02
-11.19
-10.15
-7.05
-2.33
2.54
5.98
7.04
5.43
1.61
-3.61
-8.67
-12.56
-15.27
-17.62
-20.65
-25.13
-31.26
-38.52
-45.88
-52.03
-56.05
-57.86
-58.04
-57.52
-57.42
-59.12
-64.08
-73.15
-85.36
-97.59
-104.64
-100.84
-82.46
-49.73
-7.35
37.10
75.77
103.41
118.01
120.61
114.15
102.07
87.56
73.44
62.28
54.19
50.70
51.96
56.69
62.82
68.62
73.36
77.44
81.77
86.70
91.85
95.42
95.13
89.29
77.41
60.38
39.88
17.70
-4.85
-26.83
-47.80
-67.22
-84.02
-96.70
-103.66
-103.68
-96.50
-83.18
-66.09
-48.91
-35.68
-29.60
-32.06
-42.11
-56.79
-72.04
-83.89
-89.28
-86.62
-75.89
-58.43
-36.73
-13.96
6.58
22.20
31.32
33.72
30.26
22.51
12.42
2.09
-6.38
-11.32
-11.87
-8.39
-2.38
4.09
9.09
11.59
11.51
9.49
6.34
2.68
-1.04
-4.38
-6.73
-7.48
-6.21
-3.17
0.69
3.90
5.11
3.65
-0.12
-4.89
-8.98
-11.05
-10.69
-8.33
-4.89
-1.30
1.78
3.85
4.56
3.61
1.19
-1.92
-4.28
-4.39
-1.31
4.85
12.95
21.41
28.86
34.53
38.14
39.68
39.17
36.79
33.05
28.61
24.24
20.44
17.30
14.48
11.61
8.70
6.26
4.96
5.01
6.01
7.18
7.67
6.75
4.09
-0.12
-5.17
-10.23
-14.77
-18.53
-21.11
-22.07
-21.18
-18.40
-13.69
-6.92
1.86
11.88
21.75
29.98
34.97
35.07
28.87
15.92
-1.81
-18.59
-28.18
-28.63
-22.04
-11.83
-0.99
8.39
15.49
20.32
22.88
22.57
18.19
10.33
0.91
-7.35
-12.17
-12.32
-8.05
-1.04
6.24
11.56
13.76
12.41
8.87
3.46
-3.47
-11.36
-19.37
-26.66
-32.60
-36.75
-39.01
-39.61
-39.09
-37.88
-36.51
-35.63
-36.02
-38.21
-42.17
-47.25
-52.61
-57.72
-62.36
-66.57
-70.33
-73.26
-74.53
-73.08
-68.01
-59.19
-47.71
-35.70
-25.95
-21.04
-22.31
-29.16
-38.96
-47.85
-52.14
-49.75
-40.91
-27.94
-14.09
-2.20
6.16
10.75
12.03
10.59
7.06
2.60
-0.63
0.50
9.40
28.36
57.26
93.00
130.10
162.41
185.09
196.14
196.66
189.81
179.03
166.63
153.34
139.01
123.58
107.59
91.85
76.55
60.76
42.92
22.14
-0.70
-22.92
-41.17
-53.27
-59.23
-60.94
-60.82
-60.26
-58.97
-55.65
-49.24
-40.06
-29.93
-21.26
-15.86
-14.09
-14.93
-16.57
-17.35
-16.35
-13.51
-9.36
-4.45
0.87
6.50
12.16
17.03
19.73
18.81
13.37
3.58
-9.35
-23.73
-38.37
-53.22
-69.20
-87.38
-107.67
-128.28
-145.85
-156.36
-155.99
-142.27
-114.94
-76.66
-33.03
8.10
38.50
52.05
46.98
27.26
0.95
-22.97
-37.73
-40.03
-29.27
-6.36
27.16
68.61
113.60
155.33
185.42
196.57
185.84
156.81
117.85
78.76
46.58
23.98
9.12
-2.21
-13.60
-25.54
-34.91
-38.12
-34.17
-30.26
-35.11
-52.30
-76.17
-96.64
-105.95
-101.72
-88.12
-71.41
-56.40
-43.56
-29.25
-8.44
22.34
59.08
95.66
124.84
141.13
142.71
132.25
115.05
96.17
78.47
62.49
48.69
37.94
32.03
32.74
40.96
55.79
74.58
93.73
109.89
121.01
125.47
121.75
108.45
85.30
54.20
19.57
-12.62
-36.65
-48.90
-49.32
-41.35
-30.41
-21.96
-19.96
-26.31
-41.07
-63.07
-90.20
-119.86
-149.19
-175.37
-196.08
-209.89
-216.64
-217.38
-214.24
-209.88
-207.05
-208.16
-215.09
-228.99
-249.85
-276.06
-303.80
-327.37
-340.27
-337.16
-315.82
-277.88
-228.04
-172.04
-114.42
-57.36
-1.09
54.82
110.51
165.72
220.30
274.22
326.58
374.17
410.91
429.55
425.09
397.89
354.35
304.29
256.40
214.63
177.89
142.87
107.71
74.00
45.58
25.48
13.47
6.33
0.54
-4.49
-5.36
3.20
24.50
56.40
90.92
117.18
126.08
114.23
85.21
47.51
10.70
-18.23
-36.73
-46.11
-49.39
-49.08
-46.17
-40.66
-32.84
-24.13
-16.98
-13.73
-15.46
-21.33
-29.16
-36.46
-41.60
-44.20
-44.91
-44.57
-43.71
-42.28
-40.04
-36.99
-33.61
-30.59
-28.34
-26.59
-24.54
-21.31
-16.61
-10.98
-5.64
-1.73
0.23
0.60
0.29
0.22
0.93
2.43
4.43
6.48
8.07
8.62
7.55
4.41
-0.86
-7.78
-15.53
-23.16
-29.96
-35.60
-40.09
-43.50
-45.83
-46.92
-46.58
-44.67
-41.26
-36.52
-30.63
-23.68
-15.72
-6.98
1.91
9.98
16.22
20.02
21.53
21.61
21.38
21.61
22.37
23.04
22.72
20.82
17.27
12.50
7.18
1.97
-2.66
-6.43
-9.22
-11.17
-12.64
-14.15
-16.11
-18.52
-20.91
-22.42
-22.37
-20.56
-17.56
-14.47
-12.55
-12.68
-15.13
-19.37
-24.26
-28.35
-30.24
-29.10
-24.88
-18.46
-11.18
-4.39
1.21
5.80
10.32
15.96
23.65
33.81
46.39
60.95
76.59
91.77
104.35
112.02
113.25
107.81
96.94
82.56
66.31
49.02
30.80
11.81
-7.07
-24.22
-38.00
-47.53
-53.25
-56.45
-58.51
-60.17
-61.41
-61.99
-61.93
-61.62
-61.23
-60.08
-56.39
-48.14
-34.33
-16.11
3.23
19.57
29.81
33.30
31.93
28.89
26.93
27.23
29.48
32.77
36.78
42.12
49.74
59.90
71.58
82.65
90.83
94.75
94.41
90.99
86.04
80.71
75.30
69.33
62.02
52.87
42.03
30.28
18.81
8.64
0.30
-6.35
-11.90
-17.01
-21.97
-26.58
-30.25
-32.33
-32.51
-30.94
-28.13
-24.62
-20.73
-16.46
-11.67
-6.36
-0.83
4.45
8.93
12.22
14.05
14.19
12.36
8.36
2.29
-5.34
-13.64
-21.68
-28.79
-34.73
-39.55
-43.32
-45.94
-47.18
-47.01
-45.87
-44.42
-43.18
-42.21
-41.39
-40.39
-38.87
-36.71
-34.04
-31.19
-28.36
-25.37
-21.81
-17.65
-13.09
-8.53
-4.36
-0.88
1.37
2.10
1.52
0.23
-1.86
-5.03
-9.50
-15.20
-21.65
-29.06
-36.95
-43.75
-47.21
-47.36
-45.36
-42.71
-40.60
-39.76
-42.32
-48.70
-56.34
-60.39
-59.76
-55.36
-48.96
-42.40
-37.63
-39.39
-49.69
-64.79
-75.53
-76.82
-65.86
-42.22
-8.65
27.19
49.69
44.89
8.32
-51.74
-125.04
-197.88
-255.92
-288.53
-266.85
-187.70
-83.04
-5.54
45.31
79.29
104.19
121.53
132.32
138.19
138.14
133.71
127.04
120.92
113.90
102.66
83.69
61.05
43.07
34.56
37.01
49.32
68.92
86.77
94.47
90.04
79.40
71.96
73.44
84.56
101.35
117.58
123.86
113.71
87.86
54.28
22.77
-1.34
-18.67
-33.57
-50.09
-67.88
-83.56
-91.40
-85.35
-63.87
-32.94
-3.95
12.94
13.74
1.62
-15.89
-30.67
-36.10
-28.72
-9.30
15.92
39.41
53.94
54.91
40.20
10.59
-28.97
-69.84
-103.11
-124.87
-133.62
-131.00
-121.18
-107.84
-99.48
-103.01
-118.02
-136.62
-149.65
-146.10
-118.04
-63.06
13.54
97.94
164.55
193.71
200.20
193.41
178.90
152.31
118.42
86.04
62.98
53.19
56.35
67.87
77.58
78.01
66.40
45.39
21.28
-0.35
-16.41
-25.25
-26.09
-21.71
-14.49
-6.77
0.50
10.06
25.72
50.36
85.69
131.80
185.18
240.95
293.45
321.47
311.86
271.34
221.15
179.58
154.23
143.09
139.70
137.77
129.07
111.82
88.04
60.53
31.35
1.61
-29.69
-59.75
-87.31
-111.78
-129.97
-139.31
-140.69
-138.94
-140.06
-148.46
-165.11
-188.01
-212.77
-232.41
-240.87
-235.46
-216.83
-187.48
-150.77
-110.88
-73.27
-43.17
-23.19
-13.27
-11.40
-14.70
-20.19
-25.97
-31.90
-39.66
-51.26
-67.49
-87.62
-109.82
-131.69
-150.37
-164.10
-173.06
-179.20
-184.65
-190.41
-196.25
-201.44
-205.93
-209.79
-213.90
-219.35
-225.87
-230.57
-229.19
-218.87
-199.91
-175.31
-146.32
-112.40
-72.28
-25.54
26.24
78.32
123.48
155.01
170.54
176.20
182.07
195.96
219.90
251.19
284.63
315.22
340.19
344.01
319.03
273.56
224.45
181.79
146.42
115.60
87.85
63.86
45.22
35.48
35.92
44.70
55.10
61.12
59.87
51.92
40.06
27.57
18.73
15.16
14.90
13.66
8.07
-2.06
-12.53
-17.16
-10.57
11.20
47.77
94.14
141.76
180.50
202.01
201.79
179.93
140.55
91.31
40.11
-6.19
-36.92
-46.93
-40.38
-25.75
-9.25
3.97
14.11
19.32
15.81
-0.80
-34.81
-83.43
-139.88
-194.19
-235.27
-255.97
-255.57
-239.21
-215.70
-194.68
-182.26
-179.75
-185.20
-194.06
-203.99
-214.50
-225.22
-234.87
-241.91
-245.00
-244.17
-241.48
-236.93
-230.71
-221.34
-206.13
-183.09
-152.91
-118.75
-79.21
-47.69
-23.02
-3.48
13.83
32.12
54.24
82.15
116.75
157.07
199.24
239.71
272.35
291.64
294.41
280.93
254.94
222.56
190.47
163.51
145.91
137.85
137.12
139.86
141.78
139.11
129.31
111.25
84.72
51.62
13.94
-25.64
-63.80
-96.99
-121.87
-136.03
-138.54
-130.37
-113.15
-89.36
-61.08
-29.90
3.03
36.55
69.11
98.54
122.04
136.63
139.36
128.33
103.59
67.82
26.07
-15.58
-51.72
-79.16
-97.41
-107.84
-112.34
-112.10
-107.43
-98.31
-85.29
-69.88
-53.94
-39.14
-26.27
-15.36
-6.15
1.33
6.56
8.86
8.03
4.85
1.06
-1.20
-0.14
5.09
14.24
26.26
39.77
53.43
66.09
76.77
84.67
89.29
90.49
88.59
84.17
78.02
71.06
64.33
58.77
55.15
53.66
53.88
54.78
55.13
54.09
51.65
48.65
46.50
46.50
49.26
54.31
60.28
65.39
68.00
67.56
65.31
64.25
68.21
80.25
101.17
128.95
159.32
187.23
208.35
219.93
220.83
210.95
190.69
160.91
122.93
78.64
30.18
-20.46
-71.52
-121.27
-167.66
-208.38
-241.24
-265.00
-279.52
-285.37
-282.82
-271.59
-250.93
-220.33
-180.62
-134.44
-86.19
-41.10
-4.18
20.90
32.62
31.89
21.80
6.82
-8.47
-20.48
-27.28
-28.59
-25.16
-17.98
-7.93
4.32
17.92
31.49
42.94
49.85
50.11
42.76
28.72
10.95
-6.48
-19.85
-27.26
-29.06
-27.60
-25.91
-26.21
-28.94
-32.64
-34.97
-34.04
-29.46
-22.17
-13.96
-6.63
-1.27
2.17
5.04
9.26
16.39
26.68
39.47
52.88
64.30
70.99
71.09
64.94
54.43
42.18
30.09
20.67
15.72
15.90
20.19
26.52
33.99
41.78
48.46
50.79
48.09
41.02
31.40
20.86
10.92
5.15
6.20
14.11
24.12
33.85
41.73
46.80
47.27
41.50
32.27
23.89
20.16
20.50
27.36
42.48
66.10
95.33
107.43
88.32
42.49
7.68
-8.40
-6.82
1.00
8.61
10.79
4.72
-6.45
-17.85
-26.40
-35.25
-45.37
-57.36
-70.73
-85.08
-99.20
-108.91
-110.71
-104.21
-94.58
-84.99
-77.39
-71.90
-68.26
-65.56
-61.30
-53.84
-43.94
-36.13
-33.64
-38.32
-49.72
-65.53
-81.67
-92.46
-93.10
-81.55
-59.97
-32.27
-3.63
20.98
37.74
45.02
43.87
37.31
29.17
22.77
20.71
24.05
32.09
42.64
52.86
60.45
64.47
65.78
66.73
70.25
78.67
92.55
110.14
127.56
139.97
143.01
134.34
114.36
86.10
54.16
23.25
-2.84
-21.81
-32.69
-35.67
-32.25
-25.56
-20.21
-21.21
-31.93
-52.30
-78.50
-104.14
-122.99
-131.58
-130.37
-122.84
-113.11
-103.50
-93.71
-81.87
-66.54
-48.35
-30.16
-15.56
-7.10
-5.15
-8.18
-14.07
-21.56
-30.65
-42.22
-56.77
-73.54
-90.43
-104.79
-114.47
-118.39
-116.51
-109.25
-97.21
-80.91
-60.74
-37.00
-10.07
19.54
51.04
83.11
113.78
140.55
160.90
173.13
177.00
173.89
166.30
157.02
148.27
141.17
135.61
130.65
125.48
119.94
114.57
110.22
107.71
107.55
110.01
115.20
122.73
132.33
143.40
154.20
161.76
162.74
154.84
137.74
113.00
81.88
46.01
6.80
-34.99
-78.48
-121.37
-159.43
-187.83
-203.42
-208.28
-206.93
-204.52
-205.93
-214.68
-231.68
-254.90
-280.40
-303.75
-323.24
-336.36
-339.21
-328.75
-304.31
-267.53
-221.54
-170.25
-104.20
-28.56
41.84
94.73
127.29
143.77
150.27
152.14
153.33
156.47
162.03
169.85
181.33
196.60
213.40
228.01
237.16
239.52
235.97
227.35
212.27
193.04
171.52
148.02
121.96
93.45
63.90
35.89
11.04
-9.28
-23.77
-33.25
-41.04
-52.08
-71.28
-101.44
-141.51
-186.38
-226.95
-252.14
-253.67
-229.30
-183.65
-126.56
-69.68
-22.78
8.39
22.71
22.74
12.16
-5.66
-27.85
-51.34
-72.27
-86.38
-90.08
-82.06
-64.12
-41.34
-20.29
-6.81
-3.89
-11.01
-25.02
-41.92
-58.49
-73.20
-85.94
-97.07
-106.50
-113.36
-116.27
-114.12
-106.51
-93.87
-77.03
-56.78
-33.87
-9.30
15.12
36.68
52.15
58.58
54.36
39.89
17.93
-6.82
-28.55
-41.58
-41.51
-25.86
5.87
52.48
111.16
177.45
244.90
305.18
349.38
369.98
363.04
329.38
274.27
205.67
132.46
63.06
4.88
-35.87
-55.22
-53.32
-35.96
-13.78
1.22
0.84
-15.50
-40.61
-63.42
-74.87
-72.25
-59.64
-44.52
-32.86
-26.09
-21.48
-15.25
-5.92
4.16
10.50
9.58
1.28
-10.97
-22.15
-28.34
-28.60
-24.82
-20.14
-16.70
-14.32
-10.86
-3.75
8.06
23.12
37.81
47.96
50.71
45.60
34.51
20.59
6.82
-4.95
-14.20
-21.44
-27.54
-33.34
-39.43
-46.17
-53.68
-61.76
-69.79
-76.76
-81.47
-82.89
-80.61
-74.89
-66.57
-56.58
-45.53
-33.45
-19.79
-3.86
14.65
35.27
56.71
76.92
93.46
103.91
106.28
99.66
84.69
63.71
40.40
18.79
2.07
-8.41
-13.27
-14.62
-14.87
-15.81
-18.14
-21.57
-25.38
-28.86
-31.51
-32.99
-33.12
-31.75
-28.82
-24.47
-19.03
-13.13
-7.71
-4.03
-3.48
-7.30
-15.97
-28.97
-44.70
-60.94
-75.43
-86.59
-93.73
-96.90
-96.55
-93.17
-87.34
-80.16
-73.55
-70.08
-72.05
-80.10
-92.23
-103.91
-109.67
-105.19
-89.09
-63.14
-30.70
5.58
45.26
89.49
138.67
189.93
236.38
268.96
280.13
267.20
233.32
185.62
132.02
78.39
27.94
-17.77
-57.01
-87.17
-105.55
-111.06
-105.42
-93.01
-79.16
-68.11
-61.64
-58.93
-57.43
-54.26
-47.33
-35.87
-20.38
-2.38
15.94
32.12
43.94
49.98
50.23
46.49
42.09
41.03
46.56
59.71
78.53
98.53
114.17
120.82
116.26
101.38
79.74
56.37
36.10
22.22
15.74
15.55
19.02
23.13
25.39
24.67
21.45
17.21
13.44
10.66
7.85
2.71
-7.20
-23.19
-43.21
-61.42
-69.97
-62.51
-37.55
0.21
41.11
74.17
90.73
88.43
71.19
45.32
15.25
-18.22
-56.23
-98.84
-142.82
-183.08
-213.07
-227.23
-223.75
-204.80
-174.52
-137.06
-96.42
-57.73
-29.35
-18.50
-27.27
-51.40
-81.63
-106.79
-117.89
-111.10
-78.78
-26.42
29.30
73.37
101.89
118.68
128.08
131.53
129.15
122.18
112.51
104.54
104.46
114.32
130.56
145.45
150.50
140.65
116.36
82.04
45.76
16.66
0.62
-2.75
2.85
10.84
14.75
10.28
-4.27
-26.62
-50.95
-70.51
-81.24
-82.24
-76.24
-67.55
-60.58
-58.89
-63.92
-74.70
-84.30
-86.99
-80.05
-67.09
-53.80
-43.32
-34.40
-22.76
-3.60
25.11
59.55
93.49
120.90
137.75
142.17
134.11
114.76
87.36
56.45
25.58
-0.84
-21.79
-35.43
-42.94
-48.65
-58.33
-75.21
-94.07
-119.65
-146.77
-170.97
-186.33
-187.33
-170.68
-136.87
-88.49
-30.79
28.31
83.55
122.91
138.95
133.89
120.53
105.05
90.95
80.00
70.70
63.44
57.52
53.70
52.90
54.86
57.13
57.23
52.39
40.57
23.17
3.08
-15.26
-28.79
-37.90
-46.47
-55.06
-63.65
-71.38
-75.78
-74.85
-67.94
-56.78
-45.23
-37.36
-34.39
-35.37
-38.17
-40.38
-41.18
-41.27
-42.05
-45.95
-54.61
-68.21
-86.63
-108.81
-131.77
-150.70
-160.02
-154.97
-134.35
-101.22
-60.60
-19.39
16.54
45.20
69.45
90.16
109.57
128.53
145.83
160.61
170.55
173.17
168.22
158.37
147.72
140.62
139.73
146.20
162.40
187.23
215.91
241.89
258.79
261.52
247.63
217.85
161.30
85.65
11.09
-44.76
-77.60
-93.01
-98.42
-98.84
-96.55
-92.43
-84.88
-75.97
-69.89
-69.30
-74.94
-85.02
-97.05
-108.86
-119.03
-125.12
-128.75
-133.86
-143.39
-159.49
-182.84
-211.98
-242.50
-268.82
-276.47
-259.29
-218.62
-159.75
-92.57
-28.22
24.68
63.93
93.07
118.66
144.31
171.74
204.19
242.09
282.22
317.82
342.96
354.11
350.42
331.34
280.56
202.40
119.32
53.47
9.78
-17.28
-33.94
-43.22
-48.58
-51.47
-50.98
-49.18
-51.35
-65.78
-96.51
-142.47
-194.92
-246.62
-290.92
-320.01
-329.29
-301.57
-237.41
-155.21
-78.23
-19.95
16.99
36.96
47.44
53.87
58.47
58.80
53.95
46.33
39.68
35.73
34.40
35.37
37.84
40.97
42.16
40.74
39.07
40.65
47.12
57.31
67.94
74.39
72.45
59.18
35.73
7.41
-17.15
-32.43
-37.97
-37.43
-35.72
-36.27
-38.76
-40.65
-38.40
-30.08
-16.63
-1.15
13.29
23.74
30.57
36.79
45.53
58.29
71.85
79.93
76.02
56.93
25.05
-11.78
-43.47
-61.48
-62.25
-49.66
-32.02
-17.37
-10.24
-10.82
-16.20
-22.50
-27.13
-27.45
-21.61
-8.62
10.55
32.29
51.29
62.14
61.75
49.98
30.23
7.46
-13.41
-28.83
-36.96
-37.59
-32.09
-20.33
-7.18
2.73
6.83
5.14
-0.74
-8.95
-19.02
-30.22
-40.93
-49.46
-53.62
-52.25
-45.94
-37.15
-29.25
-21.74
-16.92
-15.36
-15.66
-15.11
-11.75
-5.23
3.33
12.13
19.42
23.63
24.47
22.52
19.31
16.67
16.20
18.93
25.14
34.33
45.10
55.32
61.97
61.85
52.58
33.83
7.98
-20.22
-44.99
-61.62
-67.68
-63.95
-53.77
-41.52
-30.85
-23.55
-19.25
-15.94
-11.36
-4.06
5.83
16.78
26.06
31.17
30.80
25.17
15.75
4.53
-6.52
-15.58
-20.63
-19.40
-10.13
7.20
28.32
46.05
54.71
52.99
43.49
30.90
19.72
12.53
9.26
7.94
6.26
2.99
-1.55
-6.03
-8.85
-8.87
-5.75
0.22
8.61
18.68
29.01
37.19
39.93
34.24
19.28
-3.09
-28.65
-50.14
-62.53
-65.09
-61.27
-56.37
-54.09
-54.68
-54.59
-49.40
-35.97
-14.59
11.18
36.16
56.25
70.37
80.59
89.00
95.67
97.92
91.29
72.46
41.79
3.95
-34.61
-63.22
-75.77
-73.52
-62.76
-50.69
-41.39
-35.16
-30.12
-24.39
-17.59
-11.95
-10.69
-16.06
-28.01
-43.60
-57.53
-63.95
-58.52
-40.10
-12.34
17.90
42.62
55.38
55.09
45.23
31.14
17.51
6.97
-0.28
-4.97
-7.59
-8.14
-6.51
-3.33
-0.17
1.65
1.89
1.58
2.55
6.61
13.62
21.89
28.77
31.40
28.66
21.77
14.15
10.08
13.09
24.62
43.14
63.83
78.69
79.33
60.92
25.38
-17.88
-54.54
-70.77
-58.88
-20.56
32.40
82.97
115.26
119.95
96.69
53.15
1.17
-48.48
-83.32
-95.39
-84.12
-56.47
-24.26
0.52
9.89
1.98
-20.09
-50.62
-85.45
-122.47
-159.96
-194.56
-220.58
-231.69
-223.89
-197.86
-158.67
-115.08
-75.40
-43.74
-18.72
4.75
31.77
64.16
99.25
131.83
155.35
165.46
162.56
152.08
142.10
139.56
147.23
162.87
181.54
196.63
202.32
195.73
177.29
149.62
115.82
78.55
35.54
-9.43
-48.99
-77.39
-93.68
-100.52
-100.87
-96.23
-86.61
-71.59
-50.76
-25.63
-0.03
22.45
39.06
48.46
50.39
45.08
33.21
14.76
-6.51
-26.56
-42.53
-52.63
-56.16
-53.42
-45.93
-35.94
-25.41
-16.25
-10.53
-10.24
-16.24
-27.66
-42.58
-58.47
-72.47
-81.58
-83.84
-79.87
-73.47
-69.36
-71.41
-80.72
-95.06
-110.43
-123.49
-133.46
-135.92
-132.08
-124.43
-118.26
-109.72
-92.50
-62.75
-20.84
30.10
83.21
131.09
169.12
196.30
205.00
192.06
161.80
123.68
86.30
54.55
29.86
12.40
3.40
0.34
1.02
2.97
3.69
1.75
-2.48
-7.30
-12.29
-16.29
-19.04
-19.85
-18.12
-13.46
-5.85
4.22
15.56
26.74
36.61
44.13
49.10
50.99
48.44
39.77
24.30
3.37
-19.53
-39.89
-54.13
-61.09
-62.07
-60.09
-57.96
-56.51
-54.08
-47.74
-35.34
-17.36
1.55
15.05
17.20
5.14
