1.594128392000000000e+09
-2.999999999999999889e-02
5.059999999999999609e+00
1.791000000000000014e+01
7.934000000000000341e+01
2.282500000000000000e+02
-4.865000000000000000e+02
-5.900000000000000355e+00
1.561500000000000057e+02
4.678000000000000114e+01
3.729999999999999982e+00
-1.280000000000000027e+00
-7.480000000000000426e+00
-1.639999999999999858e+01
3.614000000000000057e+01
1.228999999999999915e+01
-1.300999999999999979e+01
9.250000000000000000e+00
9.000000000000000222e-01
-5.110000000000000142e+01
-5.159000000000000341e+01
4.750999999999999801e+01
8.060000000000000497e+00
2.291000000000000014e+01
1.295399999999999920e+02
-1.147000000000000028e+02
-2.728799999999999955e+02
2.009900000000000091e+02
-2.707000000000000028e+01
3.025000000000000000e+01
-1.579399999999999977e+02
-9.809000000000000341e+01
3.108999999999999773e+02
-3.055000000000000071e+01
7.401999999999999602e+01
-1.991599999999999966e+02
3.507999999999999829e+01
-9.189999999999999503e+00
-1.525999999999999979e+01
2.380000000000000071e+01
-1.244399999999999977e+02
4.882000000000000028e+01
6.523999999999999488e+01
-2.628999999999999915e+01
-9.678000000000000114e+01
1.571000000000000085e+01
1.148700000000000045e+02
4.527000000000000313e+01
4.698799999999999955e+02
-1.651999999999999886e+02
-3.702300000000000182e+02
3.725999999999999801e+01
-1.129999999999999893e+00
2.428999999999999915e+01
1.717000000000000171e+01
2.603000000000000114e+01
1.360999999999999943e+01
-3.080000000000000071e+00
-5.509999999999999787e+00
-3.682999999999999829e+01
1.522000000000000064e+01
6.000000000000000000e+00
-2.301000000000000156e+01
9.568999999999999773e+01
-1.728199999999999932e+02
2.975299999999999727e+02
-1.179999999999999938e+00
-1.792999999999999972e+01
2.179900000000000091e+02
-1.203499999999999943e+02
6.257000000000000028e+01
-2.254900000000000091e+02
2.312599999999999909e+02
-8.512999999999999545e+01
8.995000000000000284e+01
7.821999999999999886e+01
9.371999999999999886e+01
2.439000000000000057e+01
2.062999999999999901e+01
-1.823700000000000045e+02
4.646999999999999886e+01
3.359000000000000341e+01
1.619999999999999929e+01
3.621000000000000085e+01
2.876000000000000156e+01
-5.603000000000000114e+01
-7.468000000000000682e+01
4.109000000000000341e+01
2.358499999999999943e+02
4.530000000000000249e+00
-2.149300000000000068e+02
-1.105400000000000063e+02
-1.794000000000000128e+01
-1.280000000000000027e+00
2.754700000000000273e+02
-4.264000000000000057e+01
-2.240000000000000213e+00
1.413499999999999943e+02
-3.292000000000000171e+01
-2.310000000000000053e+00
4.806000000000000227e+01
-1.889799999999999898e+02
-1.004699999999999989e+02
5.788000000000000256e+01
-2.710400000000000205e+02
1.677400000000000091e+02
2.337999999999999901e+01
-4.736999999999999744e+01
2.238000000000000114e+02
-2.547299999999999898e+02
-2.578100000000000023e+02
4.863000000000000256e+01
-2.217999999999999972e+01
3.631000000000000227e+01
1.843499999999999943e+02
-2.148199999999999932e+02
-1.556599999999999966e+02
3.239000000000000057e+01
1.953999999999999915e+01
-8.021999999999999886e+01
-6.420999999999999375e+01
5.904999999999999716e+01
7.332999999999999829e+01
1.592599999999999909e+02
-3.015400000000000205e+02
-1.040900000000000034e+02
1.568899999999999864e+02
3.291399999999999864e+02
-2.372400000000000091e+02
7.940999999999999659e+01
-2.508999999999999986e+01
7.979999999999999716e+01
-4.000000000000000083e-02
-8.545000000000000284e+01
-1.027399999999999949e+02
-2.792400000000000091e+02
1.510900000000000034e+02
5.227500000000000000e+02
-9.046999999999999886e+01
-1.274000000000000057e+02
-1.114300000000000068e+02
4.688000000000000256e+01
-2.370000000000000107e+00
-1.168499999999999943e+02
-1.166000000000000014e+01
3.309000000000000341e+01
8.287000000000000455e+01
1.179999999999999938e+00
-3.786999999999999744e+01
-1.385900000000000034e+02
3.963899999999999864e+02
9.381999999999999318e+01
-2.862599999999999909e+02
-8.054000000000000625e+01
1.314600000000000080e+02
-7.471999999999999886e+01
1.621999999999999886e+02
-7.701000000000000512e+01
-4.243999999999999773e+01
6.045000000000000284e+01
-1.190000000000000036e+01
-4.797999999999999687e+01
-1.085300000000000011e+02
1.136899999999999977e+02
5.100000000000000000e+01
-8.449999999999999289e+00
-4.460000000000000142e+01
-3.270000000000000284e+01
5.054800000000000182e+02
-2.427599999999999909e+02
-4.021999999999999886e+01
4.363000000000000256e+01
-2.467000000000000171e+01
-8.490000000000000568e+01
2.292199999999999989e+02
8.701000000000000512e+01
-3.978999999999999915e+01
8.140000000000000568e+00
-6.795999999999999375e+01
-1.855000000000000071e+01
6.590000000000000568e+01
-2.376999999999999957e+01
1.033999999999999986e+01
-4.461999999999999744e+01
8.965000000000000568e+01
-9.429000000000000625e+01
-3.564999999999999858e+01
-7.331999999999999318e+01
4.340999999999999659e+01
-1.140400000000000063e+02
1.599000000000000021e+01
-1.769000000000000057e+02
5.757999999999999829e+01
4.730000000000000000e+02
-3.492799999999999727e+02
-4.264000000000000057e+01
2.430900000000000034e+02
6.324000000000000199e+01
4.028999999999999915e+01
3.520000000000000018e+00
-8.371999999999999886e+01
-9.879000000000000625e+01
-2.420900000000000034e+02
-1.710999999999999943e+01
4.690600000000000023e+02
3.517799999999999727e+02
-1.493300000000000125e+02
-1.207800000000000011e+02
-2.612000000000000099e+01
3.302000000000000313e+01
2.832999999999999829e+01
1.764000000000000057e+01
-8.537999999999999545e+01
-6.537000000000000455e+01
-5.640999999999999659e+01
7.690999999999999659e+01
-1.578300000000000125e+02
-1.034999999999999964e+01
1.247000000000000064e+01
9.054999999999999716e+01
9.828000000000000114e+01
-4.860999999999999943e+01
1.717000000000000171e+01
7.030000000000000249e+00
8.765999999999999659e+01
1.338100000000000023e+02
-1.057699999999999960e+02
-2.366200000000000045e+02
9.001000000000000512e+01
5.211999999999999744e+01
-2.980000000000000071e+01
-2.669000000000000128e+01
7.232999999999999829e+01
-2.003300000000000125e+02
2.198799999999999955e+02
9.668999999999999773e+01
-2.741399999999999864e+02
1.555000000000000071e+01
-6.998000000000000398e+01
4.650000000000000000e+01
1.654000000000000057e+02
-4.828999999999999915e+01
-1.536500000000000057e+02
2.520900000000000034e+02
-8.250000000000000000e+00
-4.899999999999999911e-01
-9.300000000000000711e+00
7.415999999999999659e+01
-8.443000000000000682e+01
-5.961999999999999744e+01
-4.397999999999999687e+01
5.838000000000000256e+01
7.450000000000000178e+00
-1.866000000000000014e+01
-7.700000000000000178e+00
1.909099999999999966e+02
8.849999999999999645e+00
-1.866100000000000136e+02
-4.385600000000000023e+02
7.290000000000000568e+01
2.267000000000000171e+01
3.860000000000000142e+01
2.390600000000000023e+02
-5.197999999999999687e+01
-2.318000000000000114e+02
4.092999999999999972e+01
-1.791000000000000014e+01
-3.524000000000000199e+01
3.953999999999999915e+01
5.061999999999999744e+01
1.350999999999999979e+01
2.419000000000000128e+01
6.121000000000000085e+01
7.832999999999999829e+01
-3.728000000000000114e+01
-1.385000000000000000e+02
-6.490000000000000568e+01
5.240000000000000213e+00
2.004499999999999886e+02
-6.843999999999999773e+01
-1.899399999999999977e+02
-1.036099999999999994e+02
1.301299999999999955e+02
-8.893000000000000682e+01
-1.391999999999999993e+01
2.810000000000000053e+00
-2.819999999999999840e+00
-7.780000000000000249e+00
1.985999999999999943e+01
-8.210000000000000853e+00
-1.955999999999999872e+01
-2.113100000000000023e+02
6.257999999999999829e+01
1.578000000000000114e+02
1.767999999999999972e+01
2.253000000000000114e+01
2.151299999999999955e+02
-2.790299999999999727e+02
-1.066299999999999955e+02
-2.187000000000000099e+01
1.300999999999999979e+01
8.990000000000000213e+00
1.992000000000000171e+01
-2.976999999999999957e+01
1.489000000000000057e+01
-5.019999999999999574e+00
5.910999999999999943e+01
-8.020000000000000284e+01
1.739999999999999858e+01
7.354000000000000625e+01
2.919000000000000128e+01
1.696100000000000136e+02
-1.827500000000000000e+02
3.085000000000000142e+01
3.392000000000000171e+01
4.453999999999999915e+01
8.368000000000000682e+01
-3.815999999999999659e+01
1.080000000000000071e+01
-1.804900000000000091e+02
-6.346999999999999886e+01
-7.000000000000000000e+00
4.410000000000000142e+00
2.558999999999999986e+01
2.310000000000000053e+00
-2.451999999999999957e+01
5.740000000000000213e+00
-1.691000000000000014e+01
2.473000000000000043e+01
-8.679999999999999716e+00
-1.173000000000000043e+01
1.507000000000000028e+01
1.053999999999999915e+01
-1.155000000000000071e+01
-9.089999999999999858e+00
-8.390000000000000568e+00
-5.071000000000000085e+01
-1.242699999999999960e+02
6.580000000000000071e+00
7.612000000000000455e+01
2.385500000000000114e+02
-2.031100000000000136e+02
-7.601000000000000512e+01
-2.401000000000000156e+01
2.351999999999999957e+01
1.669999999999999929e+00
-4.610000000000000320e+00
-4.620000000000000107e+00
1.637999999999999901e+01
1.310999999999999943e+01
2.617999999999999972e+01
-1.698000000000000043e+01
-5.724000000000000199e+01
-2.364000000000000057e+01
-3.582000000000000028e+01
8.137999999999999545e+01
4.113000000000000256e+01
2.466000000000000014e+01
-4.175999999999999801e+01
-1.850000000000000000e+01
-1.092399999999999949e+02
8.237000000000000455e+01
-5.521999999999999886e+01
-8.330000000000000071e+00
5.367000000000000171e+01
-6.315999999999999659e+01
-2.608999999999999986e+01
4.299999999999999933e-01
4.499000000000000199e+01
1.206299999999999955e+02
-2.623999999999999844e+01
-1.925000000000000000e+01
-5.774000000000000199e+01
-3.760999999999999943e+01
-1.574000000000000021e+01
-6.964000000000000057e+01
-1.694999999999999929e+01
4.509999999999999787e+00
-1.474000000000000021e+01
2.375000000000000000e+01
5.809000000000000341e+01
2.317000000000000171e+01
-6.784000000000000341e+01
-4.407999999999999829e+01
-1.147600000000000051e+02
-2.187999999999999901e+01
-1.254000000000000057e+02
-1.455399999999999920e+02
5.230000000000000426e+00
1.181000000000000050e+01
-2.223999999999999844e+01
2.769000000000000128e+01
-1.303999999999999915e+01
-3.171999999999999886e+01
2.220800000000000125e+02
7.651000000000000512e+01
1.578000000000000114e+02
2.739000000000000057e+01
2.708999999999999986e+01
5.459999999999999964e+00
-2.776000000000000156e+01
2.278000000000000114e+01
-9.980000000000000426e+00
1.112000000000000028e+02
8.545999999999999375e+01
4.549999999999999822e+00
-6.759999999999999787e+00
-1.971000000000000085e+01
4.554999999999999716e+01
2.514300000000000068e+02
-1.596699999999999875e+02
3.282000000000000028e+01
-6.221999999999999886e+01
-2.189999999999999947e+00
-7.656999999999999318e+01
-3.153999999999999915e+01
1.533999999999999986e+01
-5.139999999999999858e+01
5.732999999999999829e+01
-1.896299999999999955e+02
7.068999999999999773e+01
1.646399999999999864e+02
5.136999999999999744e+01
-3.689999999999999858e+01
-2.882999999999999829e+01
-3.879999999999999893e+00
9.887999999999999545e+01
-7.390000000000000568e+01
-6.859999999999999432e+01
1.757999999999999829e+01
-5.610000000000000320e+00
1.113400000000000034e+02
-1.939000000000000057e+01
1.216899999999999977e+02
6.428000000000000114e+01
2.617500000000000000e+02
-2.694300000000000068e+02
-4.444100000000000250e+02
2.808399999999999750e+02
2.067999999999999972e+01
1.084300000000000068e+02
-1.059000000000000057e+02
4.804999999999999716e+01
-3.596000000000000085e+01
-8.112000000000000455e+01
1.851200000000000045e+02
-3.974000000000000199e+01
7.348000000000000398e+01
2.282999999999999829e+01
-7.014000000000000057e+01
4.403000000000000114e+01
2.592000000000000171e+01
-1.350999999999999943e+02
1.411200000000000045e+02
-2.725000000000000000e+01
1.851999999999999957e+01
-3.971000000000000085e+01
1.233999999999999986e+01
-8.043999999999999773e+01
2.485000000000000142e+01
-5.990999999999999659e+01
2.438100000000000023e+02
4.888000000000000256e+01
-8.118999999999999773e+01
4.639999999999999680e+00
2.005999999999999872e+01
5.185999999999999943e+01
-2.071399999999999864e+02
-8.200000000000000000e+01
1.885999999999999943e+02
2.132000000000000028e+01
-6.124000000000000199e+01
6.923999999999999488e+01
-2.629499999999999886e+02
-2.010999999999999943e+01
-1.183999999999999986e+01
2.989000000000000057e+01
-4.296999999999999886e+01
1.630000000000000000e+02
3.162999999999999901e+01
6.412999999999999545e+01
-2.182999999999999829e+01
3.650999999999999801e+01
9.509000000000000341e+01
2.492000000000000171e+01
4.122999999999999687e+01
-1.562400000000000091e+02
-2.051000000000000156e+01
5.114000000000000057e+01
2.862999999999999901e+01
2.610999999999999943e+01
-4.479999999999999716e+01
-1.466699999999999875e+02
-1.237399999999999949e+02
-2.764000000000000057e+01
1.109099999999999966e+02
4.221999999999999886e+01
-2.316000000000000014e+01
-1.219999999999999929e+01
6.040999999999999659e+01
-3.196999999999999886e+01
-1.550300000000000011e+02
2.378499999999999943e+02
-4.668999999999999773e+01
-1.338899999999999864e+02
1.210900000000000034e+02
-7.980000000000000426e+00
1.052999999999999936e+01
-8.873000000000000398e+01
-1.299099999999999966e+02
6.670000000000000284e+01
1.088799999999999955e+02
-5.553000000000000114e+01
-2.889000000000000057e+01
9.418999999999999773e+01
-4.828000000000000114e+01
4.860000000000000320e+00
1.764900000000000091e+02
-3.020199999999999818e+02
-6.581000000000000227e+01
-5.559999999999999609e+00
-1.092699999999999960e+02
1.175799999999999983e+02
2.369000000000000128e+01
1.669600000000000080e+02
1.785900000000000034e+02
-2.595299999999999727e+02
-7.848999999999999488e+01
1.673700000000000045e+02
-2.021999999999999886e+01
-1.334399999999999977e+02
-1.686200000000000045e+02
-1.120000000000000000e+02
1.837500000000000000e+02
1.198599999999999994e+02
-2.709999999999999964e+00
5.678000000000000114e+01
-1.444999999999999929e+01
-7.809999999999999609e+00
4.500000000000000000e+00
3.442999999999999972e+01
7.349999999999999645e+00
2.141000000000000014e+01
-3.535000000000000142e+01
1.866299999999999955e+02
3.003000000000000114e+01
-8.700000000000000000e+01
-7.248999999999999488e+01
-1.896000000000000085e+01
2.944000000000000128e+01
6.169999999999999929e+00
9.834000000000000341e+01
2.312999999999999901e+01
-2.525000000000000000e+01
3.907999999999999829e+01
-6.017999999999999972e+01
-1.126299999999999955e+02
3.536200000000000045e+02
2.059799999999999898e+02
-2.613600000000000136e+02
8.915999999999999659e+01
-1.160000000000000000e+02
4.842000000000000171e+01
-4.282000000000000028e+01
8.603000000000000114e+01
5.785000000000000142e+01
-8.851000000000000512e+01
-6.817000000000000171e+01
2.771999999999999886e+01
1.285999999999999943e+01
2.339999999999999858e+01
4.314999999999999858e+01
-2.750000000000000000e+01
2.196999999999999886e+01
-7.028000000000000114e+01
4.532000000000000028e+01
-5.432999999999999829e+01
9.695000000000000284e+01
-2.685000000000000142e+01
2.682999999999999829e+01
-2.324000000000000057e+02
-9.704999999999999716e+01
4.539000000000000057e+01
-6.706999999999999318e+01
3.937699999999999818e+02
-1.674399999999999977e+02
-1.316599999999999966e+02
2.221500000000000057e+02
4.357000000000000028e+01
-1.293600000000000136e+02
8.596999999999999886e+01
1.964000000000000057e+01
-2.555999999999999872e+01
3.499999999999999778e-01
-2.294000000000000128e+01
-1.835000000000000000e+02
-5.002000000000000313e+01
3.450000000000000000e+01
-6.089999999999999858e+01
-9.093999999999999773e+01
1.789000000000000057e+01
5.059999999999999609e+00
-8.337000000000000455e+01
1.164099999999999966e+02
9.587000000000000455e+01
4.968999999999999773e+01
1.107000000000000028e+01
-1.977500000000000000e+02
-1.598199999999999932e+02
2.223000000000000043e+01
-6.469999999999999751e+00
1.080100000000000051e+02
-2.498000000000000043e+01
-1.566999999999999993e+01
-5.478999999999999915e+01
-3.871999999999999886e+01
-1.955200000000000102e+02
-3.035999999999999943e+01
4.865299999999999727e+02
1.770000000000000018e+00
2.175000000000000000e+01
-1.541000000000000014e+01
-2.453000000000000114e+02
4.939999999999999858e+01
-4.924000000000000199e+01
-5.559999999999999609e+00
-5.570000000000000284e+00
-1.522000000000000064e+01
1.635000000000000142e+01
-9.865999999999999659e+01
1.075499999999999972e+02
1.209500000000000028e+02
-9.481000000000000227e+01
-9.859999999999999432e+00
1.038000000000000078e+01
1.430800000000000125e+02
-1.253299999999999983e+02
-3.889000000000000057e+01
-1.539000000000000057e+01
7.031000000000000227e+01
-9.550000000000000000e+01
-6.270000000000000284e+01
1.373799999999999955e+02
1.532400000000000091e+02
-1.704199999999999875e+02
3.414999999999999858e+01
-1.339699999999999989e+02
7.806999999999999318e+01
6.096999999999999886e+01
-4.249000000000000199e+01
-1.465000000000000036e+01
-1.883700000000000045e+02
6.839999999999999858e+00
1.140000000000000036e+01
2.168100000000000023e+02
3.568999999999999773e+01
1.810200000000000102e+02
-2.013300000000000125e+02
-2.205600000000000023e+02
1.848100000000000023e+02
-8.584999999999999432e+01
2.092199999999999989e+02
1.355399999999999920e+02
-3.090899999999999750e+02
-1.157999999999999972e+02
-4.692000000000000171e+01
-1.839999999999999858e+01
4.131000000000000227e+01
-1.326999999999999957e+01
9.951999999999999602e+01
-3.521000000000000085e+01
-4.839999999999999858e+00
-1.352999999999999936e+01
9.342000000000000171e+01
3.869300000000000068e+02
-1.976999999999999957e+01
-3.475799999999999841e+02
8.057999999999999829e+01
1.888100000000000023e+02
-5.385000000000000142e+01
-1.535600000000000023e+02
-5.421000000000000085e+01
-3.322999999999999687e+01
2.590099999999999909e+02
1.000000000000000056e-01
-8.998000000000000398e+01
-1.532000000000000028e+01
5.129999999999999893e+00
-2.200000000000000011e-01
-4.000000000000000083e-02
1.027199999999999989e+02
-5.889999999999999680e+00
-9.290999999999999659e+01
3.468999999999999773e+01
-1.840000000000000080e+00
3.169999999999999929e+00
1.642000000000000171e+01
3.647999999999999687e+01
8.160000000000000142e+00
-2.073400000000000034e+02
8.800000000000000044e-01
8.806999999999999318e+01
4.804999999999999716e+01
6.118999999999999773e+01
-9.796999999999999886e+01
7.295000000000000284e+01
-4.814999999999999858e+01
2.289999999999999858e+01
-8.887000000000000455e+01
1.201700000000000017e+02
5.910999999999999943e+01
-6.856000000000000227e+01
-7.231000000000000227e+01
7.350000000000000000e+01
2.057000000000000028e+01
-1.253999999999999915e+01
4.660000000000000142e+00
-5.372999999999999687e+01
4.039000000000000057e+01
4.939999999999999858e+01
-3.001999999999999957e+01
-3.167000000000000171e+01
2.835999999999999943e+01
-3.328999999999999915e+01
-1.251299999999999955e+02
1.907599999999999909e+02
-2.551999999999999957e+01
-7.768000000000000682e+01
6.010999999999999943e+01
5.006000000000000227e+01
3.788000000000000256e+01
-4.361999999999999744e+01
-1.597000000000000064e+01
4.043999999999999773e+01
5.360000000000000142e+01
-1.776999999999999957e+01
-1.552999999999999936e+01
-6.489000000000000057e+01
-4.585999999999999943e+01
-3.132000000000000028e+01
-4.268999999999999773e+01
-4.629999999999999716e+01
5.432000000000000028e+01
9.332999999999999829e+01
2.945000000000000000e+02
-4.256000000000000227e+01
-5.431000000000000227e+01
-3.517000000000000171e+01
-7.519999999999999574e+00
2.642000000000000171e+01
-3.517999999999999972e+01
-1.755999999999999872e+01
2.446000000000000085e+01
-4.157999999999999829e+01
-7.809999999999999609e+00
-3.517999999999999972e+01
2.543000000000000114e+02
-1.089000000000000057e+01
-1.102999999999999936e+01
-4.254999999999999716e+01
-4.784000000000000341e+01
1.600000000000000089e+00
1.174000000000000021e+01
-8.921999999999999886e+01
2.685999999999999943e+01
3.846999999999999886e+01
-2.383999999999999986e+01
-1.275000000000000000e+01
1.980000000000000071e+01
-1.060999999999999943e+01
-1.447000000000000064e+01
2.021999999999999886e+01
1.735500000000000114e+02
1.004200000000000017e+02
-1.174500000000000028e+02
-5.077000000000000313e+01
4.536999999999999744e+01
-8.562000000000000455e+01
-4.228000000000000114e+01
1.573799999999999955e+02
2.580999999999999872e+01
-6.790000000000000568e+01
1.505000000000000071e+01
-1.275000000000000000e+01
2.560000000000000053e+00
7.709999999999999964e+00
3.083999999999999986e+01
4.769999999999999574e+00
-4.589999999999999858e+01
-2.910000000000000142e+01
-3.069999999999999840e+00
1.825000000000000000e+01
-2.330000000000000071e+01
-3.950000000000000178e+00
-7.360999999999999943e+01
5.256000000000000227e+01
6.039999999999999858e+01
-4.821000000000000085e+01
2.540000000000000036e+00
8.868000000000000682e+01
-1.535999999999999943e+01
-3.757699999999999818e+02
-6.639999999999999680e+00
3.144599999999999795e+02
-1.070799999999999983e+02
-1.330000000000000000e+02
1.177399999999999949e+02
3.549999999999999822e+00
-7.600000000000000089e-01
-3.782999999999999829e+01
-3.023000000000000043e+01
6.100999999999999801e+01
6.592000000000000171e+01
1.337800000000000011e+02
1.867999999999999972e+01
-7.192000000000000171e+01
2.433300000000000125e+02
-1.748799999999999955e+02
1.695900000000000034e+02
-1.784600000000000080e+02
-1.571999999999999886e+02
-8.100000000000000533e-01
7.053000000000000114e+01
-3.889999999999999858e+01
-2.483999999999999986e+01
-7.217000000000000171e+01
-2.796999999999999886e+01
5.372999999999999687e+01
1.671299999999999955e+02
-3.322999999999999687e+01
-5.010000000000000142e+01
1.263000000000000078e+01
6.929999999999999716e+00
-2.705000000000000071e+01
4.384000000000000341e+01
-3.325000000000000000e+01
-1.695200000000000102e+02
1.946699999999999875e+02
1.075100000000000051e+02
3.559000000000000341e+01
-1.845900000000000034e+02
1.260000000000000009e+00
1.218499999999999943e+02
-4.825999999999999801e+01
-1.432000000000000028e+01
8.376999999999999602e+01
2.669999999999999929e+00
-4.282999999999999829e+01
-4.469999999999999751e+00
-4.254999999999999716e+01
-2.267899999999999920e+02
1.887100000000000080e+02
1.090999999999999943e+02
3.096000000000000085e+01
8.018999999999999773e+01
-1.688499999999999943e+02
1.177900000000000063e+02
8.337000000000000455e+01
-6.498999999999999488e+01
-5.742000000000000171e+01
-9.689999999999999503e+00
-4.527000000000000313e+01
-1.653000000000000114e+01
9.937999999999999545e+01
-2.412000000000000099e+01
-2.923000000000000043e+01
-2.358999999999999986e+01
3.703000000000000114e+01
-1.516000000000000014e+01
-1.360000000000000098e+00
2.812000000000000099e+01
8.390000000000000568e+00
-3.978000000000000114e+01
3.232000000000000028e+01
-3.424000000000000199e+01
8.470000000000000639e+00
3.611999999999999744e+01
3.832000000000000028e+01
1.708999999999999986e+01
3.604999999999999716e+01
-4.780000000000000249e+00
-2.421999999999999886e+01
2.696000000000000085e+01
2.257999999999999829e+01
-3.540000000000000036e+00
8.589999999999999858e+00
2.049999999999999822e+00
-1.307199999999999989e+02
1.359399999999999977e+02
-1.008400000000000034e+02
6.300999999999999801e+01
-1.009899999999999949e+02
1.940800000000000125e+02
2.073999999999999844e+01
-3.236999999999999744e+01
7.610000000000000320e+00
3.990000000000000213e+00
2.459999999999999964e+00
4.750000000000000000e+01
7.451999999999999602e+01
-1.502299999999999898e+02
-9.693000000000000682e+01
2.392000000000000171e+01
-1.206000000000000050e+01
6.000000000000000000e+00
9.098999999999999488e+01
2.798000000000000043e+01
-9.621999999999999886e+01
-2.096999999999999886e+01
4.089000000000000057e+01
4.642999999999999972e+01
5.752000000000000313e+01
-1.720999999999999943e+02
-5.289999999999999858e+01
-2.469000000000000128e+01
-8.276999999999999602e+01
6.582999999999999829e+01
1.331500000000000057e+02
-1.676299999999999955e+02
1.844999999999999929e+01
5.160000000000000142e+00
2.970000000000000195e+00
-6.581999999999999318e+01
-1.300000000000000044e+00
3.561999999999999744e+01
-4.296000000000000085e+01
-6.650000000000000000e+01
8.854999999999999716e+01
2.850400000000000205e+02
-4.596000000000000085e+01
-2.652099999999999795e+02
-2.361299999999999955e+02
4.432000000000000028e+01
9.854999999999999716e+01
1.305800000000000125e+02
-7.910999999999999943e+01
4.975000000000000000e+01
3.634000000000000341e+01
-6.102000000000000313e+01
2.250000000000000000e+00
5.563000000000000256e+01
1.439000000000000057e+01
-1.217699999999999960e+02
-8.056999999999999318e+01
-2.980000000000000000e+02
7.429999999999999716e+00
-6.868000000000000682e+01
2.480999999999999872e+01
4.549300000000000068e+02
-2.439999999999999858e+01
-3.509399999999999977e+02
1.749099999999999966e+02
1.258700000000000045e+02
6.111499999999999773e+02
-3.271600000000000250e+02
-8.090000000000000568e+01
5.607999999999999829e+01
-3.187000000000000099e+01
3.589999999999999858e+00
-7.164000000000000057e+01
5.372999999999999687e+01
-9.020999999999999375e+01
-3.108999999999999986e+01
8.170999999999999375e+01
8.290000000000000568e+01
-1.527899999999999920e+02
-1.339000000000000057e+01
-2.156100000000000136e+02
1.101099999999999994e+02
7.329000000000000625e+01
-2.479999999999999982e+00
9.554999999999999716e+01
-1.127399999999999949e+02
2.148000000000000043e+01
2.687000000000000099e+01
1.097500000000000000e+02
5.253999999999999915e+01
-1.016800000000000068e+02
-2.214999999999999858e+01
-1.256000000000000050e+01
-7.315000000000000568e+01
7.343999999999999773e+01
7.740999999999999659e+01
-3.567999999999999972e+01
3.371999999999999886e+01
2.680000000000000160e+00
-8.330000000000000071e+00
3.453000000000000114e+01
6.009999999999999787e+00
1.860000000000000098e+00
1.549000000000000021e+01
8.869999999999999218e+00
-4.217000000000000171e+01
-2.230999999999999872e+01
-6.300000000000000044e-01
1.235799999999999983e+02
-5.564999999999999858e+01
1.216000000000000014e+01
-1.559900000000000091e+02
2.716000000000000014e+01
-3.490999999999999659e+01
2.233999999999999986e+01
5.578999999999999915e+01
-3.041000000000000014e+01
-2.070500000000000114e+02
-1.090000000000000080e+00
1.778899999999999864e+02
1.260799999999999983e+02
-1.546000000000000085e+01
-2.453999999999999915e+01
7.549999999999999822e+00
-3.062999999999999901e+01
1.726999999999999957e+01
-1.755999999999999872e+01
1.032000000000000028e+01
3.080000000000000071e+01
-5.639000000000000057e+01
4.974000000000000199e+01
1.880999999999999872e+01
-1.166999999999999993e+01
-3.954999999999999716e+01
-2.537000000000000099e+01
-2.905999999999999872e+01
-4.239999999999999858e+01
-1.978799999999999955e+02
1.209200000000000017e+02
8.456000000000000227e+01
-6.386999999999999744e+01
1.058999999999999986e+01
-6.306000000000000227e+01
7.801000000000000512e+01
1.318000000000000114e+02
6.053000000000000114e+01
-2.324099999999999966e+02
-3.965999999999999659e+01
-2.139000000000000057e+02
1.705399999999999920e+02
8.784999999999999432e+01
8.070000000000000284e+00
-6.190000000000000391e+00
-2.559699999999999989e+02
-2.414799999999999898e+02
1.167500000000000000e+02
1.417800000000000011e+02
-6.107999999999999829e+01
-9.740999999999999659e+01
8.029999999999999361e+00
8.417000000000000171e+01
5.431000000000000227e+01
2.109499999999999886e+02
-2.715899999999999750e+02
-2.858999999999999986e+01
-2.905999999999999872e+01
1.639000000000000057e+01
3.399000000000000199e+01
4.727000000000000313e+01
1.000000000000000000e+00
-9.457999999999999829e+01
-9.309999999999999432e+01
5.285999999999999943e+01
2.325000000000000000e+01
-1.228400000000000034e+02
-5.677000000000000313e+01
1.137800000000000011e+02
1.077099999999999937e+02
-3.499000000000000199e+01
-3.363600000000000136e+02
1.564699999999999989e+02
9.345000000000000284e+01
-2.293000000000000114e+02
-6.412000000000000455e+01
-1.065100000000000051e+02
-4.150999999999999801e+01
4.879999999999999893e+00
-2.608999999999999986e+01
-1.085999999999999943e+01
-3.942999999999999972e+01
1.465000000000000036e+01
-1.486999999999999922e+01
-3.479999999999999982e+00
-7.204999999999999716e+01
2.801299999999999955e+02
-6.164000000000000057e+01
4.656000000000000227e+01
2.539000000000000057e+01
4.110999999999999943e+01
-1.745200000000000102e+02
1.018900000000000006e+02
4.575999999999999801e+01
-6.057999999999999829e+01
1.209000000000000057e+02
-1.196500000000000057e+02
9.095000000000000284e+01
-3.789999999999999858e+01
-4.127000000000000313e+01
4.520000000000000284e+01
1.872299999999999898e+02
-9.243000000000000682e+01
-2.119799999999999898e+02
2.420900000000000034e+02
-5.146999999999999886e+01
-1.994999999999999929e+01
4.074000000000000199e+01
-3.627000000000000313e+01
5.692999999999999972e+01
-8.619999999999999218e+00
2.729999999999999982e+00
-1.535999999999999943e+01
3.432999999999999829e+01
-2.355000000000000071e+01
-1.939999999999999858e+01
-6.030000000000000249e+00
-6.509000000000000341e+01
9.792000000000000171e+01
-1.194999999999999929e+01
1.751000000000000156e+01
2.876999999999999957e+01
-7.076999999999999602e+01
5.200000000000000178e-01
-4.374000000000000199e+01
1.966299999999999955e+02
-7.159000000000000341e+01
-5.342000000000000171e+01
-6.935999999999999943e+01
8.320999999999999375e+01
3.689999999999999947e+00
4.910000000000000142e+01
-3.534000000000000341e+01
1.658899999999999864e+02
-2.126999999999999957e+01
-5.775999999999999801e+01
9.940000000000000568e+01
-3.282000000000000028e+01
-1.419000000000000057e+02
6.820000000000000284e+00
1.168400000000000034e+02
-7.437999999999999545e+01
3.843999999999999773e+01
-1.821200000000000045e+02
-5.221999999999999886e+01
1.315099999999999909e+02
5.870000000000000284e+01
6.224000000000000199e+01
-3.106200000000000045e+02
7.198000000000000398e+01
1.372800000000000011e+02
-1.870399999999999920e+02
3.432999999999999829e+01
-6.939000000000000057e+01
2.175000000000000000e+02
-7.359000000000000341e+01
-1.533000000000000007e+01
-6.654999999999999716e+01
3.490999999999999659e+01
-3.196999999999999886e+01
5.409000000000000341e+01
-3.649999999999999911e+00
3.076999999999999957e+01
-7.164000000000000057e+01
1.033199999999999932e+02
5.271999999999999886e+01
-4.635699999999999932e+02
4.298399999999999750e+02
2.235800000000000125e+02
-5.791200000000000045e+02
1.855999999999999943e+02
2.474699999999999989e+02
1.800500000000000114e+02
-2.439999999999999947e+00
-8.443999999999999773e+01
-2.421999999999999886e+02
2.250800000000000125e+02
5.206000000000000227e+01
-1.751599999999999966e+02
-6.806000000000000227e+01
2.587000000000000099e+01
1.335500000000000114e+02
-1.248400000000000034e+02
2.012000000000000099e+01
2.812000000000000099e+01
-2.790400000000000205e+02
-6.500000000000000000e+00
1.702299999999999898e+02
2.979999999999999982e+00
-3.682999999999999829e+01
5.700000000000000178e+00
2.260999999999999943e+01
2.914999999999999858e+01
-2.687000000000000099e+01
-4.422999999999999687e+01
-1.719799999999999898e+02
1.067900000000000063e+02
-1.573899999999999864e+02
2.182999999999999829e+01
1.109099999999999966e+02
1.980999999999999872e+01
-1.658999999999999986e+01
-1.544099999999999966e+02
1.066500000000000057e+02
2.836299999999999955e+02
8.704999999999999716e+01
-1.338300000000000125e+02
2.062999999999999901e+01
3.902000000000000313e+01
-1.460999999999999943e+01
6.157999999999999829e+01
-1.159800000000000040e+02
-6.554999999999999716e+01
1.434699999999999989e+02
6.648000000000000398e+01
3.389999999999999858e+01
-2.584100000000000250e+02
-1.305000000000000071e+01
1.107199999999999989e+02
-2.419999999999999929e+00
-9.009999999999999787e+00
2.850000000000000089e+00
-1.010000000000000009e+00
-1.374000000000000021e+01
2.142999999999999972e+01
-4.161999999999999744e+01
-2.351000000000000156e+01
1.694300000000000068e+02
2.389000000000000057e+01
-2.978299999999999841e+02
-4.192000000000000171e+01
-3.486999999999999744e+01
8.359999999999999432e+00
1.791000000000000014e+01
1.661200000000000045e+02
-3.307900000000000205e+02
7.651000000000000512e+01
1.079500000000000028e+02
-9.917000000000000171e+01
-9.968000000000000682e+01
2.497100000000000080e+02
1.052399999999999949e+02
-7.748999999999999488e+01
-1.666500000000000057e+02
-6.293999999999999773e+01
-1.261299999999999955e+02
1.943499999999999943e+02
-1.058000000000000007e+01
-9.182999999999999829e+01
-3.635000000000000142e+01
-2.167400000000000091e+02
2.735199999999999818e+02
2.137999999999999901e+01
-1.589000000000000057e+02
-1.304600000000000080e+02
-9.037999999999999545e+01
2.065300000000000011e+02
3.543999999999999773e+01
-4.102000000000000313e+01
-3.029900000000000091e+02
2.005900000000000034e+02
2.715099999999999909e+02
7.009000000000000341e+01
-3.096299999999999955e+02
-2.346800000000000068e+02
3.832000000000000028e+01
3.571000000000000227e+02
1.147999999999999972e+02
-1.796299999999999955e+02
5.370000000000000284e+01
-2.810000000000000000e+02
-1.746000000000000085e+01
1.209500000000000028e+02
1.482199999999999989e+02
-4.053999999999999915e+01
-2.599200000000000159e+02
2.171699999999999875e+02
6.520000000000000284e+01
7.564000000000000057e+01
-5.589000000000000057e+01
-1.250100000000000051e+02
-2.630500000000000114e+02
-6.106000000000000227e+01
1.723999999999999844e+01
1.039000000000000057e+02
5.153000000000000114e+01
-8.145000000000000284e+01
1.078400000000000034e+02
2.654599999999999795e+02
-9.237000000000000455e+01
-4.357000000000000028e+01
2.194999999999999929e+01
3.347999999999999687e+01
-6.339999999999999858e+01
-8.250000000000000000e+00
-5.192000000000000171e+01
7.476999999999999602e+01
2.039999999999999858e+01
-9.509000000000000341e+01
-1.173000000000000043e+01
8.949999999999999289e+00
-2.653000000000000114e+01
3.570000000000000284e+01
9.699999999999999734e-01
-9.369999999999999218e+00
2.492999999999999972e+01
-3.392000000000000171e+01
9.119999999999999218e+00
4.093999999999999773e+01
2.182000000000000028e+01
-4.239999999999999858e+01
1.271000000000000085e+01
-1.125999999999999979e+01
-1.255000000000000071e+01
5.490000000000000213e+00
9.279999999999999361e+00
-7.769999999999999574e+00
6.253000000000000114e+01
1.074000000000000021e+01
-5.450999999999999801e+01
3.497999999999999687e+01
1.108000000000000007e+01
-4.389999999999999858e+01
-1.132000000000000028e+01
-2.780999999999999872e+01
-1.032900000000000063e+02
6.470000000000000284e+01
6.803000000000000114e+01
3.800000000000000044e-01
-3.148999999999999844e+01
-1.675000000000000000e+01
-2.596999999999999886e+01
2.900000000000000000e+01
-4.574000000000000199e+01
-1.119999999999999929e+01
1.293999999999999950e+01
-2.951999999999999957e+01
-1.676000000000000156e+01
2.660000000000000142e+00
1.302999999999999936e+01
-4.190000000000000391e+00
-8.449999999999999289e+00
-2.121000000000000085e+01
1.923000000000000043e+01
-6.809999999999999609e+00
-3.330000000000000071e+00
-3.970000000000000284e+01
-2.976999999999999957e+01
5.595000000000000284e+01
6.556000000000000227e+01
-3.232999999999999829e+01
-2.301999999999999957e+01
1.155000000000000071e+01
1.239000000000000057e+01
-6.873999999999999488e+01
-2.039000000000000057e+01
-4.295000000000000284e+01
-1.771000000000000085e+01
5.525000000000000000e+01
2.351000000000000156e+01
6.580000000000000071e+00
8.689999999999999503e+00
5.610000000000000320e+00
-2.959999999999999964e+00
1.576999999999999957e+01
-7.151000000000000512e+01
4.220000000000000284e+01
-5.092999999999999972e+01
6.009999999999999787e+00
-1.432000000000000028e+01
9.660000000000000142e+00
2.067999999999999972e+01
-2.700000000000000178e+00
-5.588000000000000256e+01
-5.370000000000000107e+00
2.792000000000000171e+01
2.082999999999999829e+01
2.140000000000000124e+00
-1.723999999999999844e+01
9.880000000000000782e+00
4.821999999999999886e+01
-1.687999999999999901e+01
-4.152000000000000313e+01
-1.750000000000000000e+00
4.081000000000000227e+01
-2.276999999999999957e+01
-3.035999999999999943e+01
1.024000000000000021e+01
4.878000000000000114e+01
-1.335699999999999932e+02
1.016099999999999994e+02
3.903000000000000114e+01
-1.021800000000000068e+02
1.817800000000000011e+02
2.051999999999999957e+01
2.326999999999999957e+01
-4.532000000000000028e+01
7.669999999999999929e+00
1.248000000000000043e+01
-2.442999999999999972e+01
1.210999999999999943e+01
4.459999999999999964e+00
1.857999999999999829e+01
-6.030000000000000249e+00
-6.160000000000000142e+00
1.315000000000000036e+01
5.879999999999999893e+00
-4.549999999999999822e+00
-2.903999999999999915e+01
2.169000000000000128e+01
1.882999999999999829e+01
-1.354499999999999886e+02
2.014000000000000057e+01
-6.400000000000000133e-01
-2.378000000000000114e+01
5.406000000000000227e+01
8.304000000000000625e+01
-8.806999999999999318e+01
-2.032999999999999829e+01
2.900000000000000000e+01
2.057000000000000028e+01
4.179999999999999716e+00
1.987000000000000099e+01
2.996999999999999886e+01
-3.777000000000000313e+01
-8.401999999999999602e+01
5.269999999999999574e+00
5.629999999999999716e+01
6.340999999999999659e+01
5.070000000000000284e+00
-9.675000000000000000e+01
-1.306500000000000057e+02
2.037100000000000080e+02
1.078199999999999932e+02
-1.830500000000000114e+02
-1.168199999999999932e+02
-5.393999999999999773e+01
1.997100000000000080e+02
-1.190300000000000011e+02
5.657999999999999829e+01
-2.403999999999999915e+01
2.739999999999999858e+01
5.450000000000000178e+00
-2.794999999999999929e+01
6.743999999999999773e+01
1.483000000000000007e+01
-1.230799999999999983e+02
-8.612999999999999545e+01
3.462400000000000091e+02
9.720000000000000284e+01
-2.383999999999999986e+01
-1.505099999999999909e+02
-3.736999999999999744e+01
1.240499999999999972e+02
1.995900000000000034e+02
-3.523799999999999955e+02
6.739000000000000057e+01
2.137999999999999901e+01
-5.613000000000000256e+01
4.267999999999999972e+01
8.429999999999999716e+01
6.704000000000000625e+01
-2.987500000000000000e+02
4.817999999999999972e+01
8.421999999999999886e+01
4.757999999999999829e+01
-4.185999999999999943e+01
-2.067999999999999972e+01
4.968999999999999773e+01
2.030999999999999872e+01
1.591000000000000014e+01
-2.300000000000000000e+01
-4.861999999999999744e+01
9.929999999999999716e+00
5.257999999999999829e+01
-2.435999999999999943e+01
-4.310999999999999943e+01
1.552999999999999936e+01
-4.492000000000000171e+01
-1.385999999999999943e+01
1.281000000000000050e+01
5.346000000000000085e+01
-1.538000000000000078e+01
-1.820699999999999932e+02
8.154000000000000625e+01
-3.153999999999999915e+01
-1.034399999999999977e+02
1.345600000000000023e+02
-2.830999999999999872e+01
-5.496999999999999886e+01
1.944900000000000091e+02
-1.981599999999999966e+02
-1.209899999999999949e+02
8.270000000000000284e+01
1.631399999999999864e+02
4.160000000000000142e+00
2.380999999999999872e+01
-1.266099999999999994e+02
-3.429999999999999716e+01
-1.323899999999999864e+02
2.348000000000000043e+01
4.203999999999999915e+01
7.254999999999999716e+01
-9.826999999999999602e+01
-7.923000000000000398e+01
1.183000000000000007e+01
-1.220100000000000051e+02
-7.870000000000000107e+00
2.513799999999999955e+02
9.635999999999999943e+01
-1.500000000000000000e+01
3.080000000000000071e+00
-3.200000000000000178e+00
3.534000000000000341e+01
1.232600000000000051e+02
-9.487000000000000455e+01
-1.095999999999999943e+02
-1.692999999999999972e+01
-3.729999999999999982e+00
3.486999999999999744e+01
4.650999999999999801e+01
-4.971000000000000085e+01
3.098000000000000043e+01
-4.889999999999999680e+00
2.821000000000000085e+01
-2.428000000000000114e+01
-6.848999999999999488e+01
2.871999999999999886e+01
-6.990999999999999659e+01
1.027099999999999937e+02
7.590000000000000568e+01
-2.601000000000000156e+01
5.967999999999999972e+01
-5.728999999999999915e+01
-1.687000000000000099e+01
-2.605999999999999872e+01
2.541000000000000014e+01
9.890000000000000568e+00
3.446999999999999886e+01
-2.189000000000000057e+01
-4.482999999999999829e+01
4.096999999999999886e+01
2.794000000000000128e+01
2.394999999999999929e+01
3.620000000000000107e+00
1.614000000000000057e+01
-4.284000000000000341e+01
1.030000000000000027e+00
6.623000000000000398e+01
-2.530999999999999872e+01
-1.083999999999999986e+01
8.699999999999999289e+00
-2.303999999999999915e+01
6.489000000000000057e+01
-6.400000000000000133e-01
-7.065999999999999659e+01
8.570000000000000284e+00
1.257000000000000028e+01
2.109999999999999876e+00
-2.649999999999999911e+00
-3.182000000000000028e+01
-1.091000000000000014e+01
3.082999999999999829e+01
-4.919999999999999929e+00
-2.125000000000000000e+01
1.055000000000000071e+01
-5.200000000000000178e+00
2.498000000000000043e+01
-3.870000000000000107e+00
-3.069999999999999929e+01
1.508999999999999986e+01
4.969999999999999751e+00
1.739999999999999858e+01
1.100000000000000006e-01
-1.689000000000000057e+01
-1.855999999999999872e+01
2.671000000000000085e+01
-1.081000000000000050e+01
-3.970000000000000284e+01
6.410000000000000142e+00
1.573000000000000043e+01
4.281000000000000227e+01
-2.453999999999999915e+01
-1.914999999999999858e+01
-7.879999999999999893e+00
-5.699999999999999512e-01
4.361999999999999744e+01
1.110999999999999943e+01
1.842000000000000171e+01
-2.976999999999999957e+01
3.546000000000000085e+01
5.830000000000000071e+00
-3.660000000000000142e+01
-6.750000000000000000e+00
-2.185000000000000142e+01
2.742000000000000171e+01
1.056000000000000050e+01
-8.759999999999999787e+00
1.219999999999999929e+01
-3.930000000000000160e+00
3.342999999999999972e+01
-1.099000000000000021e+01
-3.048000000000000043e+01
-8.929999999999999716e+00
-1.280000000000000071e+01
-2.116000000000000014e+01
-5.582999999999999829e+01
2.133999999999999986e+01
2.889000000000000057e+01
2.860999999999999943e+01
-3.900999999999999801e+01
-5.920000000000000284e+01
4.184000000000000341e+01
7.860000000000000320e+00
2.789999999999999858e+01
-3.478999999999999915e+01
-5.561999999999999744e+01
5.614000000000000057e+01
6.643300000000000409e+02
-3.378899999999999864e+02
-1.183499999999999943e+02
2.773999999999999844e+01
1.380000000000000071e+01
1.038299999999999983e+02
2.996000000000000085e+01
4.307000000000000028e+01
6.217000000000000171e+01
-4.717000000000000171e+01
-1.607999999999999829e+01
-8.460999999999999943e+01
-5.000999999999999801e+01
2.103000000000000114e+01
3.600000000000000000e+01
2.051000000000000156e+01
-2.210999999999999943e+01
-8.789999999999999147e+00
-3.100000000000000089e+00
1.360999999999999943e+01
-2.844999999999999929e+01
4.625999999999999801e+01
2.864000000000000057e+01
-4.692999999999999972e+01
3.117000000000000171e+01
2.789000000000000057e+01
-1.338000000000000078e+01
4.000000000000000222e-01
-3.863000000000000256e+01
2.126999999999999957e+01
2.789999999999999858e+01
-1.098000000000000043e+01
5.700000000000000178e+00
-4.719999999999999751e+00
-3.028000000000000114e+01
2.687999999999999901e+01
-3.821999999999999886e+01
-4.290000000000000036e+00
-4.574000000000000199e+01
8.220000000000000639e+00
-3.370000000000000107e+00
-5.080000000000000071e+00
1.466000000000000014e+01
5.040000000000000036e+00
1.597000000000000064e+01
1.341000000000000014e+01
8.820000000000000284e+00
-3.335000000000000142e+01
1.596000000000000085e+01
-1.391000000000000014e+01
5.738000000000000256e+01
-2.470000000000000195e+00
1.900000000000000022e-01
1.600000000000000000e+01
-2.103999999999999915e+01
-1.489999999999999991e+00
-3.386999999999999744e+01
-1.352999999999999936e+01
5.040000000000000036e+00
1.326999999999999957e+01
1.149999999999999911e+00
2.857999999999999829e+01
-1.725000000000000000e+01
1.480000000000000071e+01
-8.560000000000000497e+00
-4.206000000000000227e+01
4.167999999999999972e+01
2.064999999999999858e+01
-5.617000000000000171e+01
4.739999999999999858e+01
-4.602000000000000313e+01
2.999999999999999889e-02
-7.450000000000000178e+00
-2.580999999999999872e+01
6.618999999999999773e+01
-1.484999999999999964e+01
1.033999999999999986e+01
-9.607999999999999829e+01
4.372999999999999687e+01
4.759999999999999787e+00
1.510000000000000009e+00
5.179999999999999716e+00
-1.541000000000000014e+01
-3.565999999999999659e+01
2.919000000000000128e+01
2.044000000000000128e+01
-5.400999999999999801e+01
5.017000000000000171e+01
7.009999999999999787e+00
2.112999999999999901e+01
-3.410000000000000142e+00
-4.975999999999999801e+01
-5.671000000000000085e+01
6.942000000000000171e+01
1.676999999999999957e+01
-1.257000000000000028e+01
-3.220000000000000195e+00
-1.010000000000000009e+00
1.066000000000000014e+01
-1.109999999999999964e+01
6.839999999999999858e+00
2.480999999999999872e+01
1.364000000000000057e+01
2.919999999999999929e+00
-2.837999999999999901e+01
9.179999999999999716e+00
-2.089999999999999858e+01
3.534000000000000341e+01
1.771999999999999886e+01
-2.583999999999999986e+01
3.879999999999999893e+00
-2.469000000000000128e+01
3.410999999999999943e+01
-1.333999999999999986e+01
-2.742000000000000171e+01
1.980000000000000071e+01
6.999999999999999556e-01
-2.557999999999999829e+01
-2.887000000000000099e+01
3.895000000000000284e+01
3.016000000000000014e+01
-1.507000000000000028e+01
-1.951999999999999957e+01
1.060999999999999943e+01
-5.600000000000000533e-01
-1.315000000000000036e+01
-1.332000000000000028e+01
-5.850000000000000000e+01
1.857000000000000028e+01
1.978999999999999915e+01
-3.635000000000000142e+01
5.275999999999999801e+01
2.000000000000000042e-02
-5.719999999999999751e+00
2.430000000000000160e+00
-3.817999999999999972e+01
-5.225999999999999801e+01
1.313000000000000078e+01
2.385999999999999943e+01
9.859999999999999432e+00
2.209999999999999964e+00
2.060000000000000053e+00
4.770000000000000284e+01
-2.428999999999999915e+01
-1.118999999999999950e+01
-6.460999999999999943e+01
-2.228999999999999915e+01
3.882000000000000028e+01
2.446000000000000085e+01
-1.355000000000000071e+01
-1.001200000000000045e+02
1.511999999999999922e+01
7.059999999999999609e+00
6.139999999999999680e+00
3.517000000000000171e+01
-4.459000000000000341e+01
2.017000000000000171e+01
2.399999999999999911e+00
-1.482000000000000028e+01
-1.946999999999999886e+01
2.950000000000000178e+00
2.560000000000000053e+00
-4.300999999999999801e+01
4.836999999999999744e+01
-2.870000000000000107e+00
1.234999999999999964e+01
3.249000000000000199e+01
-3.960999999999999943e+01
-1.164000000000000057e+01
1.096000000000000085e+01
-1.882000000000000028e+01
-2.137000000000000099e+01
4.050999999999999801e+01
-1.144999999999999929e+01
5.613000000000000256e+01
6.410000000000000142e+00
-3.139000000000000057e+01
-1.350200000000000102e+02
6.829999999999999716e+01
1.334999999999999964e+01
-5.174000000000000199e+01
2.875000000000000000e+01
-2.635000000000000142e+01
-1.889000000000000057e+01
1.726000000000000156e+01
-5.370000000000000107e+00
1.108000000000000007e+01
-1.628999999999999915e+01
-9.490000000000000213e+00
-1.191999999999999993e+01
8.689999999999999503e+00
-2.799999999999999822e+00
2.221999999999999886e+01
-1.491000000000000014e+01
1.851000000000000156e+01
-5.740000000000000213e+00
-2.808999999999999986e+01
2.219999999999999929e+01
-3.804999999999999716e+01
1.673999999999999844e+01
-5.413000000000000256e+01
3.055000000000000071e+01
1.419999999999999929e+01
-3.012999999999999901e+01
7.640999999999999659e+01
-1.671999999999999886e+01
-8.562999999999999545e+01
1.316000000000000014e+01
-1.642000000000000171e+01
-3.960000000000000142e+01
7.112000000000000455e+01
-1.218999999999999950e+01
-2.962000000000000099e+01
1.667999999999999972e+01
-3.589999999999999858e+00
-2.307000000000000028e+01
3.899999999999999911e+00
-3.069999999999999840e+00
2.017000000000000171e+01
-1.878999999999999915e+01
-9.070000000000000284e+01
1.367999999999999972e+01
2.523999999999999844e+01
3.636999999999999744e+01
1.348000000000000043e+01
5.610999999999999943e+01
-2.530999999999999872e+01
6.120000000000000107e+00
-4.502000000000000313e+01
7.643000000000000682e+01
-6.623000000000000398e+01
-3.361999999999999744e+01
2.382999999999999829e+01
1.230000000000000071e+01
-1.862999999999999901e+01
1.616000000000000014e+01
6.196999999999999886e+01
5.257999999999999829e+01
1.300000000000000044e+00
-3.670000000000000284e+01
9.200000000000000400e-01
-7.839000000000000057e+01
1.116999999999999993e+01
2.255000000000000071e+01
-1.336999999999999922e+01
1.156000000000000050e+01
1.542999999999999972e+01
3.050000000000000000e+01
-8.160000000000000142e+00
2.251000000000000156e+01
-1.700000000000000122e-01
2.107000000000000028e+01
-4.621000000000000085e+01
3.282000000000000028e+01
-8.979000000000000625e+01
6.386999999999999744e+01
-3.264000000000000057e+01
-3.317999999999999972e+01
1.701000000000000156e+01
-3.210000000000000142e+01
4.045000000000000284e+01
-4.600000000000000200e-01
-3.579999999999999716e+01
8.169999999999999929e+00
3.768999999999999773e+01
3.180999999999999872e+01
-9.998999999999999488e+01
9.831000000000000227e+01
1.455000000000000071e+01
-2.214999999999999858e+01
7.440000000000000391e+00
-3.431000000000000227e+01
-2.487999999999999901e+01
2.967999999999999972e+01
3.799999999999999822e+00
-3.529999999999999805e+00
-3.967999999999999972e+01
-2.471999999999999886e+01
1.163000000000000078e+01
3.000000000000000000e+00
-1.603999999999999915e+01
-7.414000000000000057e+01
2.719000000000000128e+01
2.364999999999999858e+01
2.540000000000000036e+00
9.109999999999999432e+00
-3.728000000000000114e+01
1.000000000000000000e+00
6.320000000000000284e+00
-3.646999999999999886e+01
-3.897999999999999687e+01
2.621999999999999886e+01
-5.150000000000000355e+00
-4.021000000000000085e+01
5.011999999999999744e+01
-9.769999999999999574e+00
4.160000000000000142e+00
2.267999999999999972e+01
2.390000000000000124e+00
-5.182999999999999829e+01
-2.879999999999999893e+00
2.901999999999999957e+01
-2.869000000000000128e+01
7.490999999999999659e+01
2.925000000000000000e+01
-3.522999999999999687e+01
8.919999999999999929e+00
-4.211999999999999744e+01
-3.950000000000000000e+01
4.384000000000000341e+01
2.282999999999999829e+01
1.469999999999999973e+00
-3.839999999999999858e+00
-1.531000000000000050e+01
3.139999999999999858e+01
-3.725999999999999801e+01
4.290000000000000036e+00
-2.544999999999999929e+01
3.790999999999999659e+01
4.097999999999999687e+01
-2.839999999999999858e+01
-1.660999999999999943e+01
5.899999999999999689e-01
1.964999999999999858e+01
9.880000000000000782e+00
-1.054300000000000068e+02
1.616000000000000014e+01
1.281000000000000050e+01
-2.810000000000000142e+01
-1.085999999999999943e+01
3.950000000000000000e+01
4.853000000000000114e+01
1.110999999999999943e+01
-4.497999999999999687e+01
-4.510999999999999943e+01
1.367999999999999972e+01
4.814000000000000057e+01
2.537999999999999901e+01
-9.939999999999999503e+00
-3.953000000000000114e+01
-3.025000000000000000e+01
4.150000000000000000e+01
1.333000000000000007e+01
-3.700999999999999801e+01
-1.732000000000000028e+01
-2.419999999999999929e+00
1.935999999999999943e+01
-3.714999999999999858e+01
3.603999999999999915e+01
-2.450000000000000178e+00
-3.902000000000000313e+01
1.862999999999999901e+01
-5.613000000000000256e+01
-2.878999999999999915e+01
5.778999999999999915e+01
-3.620000000000000107e+00
3.657000000000000028e+01
-1.153900000000000006e+02
-1.276999999999999957e+01
7.309999999999999609e+00
-2.114999999999999858e+01
-2.019999999999999929e+01
7.199999999999999734e-01
4.795000000000000284e+01
2.900000000000000000e+01
-3.225999999999999801e+01
1.100699999999999932e+02
-4.085999999999999943e+01
9.380000000000000782e+00
7.049999999999999822e+00
-4.386999999999999744e+01
-7.076000000000000512e+01
3.389999999999999858e+01
5.488000000000000256e+01
-3.915999999999999659e+01
2.160999999999999943e+01
-3.592999999999999972e+01
1.190000000000000036e+01
1.800000000000000044e+00
-3.952000000000000313e+01
1.513000000000000078e+01
2.620000000000000107e+00
-2.839999999999999858e+00
-2.867999999999999972e+01
-4.757000000000000028e+01
1.630999999999999872e+01
2.742999999999999972e+01
-1.569999999999999929e+01
1.355000000000000071e+01
-3.173000000000000043e+01
1.226999999999999957e+01
-2.720000000000000195e+00
1.153999999999999915e+01
1.149000000000000021e+01
-1.791000000000000014e+01
3.850000000000000089e+00
-7.709000000000000341e+01
5.967999999999999972e+01
-1.726999999999999957e+01
1.478999999999999915e+01
2.735999999999999943e+01
-1.860000000000000142e+01
-1.042999999999999972e+01
-6.150000000000000355e+00
5.480000000000000426e+00
-3.604999999999999716e+01
5.482999999999999829e+01
6.709999999999999964e+00
-4.109000000000000341e+01
4.165999999999999659e+01
7.280000000000000249e+00
-3.680000000000000160e+00
1.025000000000000000e+01
-5.110000000000000320e+00
-2.883999999999999986e+01
-3.610999999999999943e+01
2.121000000000000085e+01
9.776000000000000512e+01
1.900000000000000000e+01
-1.325999999999999979e+01
-5.189999999999999858e+01
3.953999999999999915e+01
3.232999999999999829e+01
-3.521999999999999886e+01
6.480000000000000426e+00
-3.928000000000000114e+01
5.136999999999999744e+01
-4.150000000000000355e+00
-6.399000000000000199e+01
2.176999999999999957e+01
3.169000000000000128e+01
4.478999999999999915e+01
1.799999999999999933e-01
4.889999999999999680e+00
-2.080999999999999872e+01
7.929999999999999716e+00
-1.411999999999999922e+01
-2.567000000000000171e+01
2.035000000000000142e+01
-3.453000000000000114e+01
1.171000000000000085e+01
-2.259999999999999787e+00
-1.093999999999999950e+01
3.979999999999999982e+00
-8.299999999999999600e-01
5.440000000000000391e+00
-5.968999999999999773e+01
2.099799999999999898e+02
-1.348100000000000023e+02
-7.884000000000000341e+01
5.692999999999999972e+01
-7.837000000000000455e+01
8.419999999999999929e+00
-7.278000000000000114e+01
1.035300000000000011e+02
1.712999999999999901e+01
-1.044999999999999929e+01
1.139000000000000057e+02
1.617000000000000171e+01
7.353000000000000114e+01
-1.332199999999999989e+02
-6.400000000000000355e+00
2.203999999999999915e+01
1.646000000000000085e+01
1.437700000000000102e+02
8.723000000000000398e+01
-8.664000000000000057e+01
-1.689900000000000091e+02
-2.732000000000000028e+01
1.013700000000000045e+02
9.380000000000000782e+00
5.578999999999999915e+01
-3.560000000000000142e+01
4.589999999999999858e+00
2.723000000000000043e+01
3.620000000000000107e+00
4.077000000000000313e+01
2.800000000000000000e+01
-2.580999999999999872e+01
8.618999999999999773e+01
-2.123000000000000043e+01
-1.205499999999999972e+02
-8.179999999999999716e+00
5.296999999999999886e+01
4.929999999999999716e+00
2.964000000000000057e+01
-1.918499999999999943e+02
3.842000000000000171e+01
2.025000000000000000e+01
9.209000000000000341e+01
-2.628000000000000114e+01
2.096000000000000085e+01
-2.746999999999999886e+01
7.459999999999999964e+00
2.469000000000000128e+01
9.134999999999999432e+01
-1.000400000000000063e+02
-2.425600000000000023e+02
1.102900000000000063e+02
3.996000000000000085e+01
-1.094300000000000068e+02
3.319200000000000159e+02
-6.618000000000000682e+01
4.419999999999999929e+00
6.875000000000000000e+01
-1.381000000000000050e+01
-2.965299999999999727e+02
1.072099999999999937e+02
7.748999999999999488e+01
4.679999999999999716e+01
-5.514000000000000057e+01
9.217000000000000171e+01
-9.962999999999999545e+01
2.671000000000000085e+01
4.185000000000000142e+01
-1.050000000000000000e+01
7.665000000000000568e+01
-1.137199999999999989e+02
4.467999999999999972e+01
-3.503999999999999915e+01
-1.082699999999999960e+02
1.503499999999999943e+02
-5.200000000000000178e+00
6.653000000000000114e+01
-3.752000000000000313e+01
1.651999999999999957e+01
-2.392000000000000171e+01
-1.031899999999999977e+02
6.370000000000000107e+00
3.721999999999999886e+01
-8.269999999999999574e+00
4.292999999999999972e+01
1.269999999999999929e+01
5.349999999999999645e+00
-1.153999999999999915e+01
-1.358999999999999986e+01
2.521999999999999886e+01
-1.408999999999999986e+01
-1.159999999999999920e+00
-2.442000000000000171e+01
2.091000000000000014e+01
2.450000000000000178e+00
1.565000000000000036e+01
1.141999999999999993e+01
-3.850000000000000089e+00
5.219999999999999751e+00
-9.599999999999999645e-01
2.212999999999999901e+01
1.042999999999999972e+01
1.446000000000000085e+01
-5.203000000000000114e+01
2.189999999999999858e+01
4.264000000000000057e+01
1.533000000000000007e+01
-1.701000000000000156e+01
-1.880999999999999872e+01
4.488000000000000256e+01
-3.928000000000000114e+01
-8.699999999999999956e-01
-6.950000000000000178e+00
-3.475000000000000000e+01
2.514000000000000057e+01
-2.505999999999999872e+01
1.538000000000000078e+01
-2.758999999999999986e+01
-6.379999999999999893e+00
1.848000000000000043e+01
-2.189999999999999947e+00
7.534000000000000341e+01
-4.853000000000000114e+01
6.990000000000000213e+00
5.969999999999999751e+00
-4.679999999999999716e+00
-1.044999999999999929e+01
4.259999999999999787e+00
-2.750000000000000000e+00
8.820000000000000284e+00
-1.223000000000000043e+01
9.707999999999999829e+01
-7.940000000000000391e+00
-2.353000000000000114e+01
-2.801999999999999957e+01
-1.059999999999999964e+01
-2.553000000000000114e+01
-3.499999999999999778e-01
5.763000000000000256e+01
1.446000000000000085e+01
9.000000000000000222e-01
-1.883999999999999986e+01
7.030000000000000249e+00
2.790000000000000036e+00
-1.547000000000000064e+01
1.753999999999999915e+01
-2.209999999999999964e+00
3.680000000000000160e+00
8.640000000000000568e+00
-5.509999999999999787e+00
1.637000000000000099e+01
-1.147000000000000064e+01
-2.500000000000000000e-01
3.221999999999999886e+01
-8.490000000000000213e+00
-2.625000000000000000e+01
6.730000000000000426e+00
-5.080000000000000071e+00
-1.320000000000000062e+00
5.980000000000000426e+00
4.000000000000000083e-02
1.153999999999999915e+01
4.440000000000000391e+00
-1.128999999999999915e+01
5.650000000000000355e+00
-2.169999999999999929e+00
-1.191000000000000014e+01
-6.899999999999999467e-01
1.151999999999999957e+01
-5.889999999999999680e+00
-8.890000000000000568e+00
-2.149999999999999911e+00
2.240000000000000213e+00
8.130000000000000782e+00
1.407000000000000028e+01
1.070000000000000062e+00
-8.460000000000000853e+00
-1.102999999999999936e+01
-6.620000000000000107e+00
-1.000000000000000056e-01
1.427299999999999898e+02
-7.543000000000000682e+01
1.446000000000000085e+01
9.899999999999999911e-01
-5.828999999999999915e+01
-1.361999999999999886e+02
-1.454499999999999886e+02
2.066599999999999966e+02
4.317000000000000171e+01
-5.747999999999999687e+01
5.481000000000000227e+01
2.278000000000000114e+01
1.523000000000000114e+02
2.064000000000000057e+01
-3.324000000000000199e+01
-2.221999999999999886e+01
-1.996000000000000085e+01
-8.010999999999999943e+01
1.101700000000000017e+02
-6.152000000000000313e+01
1.930600000000000023e+02
-1.501999999999999957e+01
4.320000000000000284e+00
-3.928000000000000114e+01
8.109000000000000341e+01
4.759999999999999787e+00
3.057000000000000028e+01
-6.437999999999999545e+01
2.526999999999999957e+01
3.961999999999999744e+01
5.500000000000000444e-01
-3.814000000000000057e+01
4.540000000000000036e+00
1.225000000000000000e+01
-1.391000000000000014e+01
3.096999999999999886e+01
3.141000000000000014e+01
-2.908999999999999986e+01
2.107999999999999829e+01
-1.635999999999999943e+01
-8.599999999999999645e+00
-2.200000000000000011e-01
-5.580000000000000071e+00
6.540000000000000036e+00
1.140000000000000036e+01
-1.571000000000000085e+01
-2.720000000000000195e+00
3.083999999999999986e+01
-6.801000000000000512e+01
-2.110900000000000034e+02
9.973999999999999488e+01
8.845999999999999375e+01
-2.185999999999999943e+01
2.850000000000000000e+01
1.164800000000000040e+02
-3.223100000000000023e+02
4.524100000000000250e+02
-2.846100000000000136e+02
1.621999999999999886e+01
-1.000000000000000000e+00
-4.492000000000000171e+01
9.906000000000000227e+01
1.662299999999999898e+02
-2.328199999999999932e+02
-6.500000000000000222e-01
-8.535999999999999943e+01
-4.617000000000000171e+01
-3.278999999999999915e+01
2.098000000000000043e+01
1.398000000000000043e+01
-3.799999999999999822e+00
1.447000000000000064e+01
-5.699999999999999512e-01
-4.620000000000000107e+00
8.460000000000000853e+00
-2.439999999999999947e+00
-4.650000000000000000e+01
2.778000000000000114e+01
-8.419999999999999929e+00
-8.037000000000000455e+01
6.585999999999999943e+01
-1.310999999999999943e+01
2.282599999999999909e+02
-2.192400000000000091e+02
-1.382100000000000080e+02
-1.821999999999999886e+02
1.140499999999999972e+02
-1.832999999999999829e+01
5.385000000000000142e+01
-4.529999999999999716e+01
8.657999999999999829e+01
-4.301000000000000227e+02
3.681000000000000227e+02
-1.183000000000000007e+01
2.194499999999999886e+02
-4.125000000000000000e+01
-2.071100000000000136e+02
2.921999999999999886e+01
-3.403999999999999915e+01
-1.553799999999999955e+02
5.742999999999999972e+01
2.018199999999999932e+02
1.730999999999999872e+01
-9.706999999999999318e+01
-2.186599999999999966e+02
1.372199999999999989e+02
8.990000000000000568e+01
9.012000000000000455e+01
2.173999999999999844e+01
-1.933400000000000034e+02
9.971999999999999886e+01
-1.319799999999999898e+02
1.165900000000000034e+02
-2.882000000000000028e+01
-9.176999999999999602e+01
-1.794999999999999929e+01
-3.727000000000000313e+01
1.869099999999999966e+02
-9.568999999999999773e+01
-1.658199999999999932e+02
-1.361399999999999864e+02
1.660399999999999920e+02
-1.594300000000000068e+02
-1.735900000000000034e+02
1.466500000000000057e+02
-4.903000000000000114e+01
-2.844000000000000128e+01
3.935999999999999943e+01
7.030000000000000249e+00
5.099000000000000199e+01
3.182000000000000028e+01
-3.411299999999999955e+02
-1.721000000000000085e+01
6.154600000000000364e+02
3.843999999999999773e+01
-1.764399999999999977e+02
1.380000000000000000e+02
2.950400000000000205e+02
-2.037400000000000091e+02
9.330000000000000071e+00
-2.976000000000000227e+02
1.120799999999999983e+02
2.637699999999999818e+02
-2.517000000000000171e+01
8.595999999999999375e+01
-2.605099999999999909e+02
1.976100000000000136e+02
1.792599999999999909e+02
-2.503100000000000023e+02
-3.679100000000000250e+02
1.772599999999999909e+02
1.599499999999999886e+02
-1.235799999999999983e+02
-1.696000000000000085e+01
-2.958899999999999864e+02
-6.693000000000000682e+01
7.348999999999999488e+01
-2.628999999999999915e+01
-1.178499999999999943e+02
-2.583199999999999932e+02
2.551899999999999977e+02
-1.339699999999999989e+02
2.666200000000000045e+02
6.331000000000000227e+01
-1.280399999999999920e+02
-2.195800000000000125e+02
8.070999999999999375e+01
-3.160999999999999943e+01
1.688600000000000136e+02
-4.290999999999999659e+01
-6.397999999999999687e+01
2.980099999999999909e+02
4.704999999999999716e+01
-2.501000000000000156e+01
-2.405999999999999872e+01
-2.228100000000000023e+02
-6.765000000000000568e+01
2.283799999999999955e+02
-8.245999999999999375e+01
1.025000000000000000e+01
-2.491299999999999955e+02
-7.120000000000000107e+00
1.422100000000000080e+02
3.861999999999999744e+01
1.797400000000000091e+02
-5.167200000000000273e+02
1.307800000000000011e+02
1.355000000000000000e+02
-1.906200000000000045e+02
7.092000000000000171e+01
-4.979999999999999716e+01
1.433100000000000023e+02
-9.510999999999999943e+01
1.561999999999999922e+01
-1.385500000000000114e+02
1.467599999999999909e+02
1.293600000000000136e+02
-3.014100000000000250e+02
1.219000000000000057e+02
-2.253400000000000034e+02
1.027800000000000011e+02
1.442299999999999898e+02
-1.290099999999999909e+02
6.386999999999999744e+01
-1.325200000000000102e+02
1.505200000000000102e+02
-6.500000000000000000e+00
-7.245999999999999375e+01
-1.623400000000000034e+02
6.064999999999999858e+01
8.048999999999999488e+01
-4.660999999999999943e+01
1.145499999999999972e+02
-2.273799999999999955e+02
7.796999999999999886e+01
1.160799999999999983e+02
-2.155099999999999909e+02
-9.189999999999999503e+00
-1.419999999999999929e+01
1.139200000000000017e+02
3.882999999999999829e+01
-1.319000000000000057e+02
-1.017500000000000000e+02
8.065999999999999659e+01
1.758499999999999943e+02
-6.049999999999999822e+00
2.507999999999999829e+01
-8.337999999999999545e+01
4.974000000000000199e+01
1.363000000000000114e+02
-1.922500000000000000e+02
-3.222999999999999687e+01
-1.672800000000000011e+02
1.113900000000000006e+02
9.365999999999999659e+01
4.920000000000000284e+01
7.720000000000000284e+01
-2.495099999999999909e+02
1.215000000000000000e+02
3.685999999999999943e+01
-1.888000000000000114e+02
-5.478999999999999915e+01
7.956000000000000227e+01
1.221299999999999955e+02
5.377000000000000313e+01
3.542000000000000171e+01
-2.646100000000000136e+02
1.364600000000000080e+02
1.438499999999999943e+02
-1.353300000000000125e+02
4.639999999999999680e+00
-5.706000000000000227e+01
1.121899999999999977e+02
-9.035999999999999943e+01
1.111599999999999966e+02
-2.356999999999999886e+02
5.517999999999999972e+01
1.297700000000000102e+02
-1.784199999999999875e+02
3.953999999999999915e+01
-2.425000000000000000e+01
1.687100000000000080e+02
-1.286999999999999922e+01
-6.028000000000000114e+01
-9.048999999999999488e+01
1.772199999999999989e+02
-2.890000000000000124e+00
-3.432400000000000091e+02
1.091999999999999993e+01
9.267000000000000171e+01
-2.578999999999999915e+01
-3.482000000000000028e+01
-4.007999999999999829e+01
4.200999999999999801e+01
2.703799999999999955e+02
-1.783499999999999943e+02
-9.079000000000000625e+01
1.234000000000000057e+02
-1.657299999999999898e+02
-1.019999999999999929e+01
8.101999999999999602e+01
-7.792000000000000171e+01
6.046000000000000085e+01
1.076099999999999994e+02
1.284699999999999989e+02
-1.124899999999999949e+02
5.463000000000000256e+01
-1.871800000000000068e+02
-6.998000000000000398e+01
2.874900000000000091e+02
-2.573500000000000227e+02
3.260999999999999943e+01
5.660000000000000142e+00
3.124800000000000182e+02
-1.207399999999999949e+02
1.099500000000000028e+02
4.022999999999999687e+01
-2.876999999999999886e+02
-2.601999999999999957e+01
5.738000000000000256e+01
-2.269999999999999929e+01
-1.320000000000000062e+00
-6.868999999999999773e+01
2.057199999999999989e+02
1.909999999999999920e+00
-2.054399999999999977e+02
2.059499999999999886e+02
2.866800000000000068e+02
-2.938199999999999932e+02
1.476299999999999955e+02
-2.816399999999999864e+02
3.479399999999999977e+02
1.565000000000000036e+01
-1.942100000000000080e+02
-3.299399999999999977e+02
1.955900000000000034e+02
1.656899999999999977e+02
-4.431000000000000227e+01
8.728000000000000114e+01
-2.815799999999999841e+02
2.257400000000000091e+02
-1.236999999999999922e+01
-1.630099999999999909e+02
-6.004999999999999716e+01
7.473000000000000398e+01
1.507400000000000091e+02
-9.804999999999999716e+01
4.589000000000000057e+01
-1.950600000000000023e+02
7.187999999999999545e+01
2.382599999999999909e+02
-5.642000000000000171e+01
-1.648199999999999932e+02
-1.532400000000000091e+02
9.228000000000000114e+01
1.317299999999999898e+02
2.664999999999999858e+01
-3.584200000000000159e+02
7.181999999999999318e+01
5.804999999999999716e+01
-1.729399999999999977e+02
-9.800000000000000711e+00
-4.753999999999999915e+01
9.023000000000000398e+01
2.716000000000000014e+01
3.126999999999999957e+01
4.539999999999999858e+01
2.301000000000000156e+01
-5.396999999999999886e+01
-5.304999999999999716e+01
2.744499999999999886e+02
6.526999999999999602e+01
7.303000000000000114e+01
-1.163700000000000045e+02
-4.712699999999999818e+02
3.603299999999999841e+02
1.939499999999999886e+02
-2.081599999999999966e+02
-7.114000000000000057e+01
3.432999999999999829e+01
3.771000000000000085e+01
-4.377000000000000313e+01
-9.829000000000000625e+01
1.409999999999999920e+00
-5.256000000000000227e+01
2.769800000000000182e+02
3.415899999999999750e+02
-5.367999999999999972e+01
-5.080500000000000114e+02
5.035000000000000142e+01
8.150000000000000000e+01
-2.993500000000000227e+02
1.905900000000000034e+02
4.364000000000000057e+01
-3.810000000000000053e+00
-6.018999999999999773e+01
-5.342000000000000171e+01
8.837999999999999545e+01
3.649999999999999911e+00
-7.548999999999999488e+01
-1.094500000000000028e+02
6.456000000000000227e+01
1.194000000000000057e+02
-5.396000000000000085e+01
-3.621999999999999886e+01
-9.410000000000000142e+00
2.799999999999999822e+00
1.041000000000000014e+01
3.950000000000000000e+01
2.996999999999999886e+01
8.390000000000000568e+00
-2.901999999999999957e+01
1.751000000000000156e+01
2.779999999999999805e+00
-1.430000000000000071e+01
1.175000000000000000e+01
7.600000000000000089e-01
4.980000000000000426e+00
1.582000000000000028e+01
2.508999999999999986e+01
2.035999999999999943e+02
-1.250000000000000000e+02
-1.035400000000000063e+02
2.665199999999999818e+02
-9.362000000000000455e+01
8.284000000000000341e+01
1.603999999999999915e+01
-5.600000000000000000e+01
7.730000000000000426e+00
-3.464999999999999858e+01
-4.082999999999999829e+01
9.290999999999999659e+01
-7.290000000000000036e+00
-1.853999999999999915e+01
5.060000000000000142e+01
1.215000000000000036e+01
-1.823000000000000043e+01
2.330000000000000071e+00
-9.169999999999999929e+00
-1.225999999999999979e+01
-2.939999999999999947e+00
-2.444999999999999929e+01
3.114000000000000057e+01
3.704999999999999716e+01
2.100000000000000089e+00
-2.982999999999999829e+01
-8.962000000000000455e+01
3.567999999999999972e+01
3.450000000000000178e+00
2.671999999999999886e+02
-1.894000000000000128e+01
-6.269999999999999574e+00
-2.603600000000000136e+02
2.717000000000000171e+01
-3.932999999999999829e+01
1.063100000000000023e+02
3.986999999999999744e+01
-2.220399999999999920e+02
1.146299999999999955e+02
6.840999999999999659e+01
-1.245199999999999960e+02
-1.603000000000000114e+01
5.707999999999999829e+01
1.627400000000000091e+02
-4.690999999999999659e+01
-6.873000000000000398e+01
-1.357599999999999909e+02
5.892999999999999972e+01
8.606999999999999318e+01
-2.271000000000000085e+01
-2.350000000000000089e+00
8.519999999999999574e+00
6.731000000000000227e+01
-2.519000000000000128e+01
-1.057000000000000028e+01
-8.985999999999999943e+01
5.156000000000000227e+01
1.093700000000000045e+02
-2.507000000000000028e+01
4.120000000000000284e+01
-1.464300000000000068e+02
5.131000000000000227e+01
7.015999999999999659e+01
-4.553999999999999915e+01
-8.000000000000000444e-01
-6.227000000000000313e+01
2.110000000000000142e+01
1.653999999999999915e+01
-3.861999999999999744e+01
-2.382999999999999829e+01
4.125999999999999801e+01
1.040699999999999932e+02
-1.102999999999999936e+01
-6.969999999999999751e+00
-4.857999999999999829e+01
1.411999999999999922e+01
6.959000000000000341e+01
1.721000000000000085e+01
-1.300000000000000044e-01
-1.057199999999999989e+02
5.010999999999999943e+01
2.148999999999999844e+01
-3.321999999999999886e+01
-6.929999999999999716e+00
-8.007999999999999829e+01
7.181999999999999318e+01
-2.558999999999999986e+01
-6.378000000000000114e+01
-1.125999999999999979e+01
8.223999999999999488e+01
9.045000000000000284e+01
-8.285999999999999943e+01
2.496000000000000085e+01
-7.245000000000000284e+01
1.345600000000000023e+02
2.587999999999999901e+01
-4.792999999999999972e+01
5.219999999999999751e+00
7.287999999999999545e+01
-1.015100000000000051e+02
-5.546000000000000085e+01
-6.729000000000000625e+01
-1.985000000000000142e+01
3.549000000000000199e+01
1.435300000000000011e+02
-2.342000000000000171e+01
-3.760999999999999943e+01
-3.149999999999999911e+00
3.442999999999999972e+01
-3.149999999999999911e+00
1.129999999999999893e+00
-3.089999999999999858e+00
1.341000000000000014e+01
-7.700000000000000178e-01
-7.860000000000000320e+00
2.069999999999999929e+01
2.319999999999999840e+00
-2.676000000000000156e+01
-1.889999999999999902e+00
1.678000000000000114e+01
5.129999999999999893e+00
5.300000000000000266e-01
-1.982000000000000028e+01
-1.444999999999999929e+01
4.282000000000000028e+01
-1.755000000000000071e+01
-3.148999999999999844e+01
8.639000000000000057e+01
1.017300000000000040e+02
-7.826000000000000512e+01
-1.967999999999999972e+01
-1.530000000000000071e+01
5.915999999999999659e+01
1.791399999999999864e+02
-1.784199999999999875e+02
-1.170400000000000063e+02
-9.581000000000000227e+01
2.374600000000000080e+02
6.401000000000000512e+01
4.975999999999999801e+01
-1.662999999999999901e+01
-1.762400000000000091e+02
1.334900000000000091e+02
5.517999999999999972e+01
-4.925000000000000000e+01
3.465999999999999659e+01
-1.651100000000000136e+02
1.441999999999999886e+02
4.417000000000000171e+01
-1.509099999999999966e+02
-7.232999999999999829e+01
6.865999999999999659e+01
1.084500000000000028e+02
3.259999999999999787e+00
1.445000000000000000e+02
-2.907500000000000000e+02
1.409600000000000080e+02
-6.679999999999999716e+00
-2.130000000000000071e+01
-4.485000000000000142e+01
-9.934000000000000341e+01
1.192999999999999972e+02
-1.262399999999999949e+02
4.118999999999999773e+01
-9.762999999999999545e+01
1.403700000000000045e+02
-1.458999999999999986e+01
4.789000000000000057e+01
-1.854499999999999886e+02
9.534999999999999432e+01
1.182800000000000011e+02
-1.270199999999999960e+02
-6.657999999999999829e+01
-3.384000000000000341e+01
1.330399999999999920e+02
4.461999999999999744e+01
1.964999999999999858e+01
-1.823400000000000034e+02
1.580000000000000000e+02
2.862999999999999901e+01
-6.671999999999999886e+01
-2.068300000000000125e+02
1.039500000000000028e+02
1.586299999999999955e+02
-1.715699999999999932e+02
-8.553000000000000114e+01
2.901000000000000156e+01
1.174399999999999977e+02
2.528000000000000114e+01
7.215000000000000568e+01
-2.297800000000000011e+02
1.218299999999999983e+02
3.588000000000000256e+01
-1.649799999999999898e+02
-1.730000000000000071e+01
7.473999999999999488e+01
8.735999999999999943e+01
-4.792999999999999972e+01
4.947999999999999687e+01
-1.837599999999999909e+02
9.296999999999999886e+01
2.455000000000000071e+01
-8.026999999999999602e+01
-1.374900000000000091e+02
1.075900000000000034e+02
1.155100000000000051e+02
-1.373499999999999943e+02
2.348999999999999844e+01
-8.490000000000000213e+00
8.070999999999999375e+01
-3.087000000000000099e+01
4.575000000000000000e+01
-9.931999999999999318e+01
-1.520000000000000018e+00
1.102300000000000040e+02
-2.091999999999999886e+02
-4.896000000000000085e+01
2.951000000000000156e+01
1.045199999999999960e+02
-6.696999999999999886e+01
-7.764000000000000057e+01
1.189699999999999989e+02
1.329000000000000057e+02
-3.504999999999999716e+01
-1.744300000000000068e+02
3.702000000000000313e+01
1.315999999999999943e+02
8.304000000000000625e+01
-8.106999999999999318e+01
-1.980099999999999909e+02
-4.973899999999999864e+02
3.625400000000000205e+02
1.779099999999999966e+02
2.479999999999999982e+00
-1.143400000000000034e+02
-9.989000000000000057e+01
-2.329699999999999989e+02
1.227099999999999937e+02
-1.620000000000000107e+00
-1.068599999999999994e+02
1.390200000000000102e+02
1.913100000000000023e+02
-1.044300000000000068e+02
8.150000000000000000e+01
-1.375699999999999932e+02
1.900000000000000022e-01
1.249099999999999966e+02
-9.915000000000000568e+01
7.639999999999999680e+00
-4.336999999999999744e+01
4.117000000000000171e+01
1.926800000000000068e+02
3.703000000000000114e+01
-1.790099999999999909e+02
-1.525099999999999909e+02
-2.728000000000000114e+01
3.700000000000000000e+01
-8.429999999999999716e+01
1.854699999999999989e+02
-1.743300000000000125e+02
1.506999999999999886e+02
1.383799999999999955e+02
-3.265099999999999909e+02
2.888199999999999932e+02
8.434000000000000341e+01
-1.545800000000000125e+02
-2.688500000000000227e+02
-8.434000000000000341e+01
2.121800000000000068e+02
1.735999999999999943e+01
1.076999999999999957e+01
1.508999999999999986e+01
-1.957000000000000028e+01
1.739999999999999991e+00
6.740000000000000213e+00
-1.007000000000000028e+01
1.409999999999999920e+00
3.635999999999999943e+01
1.403999999999999915e+01
3.929999999999999716e+01
1.518999999999999950e+01
-4.264999999999999858e+01
3.464999999999999858e+01
1.148499999999999943e+02
3.689000000000000057e+01
-1.500399999999999920e+02
1.820099999999999909e+02
-1.651500000000000057e+02
-9.006000000000000227e+01
-1.028599999999999994e+02
2.233100000000000023e+02
5.181000000000000227e+01
-2.169000000000000128e+01
-6.320000000000000284e+00
-4.230000000000000426e+00
-7.599999999999999645e+00
3.529999999999999716e+01
4.419999999999999929e+00
4.120000000000000107e+00
2.588399999999999750e+02
-2.805799999999999841e+02
-1.348700000000000045e+02
-2.870000000000000107e+00
1.311999999999999922e+01
4.610000000000000320e+00
-6.070000000000000284e+00
-1.177900000000000063e+02
1.465200000000000102e+02
1.407000000000000028e+01
1.796000000000000085e+01
3.206000000000000227e+01
2.194000000000000128e+01
-2.655000000000000071e+01
3.975000000000000000e+01
-1.505000000000000071e+01
-1.876000000000000156e+01
3.067999999999999972e+01
7.773999999999999488e+01
2.037199999999999989e+02
-2.652200000000000273e+02
-1.263299999999999983e+02
1.472000000000000064e+01
-2.592300000000000182e+02
-5.984000000000000341e+01
4.235899999999999750e+02
7.698999999999999488e+01
-1.357400000000000091e+02
8.456000000000000227e+01
-8.418000000000000682e+01
-4.045000000000000284e+01
-6.670999999999999375e+01
5.524000000000000199e+01
3.914999999999999858e+01
4.164000000000000057e+01
-1.887800000000000011e+02
-7.580000000000000071e+00
4.099000000000000199e+01
-2.694399999999999977e+02
1.697199999999999989e+02
9.689000000000000057e+01
-1.088000000000000078e+01
6.009000000000000341e+01
2.742000000000000171e+01
1.027399999999999949e+02
-4.271000000000000085e+01
7.954999999999999716e+01
-4.059200000000000159e+02
3.299399999999999977e+02
-1.518899999999999864e+02
-1.008999999999999986e+01
4.646000000000000085e+01
3.067000000000000171e+01
-1.017199999999999989e+02
-5.413000000000000256e+01
1.251200000000000045e+02
3.774000000000000199e+01
-7.139999999999999680e+00
-1.404099999999999966e+02
6.959999999999999964e+00
8.490000000000000213e+00
5.299999999999999822e+00
1.912199999999999989e+02
-1.827400000000000091e+02
1.247900000000000063e+02
-2.220699999999999932e+02
7.943000000000000682e+01
-2.780000000000000071e+01
-2.446999999999999886e+01
7.682999999999999829e+01
8.830000000000000071e+00
4.085999999999999943e+01
-4.165999999999999659e+01
9.240000000000000213e+00
6.754000000000000625e+01
-3.139999999999999858e+01
-1.358999999999999986e+01
3.935000000000000142e+01
-2.519999999999999929e+01
3.038999999999999773e+02
9.339000000000000057e+01
9.701000000000000512e+01
-2.696000000000000227e+02
-7.470999999999999375e+01
-2.820799999999999841e+02
-8.223000000000000398e+01
4.305000000000000000e+02
1.821000000000000085e+01
1.121200000000000045e+02
7.750000000000000000e+01
-3.480600000000000023e+02
-7.417000000000000171e+01
3.543999999999999773e+01
3.896000000000000085e+01
1.191099999999999994e+02
7.564000000000000057e+01
-4.453000000000000114e+01
-1.066700000000000017e+02
2.817000000000000171e+01
2.354300000000000068e+02
-9.543000000000000682e+01
-1.563199999999999932e+02
3.546999999999999886e+02
-1.864399999999999977e+02
-6.700000000000000178e+00
-6.228000000000000114e+01
1.005100000000000051e+02
9.140000000000000568e+00
8.050000000000000711e+00
-1.576699999999999875e+02
1.685900000000000034e+02
-2.899999999999999911e+00
1.391800000000000068e+02
2.146299999999999955e+02
-1.583199999999999932e+02
7.030000000000000249e+00
-1.147600000000000051e+02
-8.100000000000000000e+01
2.762999999999999901e+01
-4.585999999999999943e+01
-1.817599999999999909e+02
8.573000000000000398e+01
2.211299999999999955e+02
-4.089999999999999858e+01
1.395000000000000000e+02
-2.304199999999999875e+02
8.151999999999999602e+01
-2.021999999999999886e+01
-4.204999999999999716e+01
-3.850199999999999818e+02
1.454000000000000057e+02
2.001999999999999886e+02
-1.824699999999999989e+02
7.548000000000000398e+01
-1.913899999999999864e+02
1.953000000000000114e+02
1.574000000000000021e+01
-3.450999999999999801e+01
-2.363899999999999864e+02
7.484000000000000341e+01
9.792000000000000171e+01
-1.115000000000000000e+02
-6.270000000000000284e+01
5.250000000000000000e+01
2.522800000000000011e+02
-1.684600000000000080e+02
1.633400000000000034e+02
3.629999999999999893e+00
1.152999999999999936e+01
3.949000000000000199e+01
-1.112099999999999937e+02
-5.884000000000000341e+01
-1.064599999999999937e+02
4.618999999999999773e+01
2.157100000000000080e+02
7.618999999999999773e+01
2.938600000000000136e+02
-7.768999999999999773e+01
-1.032000000000000028e+01
-6.812999999999999545e+01
2.384300000000000068e+02
2.997900000000000205e+02
-3.853700000000000045e+02
3.031600000000000250e+02
-3.558500000000000227e+02
3.011100000000000136e+02
-5.585000000000000142e+01
5.270000000000000284e+01
-2.220600000000000023e+02
-2.164799999999999898e+02
1.708499999999999943e+02
2.146999999999999886e+01
-2.663500000000000227e+02
1.517500000000000000e+02
1.945800000000000125e+02
-2.453000000000000114e+01
1.504199999999999875e+02
6.651999999999999602e+01
8.759999999999999787e+00
1.768899999999999864e+02
-4.338000000000000256e+01
4.447999999999999687e+01
-2.479300000000000068e+02
1.614600000000000080e+02
3.399000000000000199e+01
4.572999999999999687e+01
1.128400000000000034e+02
-1.210400000000000063e+02
4.313000000000000256e+01
1.560800000000000125e+02
1.176200000000000045e+02
-7.829999999999999716e+01
-4.705899999999999750e+02
2.228899999999999864e+02
3.137999999999999901e+01
1.517999999999999972e+01
2.115300000000000011e+02
-5.368999999999999773e+02
1.625500000000000114e+02
1.215499999999999972e+02
3.167999999999999972e+01
-8.753000000000000114e+01
7.387999999999999545e+01
-1.691200000000000045e+02
-1.718600000000000136e+02
-7.901999999999999602e+01
3.147400000000000091e+02
2.246399999999999864e+02
-4.618199999999999932e+02
1.472899999999999920e+02
7.809999999999999432e+01
2.826000000000000156e+01
5.010999999999999943e+01
-6.481000000000000227e+01
-2.902200000000000273e+02
3.416299999999999955e+02
-8.823999999999999488e+01
5.364999999999999858e+01
2.266200000000000045e+02
-1.648300000000000125e+02
2.229499999999999886e+02
-1.493400000000000034e+02
-7.729000000000000625e+01
3.889999999999999858e+01
-3.863000000000000256e+01
2.210699999999999932e+02
7.695000000000000284e+01
9.382999999999999829e+01
1.223499999999999943e+02
-8.307999999999999829e+01
-2.881800000000000068e+02
1.756800000000000068e+02
1.202500000000000000e+02
-1.014699999999999989e+02
8.129000000000000625e+01
-1.825000000000000000e+01
-4.550799999999999841e+02
9.846999999999999886e+01
1.369099999999999966e+02
-1.828000000000000114e+01
2.676999999999999957e+01
-1.502800000000000011e+02
5.769999999999999574e+00
8.015999999999999659e+01
-1.022000000000000064e+01
5.784000000000000341e+01
3.850000000000000089e+00
-3.198299999999999841e+02
2.130000000000000000e+02
2.151000000000000156e+01
-1.530300000000000011e+02
1.249500000000000028e+02
-1.210199999999999960e+02
1.202999999999999936e+01
3.856600000000000250e+02
-3.321600000000000250e+02
-3.117300000000000182e+02
2.815099999999999909e+02
9.087000000000000455e+01
-1.350200000000000102e+02
-1.291299999999999955e+02
1.060400000000000063e+02
1.860300000000000011e+02
-7.859000000000000341e+01
-1.246899999999999977e+02
1.168299999999999983e+02
7.950000000000000178e+00
-7.687999999999999545e+01
-7.712000000000000455e+01
1.396599999999999966e+02
-1.230699999999999932e+02
-3.264000000000000057e+01
1.214500000000000028e+02
-1.278599999999999994e+02
-1.047600000000000051e+02
-1.906500000000000057e+02
1.266099999999999994e+02
-6.770000000000000284e+01
1.721000000000000085e+01
-8.020000000000000284e+01
1.656399999999999864e+02
4.280000000000000249e+00
-2.507000000000000028e+01
1.320800000000000125e+02
-1.140400000000000063e+02
-2.206999999999999886e+02
8.604999999999999716e+01
2.445800000000000125e+02
-3.067599999999999909e+02
9.787999999999999545e+01
1.705800000000000125e+02
-9.432999999999999829e+01
-1.480999999999999943e+02
3.792999999999999972e+01
4.454900000000000091e+02
-7.218999999999999773e+01
-5.979999999999999716e+01
-1.928199999999999932e+02
3.175000000000000000e+01
-7.490000000000000568e+01
3.043999999999999773e+02
2.216000000000000014e+01
5.699999999999999512e-01
6.203000000000000114e+01
-6.642000000000000171e+01
1.059999999999999964e+01
-6.643000000000000682e+01
-3.789000000000000057e+01
8.220999999999999375e+01
7.453000000000000114e+01
1.174000000000000021e+01
-1.390900000000000034e+02
1.097699999999999960e+02
1.855000000000000000e+02
-1.971000000000000085e+01
-6.831999999999999318e+01
-1.170000000000000000e+02
1.004200000000000017e+02
1.310300000000000011e+02
-4.242000000000000171e+01
-8.410000000000000142e+00
-2.280500000000000114e+02
1.396599999999999966e+02
9.742000000000000171e+01
2.305999999999999872e+01
2.580000000000000071e+01
-2.242299999999999898e+02
1.055499999999999972e+02
9.792000000000000171e+01
-1.564499999999999886e+02
-2.539999999999999858e+01
3.860999999999999943e+01
1.636899999999999977e+02
-2.076000000000000156e+01
-5.271000000000000085e+01
-9.582999999999999829e+01
1.287400000000000091e+02
7.350000000000000000e+01
-1.539000000000000057e+01
2.050000000000000000e+01
-1.974000000000000057e+02
1.511999999999999886e+02
7.698000000000000398e+01
-1.742599999999999909e+02
-2.850000000000000000e+01
5.675000000000000000e+01
1.522199999999999989e+02
3.909000000000000341e+01
-1.183700000000000045e+02
-1.279099999999999966e+02
7.056999999999999318e+01
9.073999999999999488e+01
-2.875000000000000000e+01
4.628999999999999915e+01
-2.012199999999999989e+02
9.381999999999999318e+01
6.478000000000000114e+01
-1.753000000000000114e+02
-2.667000000000000171e+01
3.062999999999999901e+01
1.158799999999999955e+02
2.050000000000000000e+01
4.535000000000000142e+01
1.251299999999999955e+02
-3.181499999999999773e+02
-1.227900000000000063e+02
-2.275500000000000114e+02
1.138199999999999932e+02
-8.843999999999999773e+01
3.192000000000000171e+01
6.375000000000000000e+01
-1.612800000000000011e+02
-1.410999999999999943e+01
9.449999999999999289e+00
1.167600000000000051e+02
1.601999999999999957e+01
1.600000000000000089e+00
-2.111200000000000045e+02
5.009000000000000341e+01
1.210000000000000000e+02
-5.540999999999999659e+01
7.898000000000000398e+01
-1.986100000000000136e+02
1.027999999999999972e+02
5.352000000000000313e+01
-1.799099999999999966e+02
1.866000000000000014e+01
-1.432000000000000028e+01
1.370200000000000102e+02
-8.919999999999999929e+00
-8.056999999999999318e+01
-1.045699999999999932e+02
4.089999999999999858e+01
1.358300000000000125e+02
1.510000000000000009e+00
3.650000000000000000e+01
1.242999999999999972e+01
-1.101400000000000006e+02
9.810000000000000497e+00
2.348999999999999844e+01
4.129999999999999893e+00
-4.910000000000000142e+00
3.831000000000000227e+01
1.753000000000000114e+01
6.512999999999999545e+01
-1.553799999999999955e+02
-5.536999999999999744e+01
-1.087900000000000063e+02
-1.227399999999999949e+02
4.389700000000000273e+02
-2.171000000000000085e+01
5.177000000000000313e+01
-1.321200000000000045e+02
4.077000000000000313e+01
5.582000000000000028e+01
3.153999999999999915e+01
-2.543899999999999864e+02
9.448999999999999488e+01
-4.438000000000000256e+01
8.564000000000000057e+01
6.779000000000000625e+01
1.542999999999999972e+01
-1.855999999999999872e+01
2.432999999999999829e+01
2.155000000000000071e+01
-8.945999999999999375e+01
1.316000000000000014e+01
-2.348999999999999844e+01
3.917000000000000171e+01
4.995000000000000284e+01
1.392100000000000080e+02
-3.090799999999999841e+02
1.200799999999999983e+02
-2.031100000000000136e+02
-8.300000000000000000e+01
-2.669000000000000128e+01
-1.374000000000000057e+02
-1.238900000000000006e+02
-2.176999999999999957e+01
-7.851000000000000512e+01
-9.812999999999999545e+01
-1.562800000000000011e+02
-9.518000000000000682e+01
5.346999999999999886e+01
-7.204999999999999716e+01
-2.324300000000000068e+02
-2.012000000000000099e+01
1.098299999999999983e+02
-1.214899999999999949e+02
8.269999999999999574e+00
-2.355999999999999872e+01
2.070099999999999909e+02
-1.607700000000000102e+02
-2.126000000000000156e+01
1.811999999999999886e+02
-2.878999999999999915e+01
1.164000000000000057e+01
3.330000000000000071e+00
1.619099999999999966e+02
-5.996000000000000085e+01
2.333999999999999986e+01
-3.157200000000000273e+02
-1.358600000000000136e+02
5.260999999999999943e+01
-6.539000000000000057e+01
-5.245000000000000284e+01
6.150999999999999801e+01
-8.826000000000000512e+01
-3.595000000000000284e+01
7.265000000000000568e+01
8.675000000000000000e+01
1.923999999999999844e+01
-2.103999999999999915e+01
1.003700000000000045e+02
-1.252199999999999989e+02
6.520999999999999375e+01
3.438000000000000256e+01
2.737000000000000099e+01
-2.428999999999999915e+01
-1.737999999999999901e+01
2.853999999999999915e+01
1.583000000000000007e+01
-4.004999999999999716e+01
-6.080000000000000071e+00
1.069999999999999929e+01
4.664999999999999858e+01
5.842999999999999972e+01
-2.017000000000000171e+01
-1.081099999999999994e+02
1.644000000000000128e+01
2.230000000000000071e+01
2.549999999999999822e+00
-3.171999999999999886e+01
-9.769999999999999574e+00
3.110999999999999943e+01
-6.898999999999999488e+01
2.478000000000000114e+01
3.996000000000000085e+01
3.126999999999999957e+01
2.821999999999999886e+01
-3.071999999999999886e+01
-2.087999999999999901e+01
2.780000000000000071e+01
1.191999999999999993e+01
5.559999999999999609e+00
-1.520000000000000018e+00
1.269999999999999929e+01
3.099999999999999978e-01
-1.801000000000000156e+01
1.540000000000000036e+01
-2.217000000000000171e+01
9.560000000000000497e+00
2.092000000000000171e+01
-2.435999999999999943e+01
-2.180000000000000160e+00
-5.360000000000000320e+00
1.173000000000000043e+01
3.561999999999999744e+01
-2.250000000000000000e+00
-8.570000000000000284e+00
3.853000000000000114e+01
-4.485000000000000142e+01
-1.685000000000000142e+01
-7.980000000000000426e+00
-1.650000000000000000e+01
1.077999999999999936e+01
-3.596000000000000085e+01
-1.422000000000000064e+01
2.757999999999999829e+01
2.494999999999999929e+01
2.640000000000000124e+00
1.226999999999999957e+01
-8.419999999999999929e+00
7.730000000000000426e+00
-1.197000000000000064e+01
-2.417999999999999972e+01
3.146000000000000085e+01
8.390000000000000568e+00
-1.953000000000000114e+01
1.190000000000000036e+01
1.152999999999999936e+01
-7.080000000000000071e+00
1.508999999999999986e+01
-2.605999999999999872e+01
-3.614000000000000057e+01
1.885999999999999943e+01
9.349999999999999645e+00
-4.059999999999999609e+00
5.530000000000000249e+00
-7.190000000000000391e+00
8.880000000000000782e+00
7.480000000000000426e+00
-1.655000000000000071e+01
-1.180000000000000071e+01
1.381000000000000050e+01
6.099999999999999867e-01
1.418999999999999950e+01
-3.900000000000000133e-01
-1.188000000000000078e+01
1.978000000000000114e+01
9.660000000000000142e+00
-1.737000000000000099e+01
-1.635000000000000142e+01
1.546000000000000085e+01
-2.250000000000000000e+00
1.750000000000000000e+01
-2.700000000000000178e-01
-1.950000000000000000e+01
1.375999999999999979e+01
6.099999999999999645e+00
-1.467999999999999972e+01
2.319999999999999840e+00
-2.779999999999999805e+00
2.500000000000000000e+00
2.580000000000000071e+00
5.179999999999999716e+00
-1.541999999999999993e+01
6.870000000000000107e+00
-2.269999999999999929e+01
-1.840000000000000080e+00
1.885000000000000142e+01
1.080000000000000071e+00
-5.709999999999999964e+00
6.919999999999999929e+00
-1.830000000000000071e+00
-3.459999999999999964e+00
5.929999999999999716e+00
-2.394999999999999929e+01
3.779999999999999805e+00
1.603000000000000114e+01
-3.400000000000000244e-01
-8.449999999999999289e+00
5.790000000000000036e+00
9.699999999999999734e-01
-3.100000000000000089e+00
8.210000000000000853e+00
-1.480000000000000071e+01
-2.248999999999999844e+01
1.732000000000000028e+01
1.043999999999999950e+01
-9.330000000000000071e+00
5.660000000000000142e+00
1.850000000000000089e+00
-9.009999999999999787e+00
1.200000000000000000e+01
-3.950000000000000178e+00
-3.725999999999999801e+01
1.901000000000000156e+01
3.779999999999999805e+00
5.330000000000000071e+00
1.260999999999999943e+01
-8.099999999999999645e+00
3.160000000000000142e+01
-4.478999999999999915e+01
-9.240000000000000213e+00
-2.680999999999999872e+01
4.875999999999999801e+01
1.428999999999999915e+01
-1.417999999999999972e+01
2.830000000000000071e+00
-4.756000000000000227e+01
7.410000000000000142e+00
9.509999999999999787e+00
-1.107000000000000028e+01
-1.305000000000000071e+01
2.546000000000000085e+01
5.940000000000000391e+00
-2.910000000000000142e+00
2.803000000000000114e+01
-7.750000000000000000e+00
-1.073400000000000034e+02
4.064000000000000057e+01
4.509000000000000341e+01
-5.060999999999999943e+01
1.129899999999999949e+02
-3.668999999999999773e+01
7.123999999999999488e+01
-2.032800000000000011e+02
8.689999999999999503e+00
-6.339999999999999858e+00
7.900000000000000355e+00
1.405000000000000071e+01
-1.575000000000000000e+01
1.750000000000000000e+01
-1.324000000000000021e+01
-1.646000000000000085e+01
2.735000000000000142e+01
-2.146999999999999886e+01
-2.530999999999999872e+01
7.059999999999999609e+00
-2.221999999999999886e+01
-2.760000000000000142e+01
6.854999999999999716e+01
3.379999999999999893e+00
1.669999999999999929e+00
1.682000000000000028e+01
-4.419999999999999929e+00
-3.436999999999999744e+01
8.460000000000000853e+00
-1.020000000000000018e+00
-2.083999999999999986e+01
2.430000000000000071e+01
2.521000000000000085e+01
-1.335999999999999943e+01
3.850000000000000000e+01
-3.779999999999999805e+00
-4.571000000000000085e+01
-3.370000000000000107e+00
2.250000000000000000e+00
-2.250000000000000000e+00
-3.671000000000000085e+01
-1.496000000000000085e+01
3.044000000000000128e+01
2.219000000000000128e+01
2.151000000000000156e+01
-1.682000000000000028e+01
-1.326999999999999957e+01
5.339999999999999858e+00
-1.594999999999999929e+01
4.990000000000000213e+00
1.687999999999999901e+01
-3.139000000000000057e+01
-1.705000000000000071e+01
2.587000000000000099e+01
1.478999999999999915e+01
3.346000000000000085e+01
4.429999999999999716e+00
4.030000000000000249e+00
-1.830999999999999872e+01
1.090000000000000036e+01
-7.540000000000000036e+00
-6.400000000000000355e+00
-1.051999999999999957e+01
-2.807999999999999829e+01
5.129999999999999893e+00
1.639000000000000057e+01
-5.759999999999999787e+00
1.120000000000000107e+00
5.559999999999999609e+00
-2.607999999999999829e+01
7.719999999999999751e+00
-5.150000000000000355e+00
-3.568999999999999773e+01
1.694000000000000128e+01
1.518999999999999950e+01
-1.967000000000000171e+01
1.533999999999999986e+01
1.676999999999999957e+01
-1.424000000000000021e+01
1.610999999999999943e+01
7.900000000000000355e-01
-1.805999999999999872e+01
-2.291000000000000014e+01
1.541000000000000014e+01
2.228999999999999915e+01
3.959999999999999964e+00
-1.190000000000000036e+01
-2.990000000000000213e+00
-2.316000000000000014e+01
1.830999999999999872e+01
1.826000000000000156e+01
-2.603000000000000114e+01
-3.094999999999999929e+01
3.629999999999999893e+00
2.123000000000000043e+01
6.480000000000000426e+00
8.039999999999999147e+00
7.129999999999999893e+00
-2.453000000000000114e+01
7.259999999999999787e+00
1.018999999999999950e+01
-2.282999999999999829e+01
-1.182000000000000028e+01
-2.669999999999999929e+00
1.450000000000000000e+01
1.830000000000000071e+00
4.450000000000000000e+01
4.550000000000000000e+01
1.335999999999999943e+01
-1.183000000000000007e+01
9.110999999999999943e+01
1.175000000000000000e+01
-3.062000000000000099e+01
-1.282000000000000028e+01
-5.013000000000000256e+01
-1.812000000000000099e+01
-9.645999999999999375e+01
3.682000000000000028e+01
-1.087300000000000040e+02
-2.805000000000000071e+01
8.728000000000000114e+01
-4.532000000000000028e+01
-6.629000000000000625e+01
-6.709999999999999432e+01
-6.631999999999999318e+01
2.019499999999999886e+02
-4.110999999999999943e+01
-2.238400000000000034e+02
1.788400000000000034e+02
-4.125000000000000000e+01
8.060000000000000497e+00
-7.890000000000000568e+01
6.068999999999999773e+01
-9.212000000000000455e+01
-1.171400000000000006e+02
2.100600000000000023e+02
1.970200000000000102e+02
1.293799999999999955e+02
-2.628700000000000045e+02
-1.655900000000000034e+02
2.214600000000000080e+02
5.457999999999999829e+01
-9.806999999999999318e+01
-3.105000000000000071e+01
-1.180699999999999932e+02
7.559000000000000341e+01
1.391200000000000045e+02
3.171000000000000085e+01
-1.007399999999999949e+02
3.775000000000000000e+01
-8.929999999999999716e+00
-7.549999999999999822e+00
5.789999999999999858e+01
1.332199999999999989e+02
-2.220000000000000195e+00
-1.608400000000000034e+02
-1.979999999999999982e+00
3.173999999999999844e+01
-5.657000000000000028e+01
1.251400000000000006e+02
9.462999999999999545e+01
3.123000000000000043e+01
-8.623000000000000398e+01
-9.650000000000000000e+01
-4.975999999999999801e+01
5.731000000000000227e+01
-2.955000000000000071e+01
3.452000000000000313e+01
2.326999999999999957e+01
-3.160999999999999943e+01
-2.739000000000000057e+01
1.673999999999999844e+01
-1.324000000000000021e+01
-2.926000000000000156e+01
1.294199999999999875e+02
7.268999999999999773e+01
-1.090499999999999972e+02
6.303999999999999915e+01
-5.031000000000000227e+01
-3.112000000000000099e+01
-3.674000000000000199e+01
2.471999999999999886e+01
1.862000000000000099e+01
-6.339999999999999858e+00
1.368999999999999950e+01
1.782999999999999829e+01
3.440999999999999659e+01
-1.764999999999999858e+01
-2.757999999999999829e+01
-4.070000000000000284e+01
-5.075999999999999801e+01
3.023999999999999844e+01
1.910000000000000142e+01
-6.179999999999999716e+00
3.119999999999999929e+01
4.179999999999999716e+00
-2.492000000000000171e+01
7.599999999999999645e+00
5.070000000000000284e+00
-1.200000000000000000e+01
-1.580000000000000071e+00
1.612999999999999901e+01
-8.800000000000000044e-01
-1.025999999999999979e+01
9.589999999999999858e+00
-1.065000000000000036e+01
-3.007999999999999829e+01
1.741000000000000014e+01
-4.080000000000000071e+00
-2.614000000000000057e+01
2.778000000000000114e+01
5.104999999999999716e+01
-2.151000000000000156e+01
1.632000000000000028e+01
2.198000000000000043e+01
-2.991000000000000014e+01
1.050000000000000000e+01
1.149999999999999911e+00
9.810000000000000497e+00
-8.400000000000000355e+00
1.522000000000000064e+01
-1.601000000000000156e+01
7.134999999999999432e+01
-2.378000000000000114e+01
-1.908999999999999986e+01
-7.145999999999999375e+01
-1.583999999999999986e+01
-3.692000000000000171e+01
-2.239999999999999858e+01
6.860999999999999943e+01
4.314999999999999858e+01
-3.176000000000000156e+01
7.080000000000000071e+00
9.089999999999999858e+00
-1.181000000000000050e+01
1.108000000000000007e+01
8.900000000000000133e-01
1.206000000000000050e+01
-1.351999999999999957e+01
-1.873000000000000043e+01
4.600000000000000200e-01
5.780000000000000249e+00
-3.242000000000000171e+01
2.800000000000000266e-01
2.605999999999999872e+01
-1.129999999999999893e+00
3.754999999999999716e+01
5.699999999999999512e-01
-4.688000000000000256e+01
7.790000000000000036e+00
1.964999999999999858e+01
-3.225999999999999801e+01
1.116999999999999993e+01
1.039000000000000057e+01
-1.431000000000000050e+01
2.426999999999999957e+01
-7.839999999999999858e+00
6.879999999999999716e+01
-5.761999999999999744e+01
-2.291000000000000014e+01
-1.989999999999999991e+00
3.178999999999999915e+01
1.428999999999999915e+01
-3.884000000000000341e+01
1.935000000000000142e+01
-1.898000000000000043e+01
3.096000000000000085e+01
-5.080000000000000071e+00
-1.232000000000000028e+01
-7.299999999999999822e-01
-3.580000000000000071e+00
-1.274000000000000021e+01
1.134999999999999964e+01
-2.826999999999999957e+01
2.310000000000000053e+00
-2.020000000000000018e+00
-3.046000000000000085e+01
2.858999999999999986e+01
8.279999999999999361e+00
-1.167999999999999972e+01
2.180000000000000071e+01
1.260999999999999943e+01
-1.232000000000000028e+01
7.919999999999999929e+00
5.620000000000000107e+00
-4.169999999999999929e+00
-5.899999999999999689e-01
1.158999999999999986e+01
-8.800000000000000044e-01
-1.878999999999999915e+01
1.789999999999999858e+01
3.589999999999999858e+00
-1.281000000000000050e+01
1.233999999999999986e+01
8.410000000000000142e+00
-9.140000000000000568e+00
-2.229999999999999982e+00
8.550000000000000711e+00
-4.419999999999999929e+00
-1.340000000000000036e+01
6.679999999999999716e+00
4.899999999999999911e-01
-1.453999999999999915e+01
1.000000000000000000e+01
5.290000000000000036e+00
-1.060999999999999943e+01
5.700000000000000178e+00
4.540000000000000036e+00
-8.519999999999999574e+00
-1.519999999999999929e+01
8.119999999999999218e+00
-6.700000000000000400e-01
-1.597000000000000064e+01
1.039000000000000057e+01
1.310000000000000053e+00
-1.118999999999999950e+01
1.106000000000000050e+01
4.299999999999999822e+00
-8.880000000000000782e+00
-5.419999999999999929e+00
7.719999999999999751e+00
9.000000000000000222e-01
-1.932000000000000028e+01
1.047000000000000064e+01
4.120000000000000107e+00
-7.580000000000000071e+00
1.083999999999999986e+01
7.919999999999999929e+00
-1.023000000000000043e+01
-7.000000000000000000e+00
6.740000000000000213e+00
-8.499999999999999778e-01
-1.860000000000000142e+01
1.365000000000000036e+01
4.650000000000000355e+00
-1.324000000000000021e+01
7.059999999999999609e+00
-6.070000000000000284e+00
-3.799999999999999822e+00
1.350999999999999979e+01
1.266000000000000014e+01
-1.780000000000000027e+00
-1.298000000000000043e+01
1.128999999999999915e+01
3.200000000000000178e+00
-1.391000000000000014e+01
1.296000000000000085e+01
6.610000000000000320e+00
-1.246000000000000085e+01
1.244999999999999929e+01
1.250000000000000000e+01
-1.699999999999999956e+00
-1.173000000000000043e+01
3.200000000000000067e-01
-5.900000000000000355e+00
-1.266999999999999993e+01
1.060999999999999943e+01
1.010000000000000009e+00
-1.907000000000000028e+01
1.623000000000000043e+01
9.259999999999999787e+00
-1.003999999999999915e+01
9.509999999999999787e+00
1.840000000000000080e+00
-7.160000000000000142e+00
1.499999999999999944e-01
1.090000000000000036e+01
-8.800000000000000044e-01
-1.275999999999999979e+01
1.110999999999999943e+01
1.799999999999999933e-01
-1.689999999999999858e+01
1.075000000000000000e+01
-1.184999999999999964e+01
-1.027999999999999936e+01
2.080999999999999872e+01
7.450000000000000178e+00
-5.309999999999999609e+00
7.700000000000000178e+00
5.469999999999999751e+00
-5.070000000000000284e+00
-5.450000000000000178e+00
4.899999999999999911e-01
-1.828000000000000114e+01
1.060000000000000053e+00
7.500000000000000000e-01
1.296000000000000085e+01
-1.216000000000000014e+01
9.769999999999999574e+00
5.349999999999999645e+00
-8.519999999999999574e+00
1.096000000000000085e+01
1.330000000000000071e+01
-7.299999999999999822e+00
-1.365000000000000036e+01
6.559999999999999609e+00
-5.190000000000000391e+00
-3.119000000000000128e+01
5.114000000000000057e+01
1.110499999999999972e+02
-5.414999999999999858e+01
7.043999999999999773e+01
-2.132999999999999829e+01
-3.689999999999999858e+01
5.339999999999999858e+00
7.320000000000000284e+00
-6.980000000000000426e+00
-6.509999999999999787e+00
-4.259999999999999787e+00
-1.024000000000000021e+01
2.810000000000000053e+00
5.669999999999999929e+00
-1.785999999999999943e+01
1.535999999999999943e+01
1.318999999999999950e+01
-8.550000000000000711e+00
-8.320000000000000284e+00
1.000000000000000021e-02
-9.910000000000000142e+00
-6.599999999999999645e+00
1.949999999999999956e+00
1.400000000000000133e-01
1.110000000000000098e+00
-1.459999999999999964e+00
-1.399999999999999911e+00
2.200000000000000011e-01
-1.000000000000000056e-01
8.009999999999999787e+00
1.600000000000000033e-01
1.499999999999999944e-01
-2.299999999999999822e+00
1.580000000000000071e+00
4.379999999999999893e+00
-1.679999999999999938e+00
5.429999999999999716e+00
-1.016000000000000014e+01
-1.750000000000000000e+00
-3.299999999999999822e+00
1.058999999999999986e+01
-5.000000000000000000e+00
4.410000000000000142e+00
-6.230000000000000426e+00
1.403999999999999915e+01
-1.310000000000000053e+00
2.540000000000000036e+00
-1.300000000000000044e+00
5.160000000000000142e+00
-3.699999999999999956e-01
-1.499999999999999944e-01
-8.800000000000000044e-01
-7.919999999999999929e+00
-5.240000000000000213e+00
1.060000000000000053e+00
-1.480000000000000071e+01
-3.600000000000000000e+01
-1.245499999999999972e+02
5.157000000000000028e+01
2.031399999999999864e+02
2.526200000000000045e+02
-2.626000000000000227e+02
-8.220999999999999375e+01
2.411299999999999955e+02
-4.092999999999999972e+01
-1.062999999999999972e+02
-9.778000000000000114e+01
-1.257900000000000063e+02
-1.610000000000000000e+02
3.292999999999999972e+01
1.266500000000000057e+02
-2.276999999999999957e+01
-1.074899999999999949e+02
2.571999999999999886e+01
1.249300000000000068e+02
-2.710000000000000142e+01
3.114000000000000057e+01
-7.099999999999999645e+00
6.143999999999999773e+01
3.746000000000000085e+01
-1.796999999999999886e+01
2.466000000000000014e+01
3.119000000000000128e+01
3.900000000000000133e-01
-2.999999999999999889e-02
2.825000000000000000e+01
-1.400000000000000133e-01
-2.283999999999999986e+01
2.042000000000000171e+01
5.570000000000000284e+00
-2.903000000000000114e+01
9.599999999999999645e+00
2.176999999999999957e+01
5.809999999999999609e+00
7.299999999999999822e+00
3.459999999999999964e+00
-2.855999999999999872e+01
-6.580000000000000071e+00
6.809999999999999609e+00
-1.480000000000000071e+01
1.830000000000000071e+00
1.084999999999999964e+01
-1.034999999999999964e+01
-2.649999999999999911e+00
1.127999999999999936e+01
-4.690000000000000391e+00
-2.039000000000000057e+01
8.849999999999999645e+00
8.399999999999999689e-01
-3.336999999999999744e+01
-3.429999999999999716e+01
3.178000000000000114e+01
2.026599999999999966e+02
-1.248000000000000043e+01
8.210000000000000853e+00
-3.859999999999999876e+00
2.705000000000000071e+01
1.492999999999999972e+01
-1.030000000000000071e+01
6.809999999999999609e+00
1.057000000000000028e+01
-5.269999999999999574e+00
-1.903000000000000114e+01
9.220000000000000639e+00
-1.870000000000000107e+00
-2.235000000000000142e+01
1.619999999999999929e+01
2.390000000000000124e+00
-2.564999999999999858e+01
1.478999999999999915e+01
6.019999999999999574e+00
-2.185999999999999943e+01
1.582000000000000028e+01
9.480000000000000426e+00
-1.898999999999999844e+01
1.377999999999999936e+01
8.650000000000000355e+00
-1.400999999999999979e+01
1.014000000000000057e+01
9.259999999999999787e+00
-1.275000000000000000e+01
1.031000000000000050e+01
1.127999999999999936e+01
-5.469999999999999751e+00
6.500000000000000222e-01
8.279999999999999361e+00
-9.140000000000000568e+00
-9.500000000000000000e+00
1.085999999999999943e+01
3.450000000000000178e+00
-1.657999999999999829e+01
1.051999999999999957e+01
1.780000000000000027e+00
-2.207000000000000028e+01
8.509999999999999787e+00
-5.879999999999999893e+00
-1.633999999999999986e+01
1.363000000000000078e+01
3.930000000000000160e+00
-1.619000000000000128e+01
1.283000000000000007e+01
8.619999999999999218e+00
-1.330000000000000071e+01
8.779999999999999361e+00
6.049999999999999822e+00
-1.053999999999999915e+01
1.389999999999999902e+00
3.299999999999999822e+00
-3.529999999999999805e+00
-6.500000000000000222e-01
8.240000000000000213e+00
-2.890000000000000124e+00
-9.339999999999999858e+00
1.327999999999999936e+01
1.010000000000000009e+00
-1.243999999999999950e+01
1.601000000000000156e+01
7.080000000000000071e+00
-2.628999999999999915e+01
9.130000000000000782e+00
3.229999999999999982e+00
-1.488000000000000078e+01
1.383000000000000007e+01
7.799999999999999822e+00
-6.940000000000000391e+00
6.049999999999999822e+00
8.119999999999999218e+00
-5.500000000000000000e+00
-6.580000000000000071e+00
7.080000000000000071e+00
-2.040000000000000036e+00
-1.944000000000000128e+01
4.870000000000000107e+00
1.889999999999999902e+00
-1.365000000000000036e+01
1.365000000000000036e+01
5.370000000000000107e+00
-1.033999999999999986e+01
9.910000000000000142e+00
9.349999999999999645e+00
-8.320000000000000284e+00
-2.169999999999999929e+00
8.060000000000000497e+00
-1.119999999999999929e+01
-1.391999999999999993e+01
-3.275999999999999801e+01
-4.360000000000000320e+00
1.682999999999999829e+01
4.300000000000000000e+01
2.216000000000000014e+01
-7.568000000000000682e+01
-1.550999999999999979e+01
-1.303999999999999915e+01
-1.026999999999999957e+01
-2.521999999999999886e+01
-7.634000000000000341e+01
-4.139000000000000057e+01
3.322500000000000000e+02
5.750000000000000000e+00
4.799999999999999822e-01
2.557000000000000028e+01
4.290000000000000036e+00
-1.352999999999999936e+01
-1.946999999999999886e+01
9.980000000000000426e+00
-4.209999999999999964e+00
-1.662999999999999901e+01
1.719999999999999929e+01
-4.049999999999999822e+00
-2.382999999999999829e+01
2.105000000000000071e+01
9.359999999999999432e+00
-2.044000000000000128e+01
9.929999999999999716e+00
-6.929999999999999716e+00
-3.985999999999999943e+01
2.669999999999999929e+01
-1.380000000000000071e+01
-2.466000000000000014e+01
2.821000000000000085e+01
7.320000000000000284e+00
-2.446000000000000085e+01
2.957999999999999829e+01
1.189000000000000057e+01
-1.326999999999999957e+01
5.139999999999999680e+00
-2.700000000000000178e+00
2.251999999999999957e+01
-1.044999999999999929e+01
1.480000000000000071e+01
-3.580000000000000071e+00
-1.692000000000000171e+01
1.491000000000000014e+01
-5.019999999999999574e+00
-2.687000000000000099e+01
3.246000000000000085e+01
2.639000000000000057e+01
-3.094999999999999929e+01
2.675000000000000000e+01
-1.399999999999999911e+00
-4.195000000000000284e+01
1.405000000000000071e+01
-1.050000000000000044e+00
1.526999999999999957e+01
6.309999999999999609e+00
9.410000000000000142e+00
3.467999999999999972e+01
-1.122000000000000064e+01
1.260000000000000009e+00
1.694999999999999929e+01
-1.068999999999999950e+01
1.563000000000000078e+01
-7.190000000000000391e+00
-1.117999999999999972e+01
2.746000000000000085e+01
-1.566999999999999993e+01
-1.689000000000000057e+01
3.475000000000000000e+01
-6.629999999999999893e+00
-3.342000000000000171e+01
1.698000000000000043e+01
9.910000000000000142e+00
-2.617999999999999972e+01
1.992000000000000171e+01
5.450000000000000178e+00
-2.055000000000000071e+01
2.035999999999999943e+01
1.840000000000000080e+00
-1.930999999999999872e+01
3.271999999999999886e+01
-7.830000000000000071e+00
-2.612000000000000099e+01
3.411999999999999744e+01
2.020000000000000018e+00
-7.849999999999999645e+00
2.846000000000000085e+01
1.471000000000000085e+01
-3.050000000000000000e+01
3.528999999999999915e+01
5.830000000000000071e+00
-3.001999999999999957e+01
-3.564000000000000057e+01
4.528999999999999915e+01
1.289000000000000057e+01
-4.015999999999999659e+01
9.769999999999999574e+00
2.530999999999999872e+01
-2.758999999999999986e+01
1.658999999999999986e+01
3.087000000000000099e+01
-7.800000000000000266e-01
2.342000000000000171e+01
1.418999999999999950e+01
-1.150499999999999972e+02
3.073999999999999844e+01
-3.310000000000000142e+01
-2.242400000000000091e+02
3.453500000000000227e+02
-1.272399999999999949e+02
6.484999999999999432e+01
-7.898999999999999488e+01
7.900000000000000355e+00
6.669999999999999929e+00
-3.514999999999999858e+01
-1.801000000000000156e+01
-7.276000000000000512e+01
1.757500000000000000e+02
-6.240999999999999659e+01
-5.797999999999999687e+01
8.121999999999999886e+01
-1.780000000000000071e+01
-6.500000000000000222e-01
1.423000000000000043e+01
-5.040000000000000036e+00
-1.817000000000000171e+01
-9.076999999999999602e+01
-2.034300000000000068e+02
2.434399999999999977e+02
8.762999999999999545e+01
-1.744999999999999929e+01
-3.187999999999999901e+01
-3.567999999999999972e+01
3.412300000000000182e+02
-1.225400000000000063e+02
-8.134999999999999432e+01
-5.040000000000000036e+00
-8.550000000000000711e+00
-2.957000000000000028e+01
-4.425999999999999801e+01
1.394999999999999929e+01
5.469999999999999751e+00
-1.296000000000000085e+01
2.048999999999999844e+01
-1.789000000000000057e+01
3.218999999999999773e+01
3.664999999999999858e+01
5.780000000000000249e+00
-3.292999999999999972e+01
2.069000000000000128e+01
8.509999999999999787e+00
-2.523999999999999844e+01
2.673000000000000043e+01
1.360000000000000098e+00
-1.837000000000000099e+01
1.776000000000000156e+01
1.133000000000000007e+01
-1.889999999999999858e+01
1.550000000000000000e+01
1.612999999999999901e+01
4.160999999999999943e+01
2.092999999999999972e+01
-1.435099999999999909e+02
-6.701000000000000512e+01
-6.379999999999999893e+00
9.580000000000000071e+00
-1.429999999999999938e+00
-1.876000000000000156e+01
-2.130000000000000071e+01
-5.746000000000000085e+01
-3.569999999999999840e+00
1.489499999999999886e+02
-7.153000000000000114e+01
-5.128999999999999915e+01
-3.173000000000000043e+01
-2.594999999999999929e+01
3.892999999999999972e+01
-2.530999999999999872e+01
8.193000000000000682e+01
-1.199999999999999956e+00
6.200000000000000178e+00
9.539999999999999147e+00
-1.298000000000000043e+01
-2.605999999999999872e+01
-3.518999999999999773e+01
-1.159999999999999920e+00
2.301999999999999957e+01
4.950000000000000178e+00
1.550000000000000044e+00
-5.450000000000000178e+00
-6.709999999999999432e+01
-9.880000000000000782e+00
3.105000000000000071e+01
3.169999999999999929e+00
-2.521000000000000085e+01
1.415000000000000036e+01
5.127000000000000313e+01
3.133999999999999986e+01
-1.223000000000000043e+01
-3.267999999999999972e+01
-4.964000000000000057e+01
-3.996000000000000085e+01
-5.780000000000000249e+00
1.171500000000000057e+02
-8.310000000000000497e+00
-1.225999999999999979e+01
1.733999999999999986e+01
9.490000000000000213e+00
4.047999999999999687e+01
-5.793999999999999773e+01
2.230999999999999872e+01
-1.415399999999999920e+02
-1.258700000000000045e+02
5.896999999999999886e+01
7.976000000000000512e+01
2.049999999999999822e+00
1.438000000000000078e+01
1.251999999999999957e+01
-1.855000000000000071e+01
1.402999999999999936e+01
1.242999999999999972e+01
-1.316000000000000014e+01
6.121999999999999886e+01
-1.930699999999999932e+02
-2.325900000000000034e+02
2.231899999999999977e+02
2.328999999999999915e+01
1.244099999999999966e+02
-4.293999999999999773e+01
-1.172399999999999949e+02
3.067999999999999972e+01
-3.710999999999999943e+01
3.192999999999999972e+01
-1.353100000000000023e+02
1.148700000000000045e+02
6.645000000000000284e+01
-1.897599999999999909e+02
-4.289000000000000057e+01
2.975000000000000000e+01
7.687999999999999545e+01
3.493999999999999773e+01
7.839999999999999858e+00
-3.307999999999999829e+01
4.640999999999999659e+01
-2.910000000000000142e+01
4.372999999999999687e+01
-8.573999999999999488e+01
-4.457999999999999829e+01
-3.342999999999999972e+01
-3.572999999999999687e+01
6.215999999999999659e+01
-6.271999999999999886e+01
2.714200000000000159e+02
-2.657000000000000028e+01
-7.212999999999999545e+01
-1.699999999999999956e+00
8.751000000000000512e+01
-4.379999999999999893e+00
-2.959999999999999964e+00
-1.873000000000000043e+01
-3.062000000000000099e+01
-6.110000000000000320e+00
-5.843999999999999773e+01
3.879999999999999716e+01
-8.019999999999999574e+00
8.060000000000000497e+00
-5.981000000000000227e+01
3.817999999999999972e+01
-1.370399999999999920e+02
4.385000000000000142e+01
-4.799999999999999822e-01
-7.026000000000000512e+01
1.764999999999999858e+01
1.955999999999999872e+01
-3.907000000000000028e+01
-2.376000000000000156e+01
-7.843999999999999773e+01
2.497400000000000091e+02
2.262000000000000099e+01
-4.764999999999999858e+01
-1.036500000000000057e+02
2.323000000000000043e+01
1.458700000000000045e+02
-8.984000000000000341e+01
-3.467000000000000171e+01
2.629900000000000091e+02
1.036999999999999922e+01
1.135999999999999943e+01
-1.112900000000000063e+02
-4.293999999999999773e+01
3.176000000000000156e+01
-1.397000000000000064e+01
4.600999999999999801e+01
1.023900000000000006e+02
-1.638899999999999864e+02
1.230999999999999943e+02
4.906000000000000227e+01
1.228999999999999915e+01
5.682999999999999829e+01
-4.746000000000000085e+01
-5.282999999999999829e+01
-5.349999999999999645e+00
-2.303999999999999915e+01
1.448000000000000043e+01
-1.499900000000000091e+02
1.119099999999999966e+02
1.112300000000000040e+02
1.078700000000000045e+02
5.439000000000000057e+01
3.967999999999999972e+01
1.583000000000000007e+01
-5.729999999999999716e+01
1.785999999999999943e+02
-1.156200000000000045e+02
2.565899999999999750e+02
8.592000000000000171e+01
-1.001099999999999994e+02
-7.920999999999999375e+01
-1.560999999999999943e+01
1.113299999999999983e+02
1.111500000000000057e+02
-3.888000000000000256e+01
-1.711999999999999886e+02
5.418999999999999773e+01
-7.015999999999999659e+01
-5.146000000000000085e+01
-1.122000000000000064e+01
-8.740000000000000213e+00
9.220000000000000639e+00
-1.447000000000000064e+01
-8.190999999999999659e+01
5.852000000000000313e+01
1.992000000000000171e+01
1.855000000000000071e+01
-1.575000000000000000e+02
3.620000000000000107e+00
8.339000000000000057e+01
2.160000000000000000e+02
-1.780000000000000071e+01
-1.359199999999999875e+02
2.303999999999999915e+01
9.289999999999999147e+00
2.692999999999999972e+01
-9.557999999999999829e+01
1.256000000000000050e+01
-6.260000000000000142e+01
-5.327000000000000313e+01
1.025400000000000063e+02
-1.034000000000000057e+02
-9.098000000000000398e+01
7.610000000000000320e+00
1.675000000000000000e+01
-6.418000000000000682e+01
1.486999999999999922e+01
-5.575000000000000000e+01
9.160000000000000142e+00
1.100000000000000089e+00
-8.369999999999999218e+00
1.083999999999999986e+01
7.212000000000000455e+01
-4.739999999999999858e+01
2.264999999999999858e+01
1.694000000000000128e+01
-2.760999999999999943e+01
1.202999999999999936e+01
4.950000000000000178e+00
-1.871000000000000085e+01
-2.862000000000000099e+01
2.833999999999999986e+01
-6.969999999999999751e+00
1.590000000000000080e+00
2.512999999999999901e+01
-2.580000000000000071e+00
-8.506000000000000227e+01
7.720000000000000284e+01
1.460999999999999943e+02
3.471000000000000085e+01
-9.679999999999999716e+01
-7.846999999999999886e+01
-6.304999999999999716e+01
-1.875200000000000102e+02
8.939999999999999503e+00
2.612000000000000099e+01
5.171999999999999886e+01
4.360000000000000142e+01
-9.939999999999999503e+00
1.789999999999999858e+01
-3.209000000000000341e+01
-8.190000000000000568e+01
9.606999999999999318e+01
1.355000000000000071e+01
-2.600000000000000000e+01
3.910000000000000142e+00
-4.009999999999999787e+00
1.409999999999999920e+00
-1.216000000000000014e+01
3.717000000000000171e+01
1.104000000000000057e+02
-5.825000000000000000e+01
8.642000000000000171e+01
-8.118000000000000682e+01
-2.645500000000000114e+02
9.959999999999999432e+01
7.246999999999999886e+01
6.320000000000000284e+01
4.014000000000000057e+01
-2.094499999999999886e+02
-1.056700000000000017e+02
1.201299999999999955e+02
6.704000000000000625e+01
-8.019999999999999574e+00
2.223000000000000043e+01
1.209599999999999937e+02
-3.776100000000000136e+02
-3.960000000000000142e+01
-2.414999999999999858e+01
2.466899999999999977e+02
4.434000000000000341e+01
2.248999999999999844e+01
-6.625000000000000000e+01
-1.518700000000000045e+02
7.726999999999999602e+01
3.196000000000000085e+01
1.206000000000000050e+01
-2.803999999999999915e+01
7.320000000000000284e+00
2.541000000000000014e+01
-1.264000000000000057e+01
6.400000000000000355e+00
1.108000000000000007e+01
-2.064999999999999858e+01
1.068999999999999950e+01
6.769999999999999574e+00
-1.250000000000000000e+01
3.119000000000000128e+01
5.669999999999999929e+00
-2.321000000000000085e+01
2.446000000000000085e+01
6.290000000000000036e+00
1.502999999999999936e+01
2.180000000000000160e+00
-1.178999999999999915e+01
1.293999999999999950e+01
2.990000000000000213e+00
7.209999999999999432e+01
-2.507999999999999829e+01
-5.847999999999999687e+01
1.073700000000000045e+02
-7.160000000000000142e+00
4.469999999999999751e+00
-2.720000000000000195e+00
-7.417000000000000171e+01
-7.304000000000000625e+01
2.037100000000000080e+02
6.967000000000000171e+01
-1.236500000000000057e+02
-1.449399999999999977e+02
1.215400000000000063e+02
2.154199999999999875e+02
-7.532999999999999829e+01
-6.573999999999999488e+01
1.080000000000000071e+00
-9.637999999999999545e+01
1.549300000000000068e+02
9.996999999999999886e+01
-4.560000000000000142e+01
-1.331200000000000045e+02
1.060300000000000011e+02
1.201099999999999994e+02
-6.810999999999999943e+01
1.879999999999999893e+00
-2.684599999999999795e+02
6.650000000000000355e+00
6.650000000000000000e+01
1.064399999999999977e+02
4.728999999999999915e+01
-4.278999999999999915e+01
1.729999999999999982e+00
1.478199999999999932e+02
8.687000000000000455e+01
-3.333899999999999864e+02
-2.328600000000000136e+02
1.074000000000000057e+02
5.220000000000000284e+01
3.617999999999999972e+01
2.716000000000000014e+01
-3.457999999999999829e+01
-3.653999999999999915e+01
-5.803999999999999915e+01
2.119699999999999989e+02
3.542999999999999972e+01
-4.452000000000000313e+01
1.246000000000000085e+01
-4.802000000000000313e+01
5.142999999999999972e+01
1.591000000000000014e+01
-4.121000000000000085e+01
5.004999999999999716e+01
-1.136999999999999922e+01
-2.714000000000000057e+01
-2.169999999999999929e+00
7.399999999999999911e-01
-1.635999999999999943e+01
1.461999999999999922e+01
-7.269999999999999574e+00
-1.655000000000000071e+01
2.055999999999999872e+01
-1.108000000000000007e+01
-1.855000000000000071e+01
-1.552999999999999936e+01
3.946000000000000085e+01
6.980000000000000426e+00
1.770000000000000018e+00
-2.266000000000000014e+01
1.222000000000000064e+01
3.507000000000000028e+01
-3.126999999999999957e+01
1.682000000000000028e+01
2.035000000000000142e+01
1.480000000000000071e+01
-3.950000000000000178e+00
1.064000000000000057e+01
-3.367000000000000171e+01
-2.028000000000000114e+01
3.162000000000000099e+01
-2.080000000000000071e+00
-2.842999999999999972e+01
1.580000000000000071e+01
-3.700000000000000178e+00
-3.878000000000000114e+01
2.939999999999999858e+01
2.848999999999999844e+01
