1593192268.00
64.000000
-0.00
-0.00
-0.00
-0.00
-0.00
-0.00
-0.00
-0.00
-0.00
-0.00
0.00
0.01
0.01
-0.00
-0.03
-0.05
-0.05
0.00
0.13
0.36
0.66
1.01
1.37
1.72
2.06
2.40
2.79
3.24
3.80
4.42
5.06
5.66
6.20
6.68
7.15
7.68
8.31
9.14
10.09
11.04
11.88
12.56
13.14
13.76
14.65
15.96
17.91
20.32
22.90
25.38
27.58
29.57
31.68
34.32
37.81
42.54
48.15
54.10
59.83
64.97
69.58
74.14
79.34
85.71
93.76
103.00
112.62
121.73
129.77
136.75
143.30
150.75
157.77
166.64
177.95
191.79
206.97
220.57
228.25
225.36
208.53
176.87
132.76
80.05
23.07
-34.94
-92.44
-149.16
-205.23
-260.37
-313.72
-363.84
-409.79
-450.89
-486.54
-515.87
-537.47
-549.56
-550.38
-538.82
-514.67
-479.13
-434.35
-382.98
-327.65
-270.58
-213.48
-157.57
-103.86
-53.25
-6.76
34.70
70.42
100.13
124.01
142.65
156.82
167.25
174.52
178.92
180.62
179.75
176.59
171.61
165.37
158.48
151.34
144.09
136.65
128.80
120.40
111.50
102.38
93.49
85.22
77.77
71.01
64.54
57.92
50.82
43.28
35.65
28.46
22.17
16.97
12.70
8.95
5.28
1.28
-3.35
-8.86
-15.22
-21.88
-27.49
-30.06
-27.63
-19.27
-5.76
10.41
25.91
37.86
44.95
47.65
47.59
46.52
45.44
44.45
43.08
41.00
38.25
35.23
32.35
29.68
26.92
23.59
19.56
15.38
12.16
11.08
12.61
16.08
19.81
21.83
20.83
16.81
10.99
5.14
0.67
-1.88
-2.84
-2.99
-2.96
-3.04
-3.23
-3.46
-3.75
-4.19
-4.80
-5.48
-6.11
-6.51
-6.65
-6.59
-6.47
-6.40
-6.40
-6.36
-6.10
-5.42
-4.18
-2.42
-0.35
1.75
3.60
4.99
5.87
6.27
6.33
6.24
6.13
6.11
6.26
6.56
6.90
7.22
7.51
7.81
8.25
8.89
9.70
10.53
11.18
11.47
11.33
10.75
9.71
8.21
6.29
3.87
1.07
-1.87
-4.66
-7.11
-9.13
-10.79
-12.23
-13.56
-14.83
-15.94
-16.78
-17.17
-17.04
-16.36
-15.17
-13.61
-11.83
-10.04
-8.31
-6.69
-5.13
-3.66
-2.32
-1.25
-0.57
-0.30
-0.42
-0.79
-1.27
-1.76
-2.22
-2.65
-3.07
-3.48
-3.84
-4.07
-4.11
-3.97
-3.72
-3.52
-3.49
-3.69
-4.08
-4.49
-4.77
-4.85
-4.81
-4.83
-5.09
-5.63
-6.40
-7.20
-7.90
-8.43
-8.84
-9.23
-9.76
-10.49
-11.42
-12.51
-13.65
-14.72
-15.53
-15.86
-15.55
-14.49
-12.69
-10.24
-7.25
-3.84
-0.16
3.56
7.07
10.08
12.40
14.06
15.21
16.05
16.69
17.09
17.12
16.68
15.83
14.78
13.78
13.01
12.45
11.93
11.27
10.33
9.17
7.92
6.74
5.72
4.89
4.16
3.41
2.50
1.33
-0.09
-1.65
-3.16
-4.45
-5.44
-6.26
-7.13
-8.33
-10.06
-12.29
-14.76
-17.08
-18.82
-19.63
-19.38
-18.08
-15.92
-13.16
-10.05
-6.85
-3.70
-0.68
2.17
4.86
7.32
9.49
11.23
12.45
13.08
13.17
12.83
12.21
11.44
10.56
9.60
8.51
7.31
5.99
4.59
3.18
1.78
0.37
-1.11
-2.74
-4.61
-6.72
-9.01
-11.35
-13.62
-15.77
-17.85
-19.97
-22.27
-24.78
-27.47
-30.29
-33.21
-36.27
-39.55
-43.03
-46.56
-49.74
-52.10
-53.16
-52.66
-50.61
-47.29
-43.19
-38.75
-34.29
-29.92
-25.58
-21.17
-16.73
-12.51
-8.95
-6.53
-5.58
-6.16
-7.92
-10.26
-12.37
-13.49
-13.07
-10.77
-6.55
-0.55
6.83
14.94
23.02
30.39
36.81
42.62
48.61
55.55
63.59
72.01
79.36
84.15
85.56
83.91
80.37
76.39
72.86
69.84
66.76
62.91
58.01
52.39
46.74
41.72
37.65
34.38
31.54
28.80
26.02
23.29
20.75
18.50
16.46
14.43
12.18
9.57
6.57
3.29
-0.08
-3.39
-6.50
-9.38
-12.03
-14.48
-16.71
-18.64
-20.20
-21.36
-22.18
-22.79
-23.37
-24.03
-24.80
-25.68
-26.59
-27.45
-28.13
-28.46
-28.21
-27.20
-25.36
-22.84
-19.92
-16.94
-14.17
-11.72
-9.55
-7.59
-5.82
-4.31
-3.16
-2.47
-2.14
-1.98
-1.70
-1.08
-0.04
1.31
2.77
4.14
5.31
6.24
6.97
7.52
7.90
8.06
7.99
7.68
7.25
6.86
6.72
6.97
7.62
8.48
9.24
9.54
9.10
7.87
6.01
3.88
1.89
0.37
-0.49
-0.74
-0.59
-0.33
-0.22
-0.34
-0.58
-0.71
-0.55
-0.11
0.37
0.52
0.01
-1.23
-3.01
-4.95
-6.65
-7.86
-8.44
-8.36
-7.64
-6.25
-4.23
-1.70
1.12
3.93
6.47
8.50
9.88
10.57
10.56
9.95
8.92
7.73
6.59
5.68
5.00
4.49
4.02
3.50
2.91
2.33
1.90
1.73
1.90
2.35
2.92
3.40
3.64
3.61
3.44
3.30
3.34
3.52
3.63
3.43
2.73
1.49
-0.21
-2.23
-4.47
-6.84
-9.24
-11.47
-13.29
-14.45
-14.80
-14.34
-13.23
-11.72
-10.06
-8.45
-6.99
-5.67
-4.39
-3.03
-1.48
0.18
1.75
2.95
3.51
3.38
2.70
1.81
1.03
0.58
0.47
0.56
0.68
0.76
0.83
1.03
1.39
1.83
2.16
2.17
1.80
1.14
0.44
-0.10
-0.41
-0.57
-0.79
-1.29
-2.20
-3.51
-5.14
-7.02
-9.06
-11.19
-13.23
-14.97
-16.13
-16.51
-16.04
-14.83
-13.15
-11.31
-9.60
-8.13
-6.87
-5.70
-4.44
-3.04
-1.52
-0.06
1.13
1.88
2.07
1.71
0.86
-0.35
-1.79
-3.32
-4.85
-6.36
-7.84
-9.30
-10.71
-11.97
-12.89
-13.33
-13.19
-12.55
-11.56
-10.43
-9.35
-8.44
-7.86
-7.74
-8.21
-9.36
-11.10
-13.23
-15.40
-17.21
-18.19
-17.95
-16.18
-12.84
-8.21
-2.80
2.79
8.19
13.33
18.40
23.62
28.96
34.12
38.60
42.00
44.20
45.34
45.70
45.53
44.89
43.79
42.19
40.12
37.72
35.15
32.60
30.25
28.25
26.65
25.39
24.27
23.09
21.72
20.21
18.70
17.33
16.20
15.30
14.62
14.21
14.19
14.69
15.78
17.38
19.34
21.46
23.68
26.03
28.71
31.93
35.85
40.52
45.81
51.48
57.21
62.66
67.54
71.61
74.59
76.11
75.69
72.85
67.27
58.90
47.99
35.02
20.61
5.50
-9.49
-23.53
-35.92
-46.26
-54.53
-61.11
-66.48
-71.00
-74.68
-77.18
-77.94
-76.43
-72.42
-66.10
-58.06
-49.25
-40.83
-33.80
-28.78
-25.76
-24.17
-23.15
-22.04
-20.69
-19.47
-19.02
-19.76
-21.56
-23.69
-25.17
-25.21
-23.57
-20.63
-17.23
-14.26
-12.28
-11.43
-11.41
-11.76
-12.10
-12.29
-12.47
-12.92
-13.90
-15.45
-17.36
-19.22
-20.59
-21.23
-21.20
-20.82
-20.50
-20.53
-20.96
-21.62
-22.22
-22.51
-22.37
-21.83
-20.98
-19.98
-19.02
-18.28
-17.95
-18.14
-18.82
-19.76
-20.68
-21.28
-21.46
-21.33
-21.08
-20.82
-20.45
-19.64
-18.00
-15.24
-11.34
-6.60
-1.49
3.50
7.94
11.59
14.38
16.35
17.62
18.37
18.76
18.93
18.94
18.72
18.18
17.23
15.87
14.23
12.46
10.71
9.03
7.39
5.74
4.05
2.37
0.76
-0.67
-1.89
-2.91
-3.77
-4.51
-5.10
-5.54
-5.82
-6.01
-6.23
-6.62
-7.28
-8.23
-9.45
-10.90
-12.54
-14.30
-16.05
-17.56
-18.57
-18.86
-18.35
-17.13
-15.35
-13.13
-10.51
-7.46
-4.04
-0.44
2.98
5.82
7.80
8.92
9.38
9.52
9.62
9.78
9.96
10.05
9.94
9.67
9.32
9.02
8.86
8.84
8.87
8.85
8.70
8.43
8.12
7.85
7.68
7.58
7.43
7.10
6.48
5.55
4.36
3.04
1.73
0.57
-0.40
-1.19
-1.93
-2.79
-3.88
-5.15
-6.35
-7.08
-7.01
-5.96
-4.05
-1.54
1.24
4.08
6.86
9.58
12.17
14.51
16.40
17.62
18.03
17.64
16.56
15.07
13.47
12.06
11.01
10.31
9.81
9.32
8.74
8.15
7.75
7.67
7.88
8.08
7.87
6.94
5.18
2.81
0.18
-2.35
-4.62
-6.64
-8.48
-10.11
-11.36
-12.06
-12.16
-11.90
-11.73
-12.03
-12.88
-13.90
-14.47
-14.02
-12.37
-9.82
-6.93
-4.15
-1.56
1.10
4.19
7.87
11.90
15.72
18.75
20.62
21.33
21.15
20.48
19.63
18.73
17.71
16.44
14.85
12.98
10.94
8.90
6.89
4.83
2.57
-0.01
-2.83
-5.68
-8.30
-10.53
-12.43
-14.18
-16.03
-18.02
-19.98
-21.52
-22.22
-21.83
-20.43
-18.42
-16.41
-15.01
-14.58
-15.17
-16.45
-17.88
-18.86
-18.88
-17.65
-15.04
-11.12
-6.12
-0.48
5.23
10.39
14.54
17.54
19.65
21.31
22.97
24.86
26.93
28.95
30.68
31.94
32.70
32.93
32.56
31.48
29.60
27.01
23.94
20.69
17.54
14.62
11.92
9.38
6.94
4.58
2.26
-0.14
-2.82
-5.99
-9.73
-13.88
-18.03
-21.69
-24.52
-26.50
-27.90
-29.18
-30.76
-32.79
-35.16
-37.54
-39.58
-41.03
-41.81
-41.96
-41.64
-41.05
-40.52
-40.41
-41.01
-42.33
-44.01
-45.34
-45.57
-44.24
-41.29
-37.06
-31.98
-26.44
-20.74
-15.20
-10.24
-6.21
-3.21
-0.84
1.65
4.93
9.05
13.18
15.99
16.27
13.71
9.15
4.18
0.35
-1.52
-1.58
-0.68
0.33
1.02
1.40
1.57
1.33
0.00
-3.24
-8.77
-16.13
-23.94
-30.40
-33.93
-33.81
-30.31
-24.59
-18.15
-12.28
-7.62
-4.09
-1.03
2.34
6.46
11.21
16.01
20.13
23.10
24.95
26.15
27.36
29.13
31.82
35.47
40.04
45.35
51.18
57.24
63.21
68.85
74.01
78.61
82.50
85.43
87.11
87.28
85.92
83.18
79.30
74.45
68.65
61.78
53.75
44.62
34.65
24.27
14.02
4.55
-3.45
-9.34
-12.65
-13.32
-11.82
-9.10
-6.37
-4.73
-4.81
-6.68
-9.87
-13.54
-16.78
-18.85
-19.41
-18.59
-17.06
-15.73
-15.54
-17.06
-20.36
-24.92
-29.90
-34.44
-37.97
-40.30
-41.58
-42.12
-42.18
-41.95
-41.53
-40.98
-40.40
-39.83
-39.19
-38.20
-36.53
-33.96
-30.56
-26.71
-23.01
-19.98
-17.92
-16.82
-16.45
-16.47
-16.51
-16.24
-15.35
-13.62
-10.98
-7.56
-3.64
0.42
4.34
7.93
11.11
13.81
15.91
17.27
17.74
17.33
16.13
14.36
12.26
10.05
7.90
5.92
4.22
2.89
2.03
1.68
1.87
2.52
3.48
4.57
5.62
6.50
7.13
7.54
7.77
7.88
7.94
8.01
8.12
8.29
8.55
8.85
9.07
9.03
8.50
7.26
5.24
2.54
-0.56
-3.59
-6.12
-7.84
-8.65
-8.67
-8.15
-7.32
-6.31
-5.17
-3.87
-2.41
-0.83
0.74
2.11
3.08
3.51
3.36
2.76
1.99
1.35
1.09
1.27
1.78
2.36
2.75
2.81
2.52
2.00
1.37
0.73
0.14
-0.35
-0.72
-0.88
-0.80
-0.48
-0.00
0.52
0.97
1.27
1.46
1.57
1.58
1.39
0.78
-0.43
-2.24
-4.42
-6.53
-8.10
-8.79
-8.48
-7.30
-5.51
-3.44
-1.48
-0.06
0.43
-0.30
-2.30
-5.38
-9.10
-12.99
-16.70
-20.06
-23.07
-25.88
-28.71
-31.79
-35.30
-39.13
-42.74
-45.11
-44.93
-41.11
-33.18
-21.65
-7.95
5.96
18.23
27.73
34.37
39.07
43.30
48.44
55.30
63.86
73.48
83.34
92.87
101.97
110.78
119.43
127.84
135.70
142.50
147.47
149.36
146.37
136.62
119.11
94.81
67.12
41.05
21.57
11.81
12.12
20.59
34.44
51.20
69.13
86.55
101.21
110.26
111.25
103.41
88.43
69.87
51.67
36.18
23.20
10.40
-5.10
-25.25
-50.19
-78.71
-109.18
-140.38
-171.52
-201.61
-228.86
-250.74
-264.78
-269.74
-266.24
-256.39
-242.67
-226.66
-208.67
-188.35
-165.79
-142.40
-120.66
-103.07
-90.82
-83.16
-77.71
-71.63
-63.01
-51.68
-39.11
-27.56
-18.87
-13.52
-10.43
-7.65
-3.47
2.64
9.80
16.24
20.43
21.87
21.36
20.36
20.20
21.39
23.61
26.21
28.74
31.16
33.64
36.21
38.56
40.19
40.88
40.85
40.67
40.82
41.18
40.91
38.81
34.23
27.88
22.09
20.22
25.36
38.92
59.81
84.73
109.39
130.25
145.68
156.17
163.49
169.37
174.57
178.56
180.12
177.89
170.86
158.47
140.39
116.44
86.93
53.04
17.13
-17.55
-47.68
-70.94
-86.71
-96.15
-101.46
-104.89
-107.90
-110.89
-113.60
-115.61
-116.71
-116.82
-115.67
-112.69
-107.14
-98.66
-87.70
-75.61
-64.04
-54.17
-46.24
-39.58
-33.21
-26.64
-20.26
-15.01
-11.76
-10.48
-10.10
-8.86
-5.16
1.61
10.77
20.68
29.43
35.67
38.89
39.42
37.89
34.81
30.42
24.75
18.02
10.83
4.12
-1.18
-4.48
-5.66
-4.99
-2.78
0.75
5.47
11.24
17.75
24.58
31.37
37.88
43.91
49.08
52.64
53.63
51.23
45.30
36.56
26.49
16.73
8.56
2.51
-1.51
-3.88
-4.90
-4.60
-2.99
-0.36
2.48
4.32
3.92
0.55
-5.61
-13.42
-21.25
-27.49
-31.16
-32.15
-31.12
-29.20
-27.65
-27.51
-29.44
-33.62
-39.67
-46.75
-53.64
-59.10
-62.14
-62.31
-59.74
-54.95
-48.61
-41.40
-33.90
-26.56
-19.80
-13.95
-9.04
-4.79
-0.51
4.59
11.04
18.76
26.97
34.25
39.02
40.14
37.32
31.24
23.24
14.58
6.20
-1.49
-8.54
-15.21
-21.62
-27.65
-33.04
-37.56
-41.44
-44.91
-48.17
-51.34
-54.41
-57.16
-59.22
-60.03
-58.82
-55.14
-48.36
-38.10
-24.63
-9.09
6.51
19.50
27.14
29.59
26.48
18.64
8.22
-1.99
-9.63
-13.20
-11.97
-5.68
5.50
20.40
37.31
53.91
67.80
77.44
82.50
83.25
80.49
75.25
68.24
60.13
51.36
42.25
33.28
25.25
18.98
15.20
14.25
16.06
20.01
24.84
29.22
32.32
34.31
35.70
36.93
37.96
38.12
36.43
31.74
23.36
11.53
-2.51
-17.44
-32.30
-46.33
-58.65
-65.50
-63.21
-51.20
-33.70
-17.38
-8.27
-9.05
-18.31
-31.63
-43.79
-51.37
-53.69
-53.42
-51.72
-48.97
-44.79
-38.27
-28.90
-17.11
-4.66
6.10
13.31
16.77
17.47
16.64
15.93
16.69
19.47
23.48
27.01
28.27
26.31
21.00
13.06
3.83
-5.36
-13.59
-20.49
-25.95
-29.63
-30.91
-29.37
-25.20
-19.36
-13.47
-9.37
-8.52
-11.46
-17.53
-25.43
-33.99
-42.62
-51.30
-60.44
-70.50
-81.60
-93.22
-103.60
-110.61
-112.43
-108.16
-97.79
-82.18
-62.61
-40.15
-15.20
13.36
46.13
81.87
117.47
148.95
172.86
187.22
191.97
188.73
181.53
173.83
167.20
161.50
156.10
150.78
145.89
142.33
141.35
146.03
157.78
174.69
191.88
203.50
204.96
194.25
172.33
131.27
72.70
7.61
-49.91
-92.26
-120.59
-139.93
-154.33
-164.87
-170.38
-167.70
-155.87
-137.67
-118.32
-102.65
-93.13
-90.11
-92.67
-99.11
-105.79
-108.97
-106.74
-98.17
-83.28
-62.69
-38.18
-12.41
11.94
32.75
49.59
63.11
73.27
77.88
73.21
55.21
22.85
-19.14
-59.67
-85.04
-85.29
-59.43
-17.93
24.40
52.49
57.68
41.01
11.84
-17.63
-38.55
-47.92
-49.73
-50.08
-52.77
-57.08
-59.10
-55.19
-44.87
-31.55
-20.79
-17.36
-22.75
-35.05
-49.85
-61.65
-65.73
-59.25
-41.98
-16.56
12.05
38.74
59.06
70.81
74.53
72.71
68.26
63.10
56.90
49.74
41.30
32.03
23.47
17.45
15.07
16.01
18.82
21.58
22.93
22.39
20.48
18.31
16.83
16.48
17.03
17.90
18.74
19.90
22.03
25.45
29.29
31.37
28.91
19.98
4.58
-15.10
-35.49
-53.03
-64.95
-69.68
-66.93
-57.37
-42.63
-25.56
-9.74
1.70
7.09
7.02
3.91
0.77
-0.23
1.28
4.11
6.57
7.38
6.29
3.91
1.12
-1.61
-4.36
-7.58
-11.57
-15.87
-19.27
-20.42
-18.68
-14.76
-10.45
-7.73
-7.65
-9.75
-12.34
-13.58
-12.49
-9.35
-5.42
-2.14
-0.42
-0.34
-1.26
-2.36
-3.01
-3.07
-2.88
-3.00
-3.82
-5.35
-7.13
-8.50
-9.00
-8.73
-8.29
-8.38
-9.36
-10.98
-12.57
-13.47
-13.42
-12.74
-12.05
-11.80
-11.87
-11.68
-10.48
-7.70
-3.64
1.19
6.12
10.65
14.58
17.99
21.12
24.36
28.04
32.40
37.45
42.77
47.56
50.86
51.97
50.68
47.38
42.77
37.49
31.95
26.20
20.19
13.93
7.63
1.62
-3.83
-8.63
-12.93
-16.90
-20.62
-23.92
-26.35
-27.28
-26.21
-22.95
-17.84
-11.67
-5.34
0.45
5.48
10.05
14.66
19.74
25.39
31.34
37.20
42.67
47.68
52.34
56.67
60.35
62.69
62.83
60.20
55.06
48.58
42.64
39.04
38.77
41.49
45.76
49.73
52.05
52.44
51.64
50.80
50.81
51.81
53.51
55.51
57.68
59.99
62.11
63.19
61.94
57.11
48.04
35.08
19.44
2.50
-14.88
-32.68
-51.32
-70.84
-90.33
-107.98
-121.59
-129.46
-131.23
-127.98
-121.69
-114.18
-106.37
-98.25
-89.85
-81.32
-72.96
-65.19
-58.34
-52.33
-46.71
-40.90
-34.70
-29.54
-26.95
-27.59
-31.23
-37.17
-44.81
-53.55
-62.56
-70.71
-78.28
-85.06
-90.12
-92.42
-91.95
-89.86
-87.74
-86.77
-87.34
-91.44
-100.04
-112.47
-126.75
-140.75
-152.67
-160.81
-163.28
-145.17
-100.75
-36.83
30.98
88.76
129.78
153.34
161.90
158.95
148.20
131.04
109.88
89.16
74.00
68.35
73.47
87.38
105.52
122.65
133.11
134.59
128.70
119.23
109.52
100.70
91.75
79.94
63.91
42.58
18.34
-4.25
-21.13
-31.07
-35.50
-36.83
-36.86
-36.06
-34.74
-32.89
-30.57
-27.90
-25.01
-22.03
-19.18
-17.02
-15.91
-16.27
-17.84
-19.75
-20.94
-20.69
-18.80
-15.75
-12.65
-10.46
-9.97
-11.59
-15.71
-22.41
-30.70
-37.89
-39.80
-33.21
-16.08
9.88
39.63
66.41
84.47
91.46
88.14
79.80
71.71
66.65
63.68
59.41
50.04
33.62
11.11
-14.22
-38.30
-58.42
-73.60
-85.12
-93.29
-97.43
-95.66
-85.93
-67.65
-42.93
-16.65
5.54
19.62
25.05
25.02
24.27
26.42
32.22
39.68
45.78
48.68
48.83
48.17
47.99
47.57
44.25
35.13
19.21
-1.56
-22.78
-39.54
-48.29
-48.01
-40.06
-27.15
-12.02
3.20
17.08
28.73
37.41
42.50
43.48
40.29
33.01
22.90
11.98
2.62
-3.27
-4.89
-2.90
0.94
4.52
6.08
5.07
1.96
-2.14
-6.04
-9.06
-11.15
-12.74
-14.45
-16.67
-19.30
-21.93
-24.03
-25.16
-25.14
-23.87
-21.23
-17.08
-11.35
-4.12
4.11
12.42
19.47
23.89
24.81
22.26
17.25
11.46
6.75
4.32
4.37
6.21
8.82
11.59
14.67
18.58
23.77
30.34
37.94
46.20
55.07
64.73
75.19
85.62
93.98
97.59
94.47
84.26
68.60
50.45
32.65
17.05
5.10
-3.57
-11.19
-20.45
-33.17
-49.42
-67.34
-83.81
-95.39
-99.65
-96.26
-87.65
-77.39
-68.63
-62.94
-60.13
-58.69
-56.72
-52.93
-47.33
-41.98
-38.71
-38.03
-38.94
-40.04
-40.78
-41.88
-44.72
-50.42
-60.03
-72.37
-84.32
-92.48
-95.36
-94.23
-92.05
-91.51
-85.05
-67.68
-39.48
-5.84
26.81
53.86
73.29
85.52
93.05
99.22
105.21
110.25
111.44
104.65
86.21
55.71
17.90
-17.88
-41.16
-46.00
-32.94
-8.59
17.81
38.52
50.43
55.17
56.67
58.02
59.04
57.80
52.94
45.34
37.90
34.14
36.38
44.52
55.83
65.65
69.55
65.11
53.57
38.56
25.58
19.55
22.31
31.41
40.76
43.49
35.29
16.50
-8.25
-32.35
-50.53
-61.06
-65.88
-68.77
-72.96
-79.72
-88.18
-96.36
-102.23
-104.45
-102.41
-95.98
-85.36
-71.23
-54.75
-37.44
-20.92
-6.41
5.40
14.29
20.34
23.75
24.92
24.48
23.32
22.30
22.02
22.54
23.57
24.53
24.89
24.36
23.02
21.26
19.59
18.41
17.93
17.99
18.17
17.93
16.83
14.69
11.70
8.35
5.32
3.31
2.76
3.72
5.79
8.24
10.25
11.23
10.85
9.09
6.02
1.68
-3.83
-10.24
-16.89
-22.65
-26.24
-26.59
-23.21
-16.41
-7.22
2.89
12.39
20.02
24.96
26.88
25.84
22.15
16.21
8.44
-0.53
-9.80
-18.12
-24.21
-27.19
-27.06
-24.85
-22.34
-21.35
-23.07
-27.68
-34.46
-42.30
-50.19
-57.53
-63.99
-69.44
-73.80
-77.23
-80.38
-84.36
-90.44
-99.45
-111.26
-124.48
-136.85
-145.89
-149.72
-147.56
-139.98
-128.66
-116.04
-104.62
-96.13
-90.82
-87.17
-82.25
-73.00
-57.57
-36.05
-10.32
17.08
44.19
70.25
95.32
119.26
140.64
156.64
164.00
160.75
147.61
128.31
108.41
93.14
85.17
83.68
85.02
84.85
80.44
72.01
62.50
55.83
54.67
59.29
67.64
76.81
84.69
90.89
96.56
103.28
111.66
120.69
127.93
130.51
126.31
114.86
97.40
76.31
54.05
32.37
12.14
-6.05
-21.26
-31.93
-36.38
-33.85
-25.26
-13.31
-1.50
7.35
12.39
14.92
17.59
22.83
31.45
42.27
52.77
60.41
63.65
62.31
57.19
49.45
40.08
29.85
19.63
10.47
3.46
-0.81
-2.69
-3.52
-5.30
-9.90
-18.39
-30.68
-45.54
-60.91
-74.45
-84.06
-88.58
-88.19
-84.45
-79.85
-76.96
-77.36
-81.14
-86.97
-92.89
-97.31
-99.57
-99.88
-98.79
-96.52
-92.65
-86.37
-77.11
-65.04
-51.19
-37.00
-23.76
-12.13
-2.00
7.16
15.80
23.97
31.24
37.03
41.01
43.38
44.81
46.08
47.61
49.24
50.35
50.24
48.63
45.86
42.80
40.41
39.31
39.51
40.43
41.14
40.72
38.53
34.43
28.76
22.31
16.12
11.33
8.99
9.82
13.90
20.43
27.57
32.71
33.27
27.85
17.16
4.17
-6.92
-12.39
-10.60
-2.64
8.43
19.08
26.78
30.60
30.78
27.87
22.18
13.79
3.18
-8.48
-19.53
-28.63
-35.32
-39.83
-42.12
-41.06
-34.42
-20.28
1.23
26.81
50.65
66.84
71.97
66.69
55.08
42.38
32.39
26.06
21.82
17.26
10.72
1.98
-8.07
-18.30
-27.99
-36.91
-45.02
-52.12
-57.91
-62.15
-64.91
-66.58
-67.77
-69.00
-70.68
-73.04
-76.01
-79.17
-81.57
-81.69
-77.71
-68.18
-52.75
-32.66
-10.68
9.66
25.24
34.38
37.32
35.97
32.93
30.50
29.77
30.50
31.54
31.57
29.76
26.09
21.21
16.00
11.11
6.71
2.61
-1.40
-5.22
-8.45
-10.54
-11.15
-10.55
-9.54
-9.23
-10.61
-14.16
-19.78
-26.81
-34.40
-41.77
-48.47
-54.33
-59.32
-63.20
-65.45
-65.32
-62.14
-55.71
-46.55
-35.70
-24.39
-13.49
-3.23
6.80
17.28
28.71
41.03
53.45
64.70
73.48
78.84
80.55
79.08
75.31
70.13
64.10
57.42
50.21
42.81
35.87
30.16
26.09
23.25
20.54
16.60
10.64
2.99
-4.84
-10.93
-13.89
-13.72
-11.82
-10.40
-11.45
-15.83
-23.00
-31.38
-39.15
-45.09
-48.94
-51.29
-53.01
-54.72
-56.45
-57.76
-58.02
-56.78
-53.83
-49.07
-42.41
-33.70
-22.96
-10.67
2.11
13.93
23.54
30.38
34.78
37.63
39.91
42.09
43.99
45.01
44.64
42.80
39.89
36.61
33.57
31.12
29.25
27.73
26.24
24.58
22.65
20.51
18.26
16.00
13.71
11.32
8.73
6.02
3.44
1.32
-0.13
-1.04
-1.90
-3.41
-6.11
-10.04
-14.67
-19.12
-22.51
-24.40
-25.02
-25.09
-25.42
-26.46
-28.04
-29.40
-29.56
-27.77
-23.90
-18.39
-12.05
-5.54
0.87
7.32
14.06
21.10
27.96
33.82
37.90
39.85
39.93
38.92
37.67
36.73
36.16
35.55
34.35
32.21
29.20
25.80
22.73
20.58
19.52
19.13
18.52
16.75
13.26
8.29
2.84
-1.68
-4.26
-4.76
-4.26
-4.46
-6.95
-12.32
-19.73
-27.31
-33.05
-35.80
-35.84
-34.63
-33.95
-35.11
-38.56
-44.14
-51.51
-60.25
-69.29
-76.30
-77.82
-70.43
-52.62
-26.35
2.97
28.38
44.28
48.76
44.11
35.11
26.35
20.11
15.91
11.71
5.80
-1.88
-9.74
-15.47
-17.33
-15.14
-10.43
-5.66
-3.10
-3.65
-6.36
-8.68
-7.65
-1.36
9.86
23.45
35.63
43.24
45.25
43.05
39.60
37.57
38.00
39.82
40.91
39.56
35.70
30.93
27.56
27.14
29.41
32.43
33.54
30.89
24.33
15.44
6.74
0.40
-2.66
-2.89
-1.57
0.01
1.15
1.87
2.64
3.96
6.00
8.53
11.10
13.36
15.19
16.76
18.28
19.76
21.00
21.57
21.09
19.45
16.96
14.33
12.30
11.22
10.86
10.77
10.52
9.89
9.00
8.11
7.38
6.66
5.45
3.19
0.20
-2.57
-4.00
-3.51
-1.37
1.37
3.30
3.07
0.02
-4.78
-9.31
-11.72
-11.39
-9.31
-7.53
-8.21
-12.81
-21.15
-30.35
-36.41
-36.17
-28.70
-15.39
1.75
21.35
43.22
62.36
74.34
77.42
73.57
66.01
56.99
48.82
43.73
42.11
41.24
36.60
23.36
-0.67
-33.17
-67.94
-98.36
-118.74
-127.54
-127.79
-124.18
-120.96
-119.87
-116.91
-110.84
-101.13
-88.67
-75.94
-65.29
-57.06
-50.39
-43.87
-36.99
-31.27
-28.77
-31.02
-37.89
-46.35
-50.44
-45.14
-26.75
3.71
40.29
74.80
100.21
112.81
111.25
100.73
87.44
75.98
67.94
62.27
57.16
51.13
43.39
34.01
23.80
13.02
1.63
-11.02
-25.10
-39.46
-51.63
-58.94
-59.93
-55.15
-47.52
-40.63
-37.01
-37.09
-39.22
-40.57
-38.80
-32.05
-19.73
-3.11
14.95
30.27
38.83
37.99
27.74
10.93
-7.70
-23.55
-33.55
-37.44
-36.77
-33.06
-26.34
-14.83
3.20
27.20
53.18
75.22
86.87
85.05
72.21
55.63
44.44
44.70
57.09
77.81
102.52
127.63
151.53
173.63
192.06
203.45
203.22
188.03
153.18
106.19
59.37
23.36
2.60
-7.26
-11.60
-14.47
-18.08
-23.36
-30.40
-41.23
-59.22
-83.94
-114.53
-148.10
-181.17
-210.91
-236.24
-257.51
-277.63
-300.14
-328.83
-365.67
-409.01
-453.54
-490.95
-511.84
-508.35
-477.57
-421.79
-348.33
-266.11
-182.50
-101.57
-23.68
53.37
131.87
206.72
278.27
341.08
388.03
412.10
408.91
378.87
327.66
263.91
197.24
135.97
86.48
52.28
33.76
29.34
36.56
52.45
72.13
91.09
105.93
117.60
129.68
145.80
168.70
199.32
236.47
275.40
311.37
320.97
291.24
228.17
152.53
85.30
37.57
16.96
13.57
17.21
19.30
16.65
8.86
-7.92
-33.86
-65.46
-96.05
-119.60
-130.70
-127.72
-110.99
-84.53
-55.86
-34.80
-26.90
-29.53
-36.24
-40.83
-41.80
-40.11
-38.43
-38.90
-42.36
-47.94
-54.20
-61.14
-69.43
-80.46
-94.64
-111.98
-130.58
-148.84
-164.99
-177.13
-183.94
-184.25
-177.54
-163.89
-144.41
-121.06
-96.17
-71.41
-47.78
-26.16
-7.46
7.47
18.34
25.61
30.45
34.05
37.34
40.77
44.43
48.43
53.19
59.19
66.39
73.99
80.44
84.28
84.89
82.71
79.10
75.56
73.09
71.79
70.94
69.43
66.35
61.38
54.81
47.29
39.44
31.60
23.79
16.00
8.58
2.30
-1.76
-2.72
-0.19
5.36
12.87
21.01
28.43
33.86
36.16
34.62
29.35
21.60
13.59
8.09
7.57
13.37
25.28
41.69
60.26
78.42
93.71
103.50
105.45
98.12
81.59
57.71
29.88
2.37
-20.73
-36.36
-43.70
-42.77
-33.56
-15.95
9.38
40.03
72.00
101.24
125.74
145.22
162.69
182.79
208.35
236.96
260.73
269.83
257.32
222.50
167.98
100.13
26.91
-44.52
-109.39
-165.23
-210.38
-243.56
-264.88
-280.74
-299.28
-326.38
-362.89
-405.22
-447.56
-484.08
-510.94
-504.62
-454.40
-368.58
-270.13
-179.94
-106.90
-50.47
-7.24
25.53
49.76
64.19
69.85
71.56
75.62
85.48
99.13
110.82
114.94
109.78
95.53
76.30
58.57
48.46
49.00
59.48
77.02
98.09
119.36
135.80
143.13
139.67
126.93
108.44
88.26
70.42
56.67
48.46
45.25
45.51
46.90
46.73
42.86
34.92
24.93
16.33
13.17
16.02
21.93
26.43
25.73
18.81
7.82
-3.14
-10.42
-12.15
-9.31
-4.21
0.64
3.41
3.42
0.95
-3.46
-9.49
-16.83
-25.35
-33.78
-40.15
-42.57
-39.92
-32.20
-20.68
-7.68
5.57
15.67
20.60
19.89
13.55
1.63
-14.86
-33.42
-50.70
-63.04
-68.22
-65.15
-54.67
-39.88
-24.80
-13.08
-6.73
-6.44
-11.75
-22.28
-35.46
-47.23
-55.11
-59.13
-60.04
-56.28
-46.88
-28.22
0.39
36.89
77.20
116.66
150.06
169.08
169.06
152.01
125.70
97.58
71.81
51.25
32.79
14.80
-2.17
-16.22
-26.60
-33.59
-39.10
-45.12
-52.17
-59.77
-65.86
-67.68
-62.37
-48.80
-27.98
-3.41
20.05
38.02
46.75
43.20
27.66
5.92
-14.45
-28.50
-35.62
-37.57
-34.87
-27.18
-14.23
2.36
18.64
28.63
27.49
13.13
-13.49
-46.68
-78.99
-102.66
-111.63
-102.77
-77.35
-39.67
7.16
52.18
86.80
107.09
113.96
110.34
101.68
88.06
69.28
46.05
19.41
-8.36
-36.41
-61.26
-77.68
-80.12
-65.39
-33.78
9.29
53.00
89.19
109.60
109.39
88.81
52.62
7.16
-41.71
-88.61
-127.17
-145.31
-135.90
-103.23
-61.70
-26.27
-5.23
1.87
1.40
1.23
6.71
17.81
30.72
40.91
45.89
45.72
42.33
37.68
32.18
23.81
9.11
-13.38
-41.13
-67.60
-84.77
-86.42
-70.73
-38.83
-0.28
33.34
53.57
57.74
48.82
32.81
15.57
0.71
-10.79
-19.98
-27.80
-34.07
-37.46
-36.40
-30.25
-20.11
-8.82
0.23
4.15
2.26
-3.89
-11.33
-17.07
-19.39
-18.29
-15.41
-12.68
-11.24
-10.36
-7.75
-0.91
11.42
28.29
46.97
63.53
74.89
79.81
79.22
75.28
70.01
64.37
57.65
49.87
41.03
32.09
24.80
20.91
21.36
25.67
32.02
37.63
39.48
34.99
23.18
5.23
-15.79
-35.59
-50.28
-57.73
-58.33
-54.59
-50.30
-49.10
-52.42
-59.87
-69.14
-76.87
-79.66
-75.28
-63.20
-44.82
-22.78
-0.12
20.36
36.50
46.61
49.30
43.75
30.33
11.42
-8.62
-24.36
-31.42
-27.89
-15.86
-0.33
12.89
19.30
17.62
9.95
0.73
-5.59
-6.50
-2.68
2.65
5.73
4.51
0.07
-3.83
-2.74
5.83
20.86
37.96
51.28
55.99
50.23
35.55
15.80
-4.48
-21.50
-32.85
-37.54
-35.69
-28.07
-15.79
-0.19
17.05
33.77
47.34
55.18
55.58
48.53
35.83
20.64
6.31
-4.88
-12.13
-15.96
-17.11
-15.86
-12.06
-5.82
2.35
11.16
18.78
23.41
23.91
20.45
14.32
7.28
0.72
-3.79
-4.97
-2.74
1.58
5.58
7.21
5.57
1.24
-4.83
-10.67
-14.50
-16.30
-16.53
-17.52
-21.42
-29.37
-41.27
-56.93
-74.51
-90.96
-103.24
-108.93
-106.46
-95.03
-75.35
-44.55
-9.75
17.60
31.28
33.80
32.18
32.34
36.44
42.71
47.33
46.10
38.47
27.55
17.54
11.21
8.92
9.12
9.47
8.06
3.46
-3.42
-10.00
-13.94
-14.36
-12.02
-8.58
-5.86
-4.45
-4.47
-4.64
-3.27
0.39
5.59
10.59
13.87
14.93
14.54
13.81
13.93
15.27
16.76
16.38
12.36
4.26
-6.54
-17.38
-25.60
-29.09
-27.49
-22.41
-16.77
-13.34
-14.15
-19.80
-29.20
-40.19
-49.60
-55.46
-57.99
-59.19
-61.23
-65.25
-70.95
-77.01
-81.93
-82.87
-78.23
-68.76
-56.88
-45.02
-34.73
-26.77
-21.52
-19.05
-16.20
-10.16
-0.60
10.61
21.63
31.98
42.35
54.05
68.71
91.70
127.00
174.18
228.53
284.00
335.24
378.26
410.59
407.73
358.16
272.66
176.93
91.95
25.96
-21.40
-53.65
-74.83
-88.32
-94.60
-93.95
-88.78
-83.04
-79.43
-78.57
-79.94
-82.99
-86.77
-88.17
-85.36
-79.06
-71.93
-66.48
-64.16
-65.58
-70.40
-77.56
-81.16
-76.91
-64.81
-48.46
-31.98
-18.08
-8.00
-1.85
0.03
-2.36
-9.53
-21.63
-37.35
-53.62
-66.78
-75.65
-79.10
-77.84
-73.57
-68.50
-63.99
-60.11
-56.20
-51.98
-48.04
-44.92
-43.59
-44.62
-47.74
-51.40
-51.91
-46.19
-32.99
-13.18
11.33
37.45
62.33
84.36
104.02
123.35
144.12
166.08
180.25
178.48
158.02
124.24
86.77
54.09
30.55
17.35
9.17
1.59
-6.59
-14.12
-18.60
-18.30
-13.59
-6.54
-0.41
1.49
-2.30
-10.95
-22.19
-33.32
-42.16
-47.53
-48.86
-46.04
-39.41
-29.30
-16.66
-3.33
8.36
16.07
18.30
15.41
9.58
3.62
1.59
5.14
11.52
15.94
15.29
9.76
2.63
-3.14
-5.95
-5.83
-4.44
-3.78
-4.97
-7.38
-10.12
-12.23
-13.24
-13.37
-13.44
-14.74
-18.10
-23.18
-28.62
-32.85
-34.62
-33.81
-31.53
-29.49
-29.30
-31.50
-35.37
-39.35
-42.02
-42.35
-40.55
-37.97
-36.24
-36.23
-37.47
-38.33
-36.82
-31.59
-21.98
-9.03
4.78
16.72
25.25
30.68
34.52
38.53
43.82
51.28
60.78
71.20
80.99
88.84
93.40
92.69
84.18
62.12
26.95
-12.79
-45.46
-64.23
-69.33
-64.98
-55.34
-42.12
-24.69
-1.76
24.89
49.22
62.88
59.55
38.52
5.14
-31.34
-61.17
-76.79
-76.04
-60.27
-33.74
-2.14
28.85
54.37
70.84
76.31
70.80
55.70
33.44
7.20
-19.25
-42.03
-58.25
-66.86
-68.44
-64.09
-54.62
-40.04
-18.92
8.23
38.67
67.50
88.99
98.74
95.48
81.23
60.32
37.62
16.98
0.88
-9.08
-11.66
-6.10
7.21
25.68
44.96
59.78
65.41
58.93
40.79
14.65
-14.32
-41.04
-62.23
-75.77
-80.17
-74.66
-60.36
-39.88
-17.04
3.70
18.71
25.45
24.05
16.68
5.82
-8.04
-25.23
-45.50
-67.24
-87.40
-103.67
-114.39
-119.10
-112.29
-93.38
-68.31
-45.48
-32.48
-25.60
-20.28
-13.16
-1.77
13.56
29.48
41.85
47.65
45.87
37.96
26.32
14.92
8.35
10.14
20.93
39.10
61.57
84.61
104.75
118.51
123.91
120.70
109.92
93.05
72.30
50.61
31.16
16.66
7.98
4.40
3.89
3.77
1.67
-3.40
-10.67
-18.38
-24.82
-29.58
-33.35
-37.28
-42.15
-47.75
-53.09
-57.03
-59.04
-59.51
-59.51
-59.92
-61.11
-62.81
-64.17
-64.49
-63.65
-62.09
-60.46
-59.28
-58.43
-57.48
-55.75
-52.05
-45.37
-35.51
-23.36
-10.56
1.03
10.44
17.68
23.56
29.80
37.77
47.55
58.00
67.66
75.49
81.80
87.29
88.58
82.83
69.91
52.92
36.00
23.79
16.28
13.01
13.02
15.02
17.72
20.22
21.76
21.84
20.42
17.72
14.53
11.32
8.04
4.72
1.36
-2.12
-5.81
-9.61
-13.41
-16.82
-19.74
-22.40
-24.83
-26.84
-28.20
-28.76
-28.48
-27.62
-26.34
-24.88
-23.32
-21.36
-18.37
-13.85
-7.71
-0.45
7.02
13.83
19.37
23.51
26.54
28.91
30.86
32.37
33.32
33.69
33.82
34.15
34.99
36.15
36.96
36.52
34.14
29.81
24.27
18.72
14.34
11.68
10.48
9.80
8.58
6.18
2.76
-0.88
-3.70
-5.04
-4.98
-4.26
-3.86
-4.50
-6.32
-8.90
-11.59
-13.95
-15.93
-17.81
-19.92
-22.28
-24.49
-25.87
-25.96
-24.83
-23.17
-21.96
-21.77
-22.31
-22.35
-20.34
-15.40
-7.99
0.13
6.81
10.83
12.64
14.29
18.33
26.44
38.49
52.55
65.76
75.45
80.02
79.20
73.71
64.73
53.45
40.98
28.43
16.88
7.18
-0.41
-6.29
-11.38
-16.66
-22.55
-28.53
-33.24
-35.25
-34.11
-30.98
-28.72
-31.18
-41.91
-62.63
-92.01
-125.07
-154.44
-172.74
-175.18
-161.33
-135.71
-106.62
-83.54
-73.87
-79.83
-97.94
-120.86
-140.20
-149.19
-144.59
-127.38
-101.94
-73.96
-47.37
-23.82
-3.91
11.65
21.77
25.50
22.82
15.78
8.65
8.11
20.17
46.81
84.77
127.54
168.32
202.26
227.31
236.49
224.42
193.30
152.69
112.19
77.03
48.64
26.26
8.41
-6.36
-17.37
-22.73
-21.39
-14.42
-4.49
5.22
11.19
11.97
6.74
-3.60
-17.16
-31.78
-45.16
-54.36
-56.43
-49.95
-36.22
-19.48
-4.52
4.91
6.98
1.60
-9.72
-24.55
-40.21
-54.09
-63.99
-67.54
-62.91
-49.79
-30.01
-6.95
15.68
34.98
49.69
59.98
67.04
72.07
75.42
76.27
73.13
64.66
50.62
32.60
14.00
-0.74
-7.68
-4.99
6.13
21.67
36.04
43.86
41.77
29.57
10.23
-11.18
-29.10
-39.18
-39.43
-30.56
-15.23
2.89
20.20
33.67
41.06
40.98
33.19
18.94
0.98
-17.02
-31.63
-40.91
-45.03
-46.19
-47.27
-49.99
-54.01
-57.41
-58.15
-55.42
-50.28
-44.85
-41.67
-42.09
-45.01
-47.19
-44.94
-36.31
-22.00
-5.05
10.81
22.02
26.74
25.90
22.59
20.09
20.27
23.76
30.73
41.93
57.15
74.57
90.78
101.42
101.78
88.33
60.81
20.23
-23.28
-56.64
-73.57
-77.15
-73.85
-68.32
-61.68
-52.08
-37.19
-16.18
8.18
30.88
47.71
57.86
64.18
68.45
70.86
69.46
61.43
44.19
17.50
-15.31
-47.58
-72.50
-86.32
-89.23
-84.72
-77.02
-69.30
-59.55
-45.47
-24.23
4.85
38.42
69.97
92.34
101.35
97.59
85.83
71.81
59.66
50.01
40.67
29.21
14.90
-0.13
-11.74
-16.01
-11.73
-0.56
13.34
25.09
30.93
28.70
18.87
4.38
-10.91
-23.85
-31.97
-33.09
-25.03
-6.57
19.56
46.94
67.09
72.24
58.09
26.53
-14.62
-54.40
-83.63
-100.09
-107.25
-110.70
-114.35
-119.52
-124.70
-126.92
-123.01
-102.19
-61.67
-10.75
35.68
68.67
86.37
92.79
89.81
76.28
49.93
8.73
-46.34
-107.74
-162.06
-196.41
-202.54
-179.11
-131.78
-71.46
-11.13
41.22
75.80
89.23
87.02
80.20
78.46
88.70
107.85
128.90
144.52
149.00
141.25
117.83
75.21
19.87
-34.07
-72.94
-90.31
-88.15
-73.64
-53.91
-35.47
-22.60
-16.89
-18.10
-24.11
-31.82
-36.82
-34.73
-22.07
0.59
28.91
56.31
75.72
82.12
75.41
60.11
39.12
18.82
3.48
-6.12
-12.00
-17.30
-24.11
-31.35
-36.01
-35.18
-27.23
-13.55
3.12
20.44
37.28
53.23
68.39
81.40
89.55
90.57
83.98
72.55
61.65
56.93
56.36
56.65
53.56
44.42
29.41
10.63
-8.95
-26.79
-41.58
-53.41
-62.14
-67.78
-70.31
-69.92
-67.32
-63.60
-60.46
-58.20
-56.77
-55.05
-51.90
-46.60
-39.17
-30.44
-21.58
-13.81
-7.89
-4.15
-1.93
-0.35
1.49
4.21
7.39
10.67
13.58
15.89
17.44
18.54
19.52
20.61
21.71
22.51
22.72
22.23
21.26
20.16
19.36
19.03
18.93
18.56
17.36
15.10
11.88
8.13
4.34
0.86
-2.19
-4.92
-7.50
-10.05
-12.53
-14.89
-17.11
-19.31
-21.72
-24.50
-27.62
-30.77
-33.42
-35.00
-35.06
-33.51
-30.59
-26.72
-22.40
-17.98
-13.55
-9.00
-4.09
1.36
7.29
13.35
19.00
23.70
27.08
29.13
30.07
30.27
30.02
29.42
28.43
26.95
25.04
22.87
20.73
18.82
17.17
15.66
14.06
12.24
10.20
8.02
5.84
3.66
1.35
-1.27
-4.35
-7.82
-11.46
-14.87
-17.71
-19.84
-21.34
-22.53
-23.78
-25.32
-27.20
-29.28
-31.37
-33.35
-35.24
-37.02
-38.52
-39.28
-38.64
-36.02
-31.23
-24.63
-17.07
-9.53
-2.77
2.91
7.65
11.79
15.60
19.09
22.01
24.04
24.97
24.86
24.01
22.80
21.57
20.41
19.24
17.86
16.22
14.44
12.76
11.49
10.72
10.32
9.95
9.24
8.00
6.27
4.32
2.46
0.95
-0.17
-1.06
-1.95
-3.08
-4.54
-6.24
-8.02
-9.72
-11.35
-13.00
-14.85
-16.97
-19.14
-20.94
-21.82
-21.36
-19.45
-16.32
-12.38
-8.06
-3.57
1.06
5.86
10.78
15.54
19.75
23.02
25.20
26.45
27.07
27.43
27.68
27.74
27.31
26.16
24.23
21.79
19.34
17.41
16.30
15.94
15.92
15.70
14.87
13.31
11.26
9.16
7.41
6.15
5.25
4.38
3.24
1.70
-0.08
-1.78
-3.13
-4.08
-4.86
-5.82
-7.27
-9.24
-11.54
-13.83
-15.85
-17.51
-18.84
-19.85
-20.37
-20.09
-18.70
-16.06
-12.33
-7.94
-3.45
0.66
4.10
6.78
8.82
10.43
11.82
13.11
14.29
15.19
15.63
15.55
15.02
14.31
13.70
13.32
13.11
12.84
12.34
11.60
10.80
10.20
9.90
9.78
9.50
8.77
7.51
5.96
4.53
3.60
3.24
3.21
3.07
2.46
1.26
-0.31
-1.90
-3.24
-4.30
-5.32
-6.67
-8.57
-10.88
-13.16
-14.78
-15.22
-14.32
-12.34
-9.83
-7.34
-5.17
-3.30
-1.47
0.57
2.84
5.07
6.81
7.73
7.82
7.41
7.01
6.98
7.33
7.72
7.66
6.87
5.41
3.73
2.36
1.61
1.39
1.31
0.90
-0.09
-1.53
-3.03
-4.17
-4.75
-4.86
-4.89
-5.22
-6.05
-7.29
-8.63
-9.66
-10.19
-10.28
-10.24
-10.45
-11.17
-12.40
-13.89
-15.22
-16.03
-16.13
-15.56
-14.47
-13.03
-11.31
-9.29
-6.91
-4.20
-1.34
1.32
3.47
4.94
5.81
6.35
6.88
7.60
8.44
9.13
9.36
8.98
8.08
6.98
6.03
5.48
5.34
5.41
5.43
5.21
4.73
4.10
3.54
3.14
2.89
2.66
2.31
1.76
1.07
0.41
-0.12
-0.50
-0.88
-1.47
-2.44
-3.77
-5.29
-6.71
-7.77
-8.35
-8.58
-8.71
-9.06
-9.80
-10.96
-12.29
-13.50
-14.29
-14.56
-14.37
-13.84
-13.01
-11.77
-9.93
-7.35
-4.18
-0.83
2.20
4.48
5.90
6.69
7.25
7.89
8.69
9.41
9.72
9.37
8.41
7.14
6.02
5.39
5.32
5.61
5.91
5.95
5.70
5.31
5.03
4.95
4.95
4.74
4.04
2.82
1.28
-0.16
-1.16
-1.58
-1.59
-1.54
-1.76
-2.40
-3.38
-4.45
-5.30
-5.75
-5.85
-5.84
-6.07
-6.79
-8.08
-9.77
-11.52
-13.04
-14.19
-15.06
-15.89
-16.90
-18.12
-19.32
-20.10
-20.10
-19.18
-17.43
-15.18
-12.75
-10.32
-7.89
-5.35
-2.68
0.04
2.49
4.33
5.34
5.54
5.23
4.83
4.66
4.82
5.10
5.22
4.94
4.29
3.49
2.88
2.65
2.77
2.99
2.98
2.57
1.79
0.86
0.07
-0.47
-0.86
-1.34
-2.14
-3.35
-4.84
-6.37
-7.69
-8.71
-9.50
-10.24
-11.08
-12.06
-13.07
-13.90
-14.44
-14.75
-15.05
-15.66
-16.77
-18.34
-20.05
-21.46
-22.16
-21.95
-20.89
-19.15
-16.92
-14.26
-11.12
-7.49
-3.49
0.59
4.34
7.33
9.34
10.40
10.85
11.17
11.75
12.70
13.78
14.53
14.54
13.69
12.29
10.89
9.99
9.78
10.07
10.41
10.41
9.94
9.19
8.45
7.94
7.61
7.21
6.43
5.14
3.40
1.48
-0.30
-1.77
-2.96
-4.11
-5.52
-7.30
-9.37
-11.43
-13.14
-14.33
-15.15
-16.00
-17.34
-19.47
-22.32
-25.41
-28.06
-29.61
-29.65
-28.17
-25.42
-21.81
-17.68
-13.20
-8.43
-3.42
1.66
6.49
10.69
13.99
16.35
17.97
19.13
20.05
20.72
21.01
20.74
19.98
18.97
18.10
17.72
17.89
18.38
18.77
18.69
17.99
16.82
15.52
14.40
13.59
12.92
12.10
10.88
9.21
7.28
5.40
3.83
2.60
1.54
0.36
-1.19
-3.17
-5.43
-7.71
-9.77
-11.49
-12.97
-14.42
-16.10
-18.22
-20.83
-23.78
-26.75
-29.33
-31.14
-31.89
-31.40
-29.57
-26.37
-21.88
-16.32
-10.15
-3.96
1.66
6.30
9.93
12.81
15.35
17.80
20.18
22.25
23.67
24.26
24.08
23.44
22.70
22.11
21.69
21.25
20.58
19.55
18.30
17.08
16.18
15.71
15.59
15.51
15.18
14.40
13.23
11.88
10.60
9.53
8.59
7.56
6.19
4.34
2.05
-0.51
-3.07
-5.42
-7.45
-9.20
-10.77
-12.25
-13.70
-15.06
-16.32
-17.51
-18.76
-20.20
-21.84
-23.45
-24.59
-24.74
-23.54
-20.95
-17.23
-12.86
-8.27
-3.72
0.77
5.25
9.73
14.06
17.93
20.95
22.88
23.68
23.61
23.06
22.43
21.91
21.47
20.92
20.09
19.06
18.09
17.52
17.48
17.80
18.10
17.95
17.19
15.99
14.69
13.60
12.84
12.26
11.55
10.47
8.93
7.01
4.92
2.86
0.92
-0.91
-2.74
-4.67
-6.73
-8.84
-10.85
-12.63
-14.14
-15.54
-17.13
-19.15
-21.65
-24.35
-26.72
-28.08
-27.94
-26.10
-22.75
-18.39
-13.55
-8.64
-3.80
1.02
5.90
10.76
15.35
19.27
22.23
24.16
25.25
25.88
26.35
26.75
26.94
26.66
25.79
24.42
22.90
21.67
21.03
20.99
21.24
21.35
20.95
19.91
18.41
16.81
15.46
14.54
13.94
13.37
12.55
11.34
9.84
8.30
6.93
5.75
4.63
3.31
1.70
-0.11
-1.82
-3.15
-3.97
-4.47
-5.01
-5.98
-7.55
-9.62
-11.86
-13.85
-15.29
-16.05
-16.16
-15.67
-14.55
-12.66
-9.84
-5.96
-1.10
4.47
10.37
16.18
21.57
26.31
30.27
33.40
35.65
36.96
37.32
36.78
35.52
33.85
32.12
30.57
29.26
28.04
26.62
24.80
22.57
20.17
17.94
16.05
14.38
12.59
10.27
7.23
3.63
-0.09
-3.36
-5.84
-7.62
-9.15
-11.00
-13.55
-16.77
-20.29
-23.57
-26.18
-28.03
-29.43
-30.91
-32.85
-35.30
-38.00
-40.49
-42.35
-43.24
-43.23
-42.94
-43.21
-44.65
-47.22
-50.29
-52.88
-53.95
-52.43
-47.99
-41.39
-34.18
-27.74
-22.77
-19.15
-16.21
-12.97
-7.94
-0.41
8.84
17.86
24.67
28.16
28.31
26.09
23.39
23.38
28.79
40.49
56.92
74.80
89.81
97.46
94.35
74.51
38.45
-4.48
-41.30
-64.35
-74.01
-75.33
-73.95
-73.59
-75.45
-78.08
-78.91
-75.51
-65.96
-48.81
-24.01
5.85
35.61
60.59
77.41
85.11
84.98
79.56
71.67
63.24
54.82
46.14
37.06
28.46
21.76
17.61
15.31
13.07
8.76
1.04
-9.87
-22.41
-34.03
-42.08
-44.82
-42.01
-34.64
-24.54
-13.74
-3.97
3.57
8.43
10.86
11.54
11.37
11.23
11.77
13.06
14.50
14.96
13.26
8.71
1.59
-6.86
-14.81
-20.56
-22.96
-21.75
-17.30
-10.27
-1.32
9.01
20.02
30.73
40.00
46.79
50.70
52.15
52.14
51.74
51.40
50.60
47.97
41.98
31.74
17.66
1.53
-13.91
-25.89
-32.61
-33.68
-30.12
-23.75
-16.43
-9.56
-3.96
-0.09
1.60
0.65
-3.20
-9.68
-17.81
-26.15
-33.31
-38.51
-41.79
-43.83
-45.46
-47.22
-49.14
-50.86
-51.88
-51.93
-51.07
-49.68
-48.27
-47.37
-47.35
-48.37
-50.36
-53.08
-56.18
-59.27
-61.99
-64.01
-64.93
-64.50
-62.90
-60.97
-60.05
-61.38
-65.25
-70.60
-75.11
-76.14
-71.80
-61.77
-47.23
-30.20
-12.53
4.71
21.26
37.26
52.64
66.88
79.03
88.13
93.58
95.33
93.91
90.19
85.06
79.08
72.38
64.90
56.74
48.43
41.03
35.82
33.88
35.61
40.62
47.84
55.90
63.50
69.63
73.68
75.37
74.60
71.48
66.35
59.78
52.49
45.17
38.18
31.50
24.78
17.70
10.22
2.64
-4.44
-10.47
-15.13
-18.36
-20.25
-20.84
-20.06
-17.79
-14.05
-9.15
-3.62
1.76
6.14
8.79
9.16
7.12
2.97
-2.54
-8.45
-13.80
-17.99
-20.80
-22.33
-22.74
-22.14
-20.51
-17.95
-14.89
-12.17
-10.76
-11.43
-14.31
-18.85
-24.06
-29.02
-33.32
-37.08
-40.70
-44.47
-48.17
-51.12
-52.40
-51.27
-47.45
-41.31
-33.73
-25.92
-19.03
-13.87
-10.72
-9.28
-8.88
-8.81
-8.60
-8.17
-7.77
-7.76
-8.39
-9.71
-11.54
-13.56
-15.28
-16.08
-15.26
-12.23
-6.77
0.81
9.73
18.95
27.57
34.99
41.05
45.73
49.07
50.93
51.09
49.45
46.11
41.46
36.00
30.19
24.30
18.47
12.78
7.38
2.47
-1.77
-5.35
-8.51
-11.54
-14.72
-18.29
-22.55
-27.95
-35.00
-43.88
-54.01
-63.94
-71.67
-75.46
-74.67
-70.09
-63.54
-57.04
-51.94
-48.58
-46.59
-45.47
-44.89
-44.57
-43.90
-41.66
-36.39
-27.04
-13.73
2.06
17.85
31.07
40.03
44.33
44.82
43.07
40.70
38.88
38.07
38.12
38.50
38.64
38.11
36.80
34.84
32.55
30.37
28.86
28.58
29.97
33.11
37.59
42.47
46.56
48.74
48.31
45.14
39.52
32.07
23.52
14.63
6.15
-1.31
-7.39
-12.10
-15.84
-19.16
-22.57
-26.37
-30.54
-34.83
-38.85
-42.15
-44.28
-44.90
-43.83
-41.17
-37.32
-32.80
-28.07
-23.31
-18.50
-13.49
-8.33
-3.38
0.72
3.42
4.46
4.15
3.14
2.19
1.79
1.93
2.25
2.25
1.68
0.69
-0.22
-0.46
0.35
2.15
4.44
6.53
7.79
7.96
7.19
5.92
4.64
3.63
2.92
2.29
1.52
0.45
-0.88
-2.35
-3.83
-5.27
-6.65
-8.00
-9.28
-10.44
-11.49
-12.57
-14.08
-16.56
-20.50
-25.99
-32.50
-38.83
-43.43
-44.93
-42.71
-37.25
-29.99
-22.80
-17.26
-14.13
-13.26
-13.84
-15.02
-16.20
-17.21
-18.07
-18.76
-19.07
-18.68
-17.43
-15.51
-13.43
-11.74
-10.68
-9.92
-8.60
-5.69
-0.38
7.47
17.33
28.29
39.47
50.29
60.45
69.67
77.36
82.66
84.70
83.08
78.10
70.67
62.05
53.48
45.97
40.11
36.19
34.16
33.53
33.34
32.33
29.38
23.88
15.86
5.92
-4.92
-15.37
-24.20
-30.38
-33.38
-33.35
-31.19
-28.28
-26.32
-26.58
-29.57
-35.06
-42.20
-49.69
-55.84
-58.88
-57.61
-52.32
-44.41
-35.92
-28.93
-24.91
-24.25
-26.08
-28.66
-29.92
-28.93
-24.71
-16.34
-3.59
12.29
28.58
42.01
49.90
51.06
44.75
32.81
19.08
7.50
0.04
-4.19
-8.13
-15.34
-28.49
-50.11
-79.15
-111.22
-140.62
-162.72
-174.89
-176.07
-166.21
-136.19
-86.87
-29.13
22.89
60.82
83.35
92.58
91.15
81.34
66.91
47.68
25.12
2.67
-15.93
-28.65
-35.60
-37.97
-36.99
-33.15
-28.37
-23.26
-17.34
-9.87
-0.87
8.89
18.52
27.39
35.34
41.40
45.58
48.61
51.23
53.58
55.21
55.62
54.66
52.67
49.74
46.67
44.36
43.27
43.08
43.02
42.38
40.88
38.73
36.34
34.87
35.15
37.07
39.51
41.16
41.19
39.60
37.10
34.74
34.53
37.50
42.84
48.36
51.95
52.68
50.96
48.08
45.59
46.42
52.05
61.36
71.32
78.91
82.55
82.16
78.75
74.10
72.83
79.16
94.82
118.30
145.77
171.81
190.05
194.78
169.60
110.67
31.72
-43.45
-97.31
-126.17
-136.57
-138.18
-138.73
-141.99
-145.82
-146.55
-141.74
-130.74
-113.36
-90.08
-63.07
-37.00
-18.23
-10.78
-15.88
-31.27
-51.11
-66.63
-69.43
-55.84
-27.95
5.87
34.86
49.30
44.30
22.05
-8.72
-36.73
-52.11
-49.97
-31.39
-1.49
32.22
61.56
79.15
80.16
63.08
31.23
-8.09
-46.33
-76.50
-95.72
-105.65
-111.58
-116.23
-124.93
-141.85
-168.24
-201.84
-236.63
-263.82
-273.79
-258.97
-216.20
-148.50
-63.73
27.47
113.81
185.47
235.63
261.67
265.54
253.30
232.87
211.82
195.36
184.50
176.24
165.95
150.37
129.57
106.81
86.41
71.05
61.52
56.23
51.35
42.33
25.89
1.16
-29.98
-63.08
-92.66
-111.33
-112.51
-94.68
-63.29
-29.65
-7.39
-7.66
-34.76
-85.38
-147.03
-202.88
-239.21
-249.70
-235.50
-202.68
-158.92
-102.38
-42.62
8.19
44.87
68.05
79.01
78.18
67.04
49.45
31.21
17.80
11.48
12.86
19.15
25.58
28.35
26.55
22.19
18.64
17.83
19.42
22.94
26.22
26.51
22.30
14.24
4.52
-4.32
-11.21
-15.75
-17.71
-17.88
-17.45
-17.07
-16.64
-15.60
-13.61
-11.15
-8.84
-6.76
-4.93
-3.14
-0.95
2.06
5.83
9.67
12.39
13.03
11.57
8.65
5.28
2.38
0.35
-1.08
-2.64
-5.03
-8.57
-12.91
-17.24
-20.74
-22.95
-23.97
-24.28
-24.46
-24.87
-25.40
-25.45
-24.24
-21.25
-16.63
-10.93
-4.78
1.44
7.66
13.53
17.93
19.25
15.93
7.74
-3.35
-13.64
-19.20
-17.87
-10.25
0.88
12.64
23.07
31.74
39.51
47.61
56.64
65.97
73.97
78.95
80.84
80.19
77.97
75.61
75.03
77.85
84.32
92.63
100.00
105.09
106.84
104.45
97.68
87.32
74.91
62.16
50.46
41.41
38.19
42.19
52.03
64.41
76.09
85.09
90.88
93.90
82.84
55.08
17.79
-18.09
-46.43
-66.93
-81.62
-90.86
-97.43
-102.44
-104.19
-101.74
-96.00
-88.90
-82.24
-76.71
-72.42
-69.52
-67.70
-65.17
-61.06
-55.97
-51.20
-47.40
-44.18
-40.82
-37.03
-32.76
-27.50
-21.55
-15.92
-11.53
-8.45
-5.86
-3.08
-0.18
2.21
3.93
4.83
4.87
4.36
3.98
4.55
6.13
8.09
9.49
10.20
10.65
11.47
13.20
16.05
19.90
23.65
25.98
24.36
18.54
10.92
4.80
1.95
1.70
2.89
3.32
1.86
-1.55
-5.92
-10.51
-16.13
-24.97
-38.94
-56.77
-75.15
-89.87
-98.90
-102.27
-101.14
-96.14
-86.36
-69.68
-43.65
-10.50
27.19
64.56
96.99
121.81
138.84
149.86
151.35
145.93
135.97
122.12
103.09
78.00
47.78
15.36
-15.28
-40.57
-57.69
-67.03
-70.85
-72.51
-74.44
-77.40
-80.77
-83.32
-85.19
-84.91
-82.59
-78.96
-75.05
-71.13
-66.61
-60.59
-52.57
-41.71
-29.44
-18.57
-10.08
-4.35
-1.00
0.50
0.04
-3.13
-9.51
-18.07
-26.04
-29.50
-25.12
-11.86
7.87
28.41
41.36
39.38
19.45
-15.17
-55.78
-91.01
-109.85
-104.58
-72.74
-17.76
51.93
124.09
185.29
223.78
232.98
214.22
177.06
135.64
103.58
89.52
93.68
108.92
123.59
126.87
113.14
83.70
44.49
2.91
-35.08
-67.49
-95.43
-119.99
-140.49
-155.65
-164.35
-166.44
-161.87
-149.76
-132.63
-108.28
-75.09
-33.41
14.07
63.67
111.77
149.29
170.10
173.78
165.09
148.32
125.11
95.81
65.47
35.52
8.88
-10.57
-20.79
-22.32
-18.73
-13.02
-7.66
-3.34
0.11
4.20
10.78
20.16
30.96
40.36
46.03
47.17
45.10
41.20
37.37
35.08
34.51
34.67
33.97
31.24
26.32
19.93
12.08
3.39
-5.17
-13.11
-21.11
-30.96
-44.85
-64.35
-89.64
-120.66
-154.66
-186.77
-211.92
-227.39
-233.59
-233.65
-231.41
-229.92
-232.13
-237.63
-242.94
-243.25
-234.91
-216.28
-187.61
-149.93
-95.67
-28.48
38.75
92.08
125.46
140.55
144.70
142.32
135.42
125.38
112.19
97.76
84.18
75.02
72.11
74.55
79.27
83.18
84.51
81.87
76.14
69.71
65.19
63.20
62.57
61.30
58.38
54.39
49.78
45.16
40.81
36.93
33.04
28.36
22.28
15.25
9.05
4.91
3.37
4.21
7.71
13.54
20.01
23.88
21.79
12.87
-2.04
-20.23
-37.78
-48.87
-49.03
-37.48
-18.14
2.82
21.59
35.78
44.44
47.59
48.42
51.05
58.97
73.32
93.93
121.95
155.78
190.18
205.45
185.87
131.47
59.06
-7.60
-65.13
-112.47
-149.36
-172.35
-179.47
-169.56
-144.54
-104.74
-58.82
-17.41
15.21
38.54
52.47
55.03
48.72
35.75
19.21
0.91
-18.31
-37.34
-57.20
-76.80
-94.61
-107.59
-113.25
-110.69
-101.77
-88.74
-72.43
-53.44
-32.50
-11.93
5.88
18.95
26.05
26.25
20.31
10.36
-1.54
-12.49
-19.59
-19.73
-10.55
8.03
33.47
62.65
91.39
116.51
135.91
148.56
154.70
155.60
151.88
138.52
114.96
81.75
38.29
-8.71
-48.68
-73.91
-82.92
-81.12
-75.20
-68.83
-67.24
-70.42
-79.32
-94.61
-115.62
-139.65
-165.43
-191.31
-206.71
-205.09
-173.84
-116.12
-48.25
9.74
59.68
106.69
152.60
196.31
231.63
250.23
243.82
210.50
156.50
93.71
31.63
-22.09
-62.10
-87.27
-98.99
-99.96
-90.90
-70.89
-34.90
10.63
54.02
87.08
107.09
113.99
108.78
94.25
75.11
57.03
42.78
34.14
30.00
27.37
21.08
6.82
-16.28
-45.22
-74.26
-98.07
-111.40
-110.25
-87.13
-42.21
18.27
83.32
139.64
175.30
182.55
160.64
115.56
55.89
-11.59
-81.10
-147.14
-204.09
-246.86
-272.74
-282.57
-279.90
-270.93
-262.07
-254.81
-245.00
-225.61
-190.98
-139.81
-75.37
-2.74
70.88
137.12
189.15
222.42
234.82
227.02
202.88
161.90
114.31
75.22
52.97
45.17
43.81
41.71
35.36
24.80
12.01
0.49
-8.19
-15.47
-21.63
-25.67
-25.98
-21.85
-14.12
-5.10
3.19
8.21
7.75
1.46
-9.29
-21.76
-33.29
-41.92
-46.62
-46.50
-41.81
-33.65
-23.11
-11.10
1.47
13.41
23.30
29.84
32.48
31.13
26.40
19.86
13.88
10.99
12.83
19.37
28.51
36.78
40.50
37.32
27.24
12.37
-4.38
-20.70
-35.47
-48.28
-58.32
-63.74
-62.16
-52.08
-34.43
-13.01
6.55
19.02
21.69
15.44
4.18
-6.95
-13.65
-13.94
-8.43
0.36
9.52
16.93
21.92
24.94
26.65
27.17
25.83
21.61
14.09
4.03
-6.72
-16.05
-22.58
-26.34
-28.59
-31.14
-35.20
-40.85
-46.89
-51.37
-52.39
-48.91
-41.16
-30.56
-19.17
-8.96
-1.05
4.52
8.59
12.23
16.16
20.41
24.53
27.94
30.31
31.62
31.91
31.03
28.60
24.32
18.42
11.93
6.51
3.85
4.93
9.49
16.04
22.42
26.78
28.27
27.31
25.17
23.14
21.76
20.60
18.65
15.11
9.99
4.27
-0.56
-3.28
-3.62
-2.29
-0.64
0.08
-0.73
-2.86
-5.57
-8.05
-9.86
-11.06
-11.97
-12.78
-13.33
-13.04
-11.25
-7.63
-2.46
3.49
9.38
14.77
19.85
25.26
31.53
38.62
45.74
51.64
55.22
56.01
54.37
51.21
47.49
43.73
39.81
35.23
29.52
22.58
14.90
7.41
1.15
-3.17
-5.36
-5.77
-4.95
-3.34
-1.09
1.85
5.40
9.07
11.99
13.16
12.00
8.66
4.07
-0.36
-3.37
-4.32
-3.47
-1.85
-0.79
-1.42
-4.25
-9.01
-14.80
-20.60
-25.63
-29.63
-32.75
-35.17
-36.87
-37.46
-36.47
-33.74
-29.59
-24.75
-19.92
-15.50
-11.42
-7.28
-2.73
2.28
7.45
12.37
16.77
20.62
23.90
26.43
27.79
27.42
25.02
20.83
15.82
11.54
9.45
10.26
13.57
17.99
21.81
23.67
23.21
21.19
19.40
19.51
22.12
26.28
29.84
30.22
25.31
14.40
-1.26
-17.83
-30.60
-35.68
-31.51
-19.22
-2.30
14.43
26.20
29.48
23.61
9.68
-10.14
-32.85
-54.42
-70.15
-75.98
-69.89
-52.77
-26.93
3.53
33.83
59.97
80.04
94.25
103.74
109.31
103.85
84.00
53.70
22.78
-0.02
-11.30
-12.50
-7.70
-1.47
2.92
6.08
9.23
12.83
16.04
17.55
16.51
12.99
7.86
2.35
-1.71
-3.17
-2.46
-1.44
-2.01
-5.12
-10.58
-17.48
-24.75
-31.04
-35.61
-38.55
-40.48
-41.94
-43.14
-44.14
-45.07
-46.14
-47.29
-48.44
-49.62
-51.08
-53.02
-55.48
-58.22
-60.73
-62.27
-61.98
-59.37
-54.50
-47.97
-40.55
-32.88
-25.31
-17.95
-10.80
-3.91
2.48
8.06
12.61
16.10
18.69
20.67
22.24
23.33
23.74
23.20
21.68
19.52
17.34
15.78
15.23
15.57
16.28
16.68
16.21
14.73
12.46
9.86
7.41
5.39
3.89
2.81
2.06
1.59
1.37
1.39
1.51
1.49
1.07
0.02
-1.66
-3.78
-6.00
-8.01
-9.67
-11.12
-12.66
-14.65
-17.25
-20.34
-23.45
-25.96
-27.32
-27.26
-25.80
-23.17
-19.58
-15.14
-9.81
-3.63
3.13
9.92
16.00
20.70
23.64
24.91
25.02
24.67
24.43
24.54
24.84
24.92
24.39
23.13
21.37
19.57
18.10
17.01
15.96
14.45
12.20
9.39
6.60
4.58
3.73
3.90
4.49
4.76
4.23
2.87
1.05
-0.83
-2.63
-4.55
-6.97
-10.11
-13.82
-17.58
-20.69
-22.66
-23.50
-23.75
-24.20
-25.54
-28.04
-31.50
-35.35
-39.01
-42.11
-44.54
-46.30
-47.22
-46.88
-44.70
-40.24
-33.47
-25.02
-15.97
-7.50
-0.45
4.97
9.12
12.67
16.16
19.71
23.01
25.57
27.07
27.57
27.46
27.27
27.34
27.60
27.64
26.94
25.22
22.56
19.49
16.66
14.55
13.23
12.29
11.12
9.22
6.48
3.21
0.01
-2.62
-4.53
-5.98
-7.44
-9.27
-11.54
-14.03
-16.36
-18.29
-19.91
-21.57
-23.63
-26.19
-28.98
-31.54
-33.50
-34.93
-36.40
-38.71
-42.40
-47.30
-52.37
-56.07
-56.96
-54.33
-48.57
-40.86
-32.69
-25.10
-18.37
-12.08
-5.53
1.68
9.41
17.04
23.83
29.31
33.52
36.83
39.68
42.23
44.22
45.19
44.79
43.09
40.62
38.13
36.28
35.30
34.95
34.70
34.07
32.86
31.22
29.46
27.84
26.29
24.50
22.11
18.97
15.29
11.60
8.47
6.21
4.66
3.28
1.39
-1.45
-5.14
-9.18
-12.85
-15.58
-17.28
-18.35
-19.54
-21.53
-24.67
-28.82
-33.38
-37.62
-40.90
-42.92
-43.60
-42.94
-40.81
-36.96
-31.12
-23.32
-14.07
-4.26
5.04
13.07
19.62
24.98
29.70
34.16
38.38
41.99
44.56
45.87
46.06
45.54
44.77
43.96
42.98
41.46
39.05
35.68
31.68
27.69
24.40
22.18
20.91
20.01
18.71
16.51
13.37
9.81
6.58
4.24
2.88
2.01
0.92
-1.00
-3.87
-7.34
-10.76
-13.59
-15.73
-17.56
-19.68
-22.62
-26.53
-31.13
-35.90
-40.44
-44.72
-49.07
-53.86
-59.04
-63.95
-67.37
-68.02
-65.18
-59.02
-50.59
-41.24
-32.06
-23.43
-15.07
-6.49
2.48
11.41
19.47
25.86
30.26
32.94
34.57
35.79
36.86
37.58
37.57
36.58
34.74
32.52
30.52
29.12
28.34
27.86
27.20
26.05
24.41
22.61
21.15
20.42
20.47
20.91
21.02
20.11
17.83
14.32
10.15
5.99
2.25
-1.15
-4.63
-8.56
-12.96
-17.42
-21.28
-24.05
-25.76
-27.00
-28.61
-31.31
-35.28
-40.19
-45.33
-49.94
-53.47
-55.59
-56.13
-54.85
-51.48
-45.86
-38.08
-28.63
-18.40
-8.40
0.49
7.85
13.77
18.70
23.15
27.38
31.24
34.15
35.42
34.64
31.89
27.84
23.46
19.68
16.99
15.28
14.06
12.77
11.21
9.64
8.57
8.39
8.96
9.60
9.51
8.26
6.14
4.01
2.83
3.08
4.34
5.56
5.52
3.54
-0.31
-5.27
-10.37
-14.82
-18.37
-21.22
-23.84
-26.71
-30.11
-34.07
-38.40
-42.88
-47.38
-51.91
-56.37
-60.34
-62.99
-63.27
-60.33
-54.06
-45.29
-35.44
-25.87
-17.25
-9.45
-1.83
6.06
14.02
21.22
26.65
29.80
30.98
31.21
31.67
33.11
35.52
38.22
40.31
41.20
40.94
40.13
39.58
39.85
40.94
42.31
43.28
43.43
42.95
42.47
42.69
43.90
45.65
47.00
46.92
44.92
41.30
36.95
32.93
29.90
27.78
25.86
23.25
19.40
14.43
9.03
4.11
0.23
-2.72
-5.49
-9.10
-14.27
-21.06
-28.81
-36.33
-42.34
-45.87
-46.44
-44.09
-39.28
-32.65
-24.94
-16.80
-8.80
-1.47
4.83
9.86
13.65
16.52
18.90
21.18
23.40
25.18
25.87
24.95
22.39
18.81
15.29
12.90
12.20
12.89
14.00
14.33
13.04
10.11
6.35
3.04
1.38
1.92
4.39
7.89
11.43
14.38
16.65
18.56
20.38
22.01
22.92
22.47
20.29
16.59
12.13
7.89
4.60
2.36
0.64
-1.50
-4.95
-10.20
-17.07
-24.75
-32.06
-37.84
-41.23
-41.92
-40.01
-35.87
-29.95
-22.68
-14.52
-6.03
2.12
9.38
15.48
20.50
24.80
28.71
32.20
34.82
35.95
35.20
32.77
29.46
26.35
24.37
23.85
24.41
25.24
25.58
25.03
23.75
22.22
20.95
20.08
19.34
18.21
16.23
13.31
9.74
6.08
2.80
-0.03
-2.73
-5.91
-9.98
-14.97
-20.38
-25.44
-29.49
-32.37
-34.39
-36.23
-38.43
-41.19
-44.33
-47.49
-50.44
-53.20
-55.91
-58.59
-60.81
-61.77
-60.54
-56.49
-49.60
-40.54
-30.38
-20.25
-10.93
-2.72
4.44
10.78
16.42
21.26
25.05
27.60
28.96
29.45
29.53
29.60
29.72
29.64
28.87
27.06
24.23
20.88
17.84
15.85
15.23
15.65
16.30
16.31
15.21
13.15
10.75
8.69
7.27
6.22
4.88
2.59
-0.85
-5.12
-9.53
-13.45
-16.59
-19.13
-21.51
-24.15
-27.20
-30.56
-34.03
-37.46
-40.98
-44.88
-49.46
-54.68
-59.99
-64.34
-66.51
-65.44
-60.75
-52.91
-43.09
-32.79
-23.25
-15.14
-8.47
-2.86
2.09
6.51
10.24
13.09
15.14
16.75
18.48
20.67
23.18
25.38
26.49
26.00
24.11
21.61
19.62
19.01
19.99
21.98
23.93
24.83
24.12
21.97
19.06
16.27
14.22
13.02
12.27
11.39
9.88
7.59
4.66
1.40
-2.03
-5.72
-9.85
-14.51
-19.51
-24.34
-28.52
-31.79
-34.36
-36.72
-39.28
-41.95
-44.06
-44.51
-42.30
-37.03
-29.19
-20.09
-11.29
-4.01
1.32
5.06
8.07
11.20
14.80
18.63
21.97
24.19
25.14
25.28
25.38
26.10
27.55
29.32
30.78
31.47
31.45
31.37
32.08
34.07
37.10
40.35
42.83
43.79
42.76
39.86
35.85
31.73
28.12
25.04
22.02
18.51
14.12
8.27
0.95
-6.88
-13.70
-18.37
-20.56
-20.90
-20.41
-20.23
-22.22
-27.52
-35.65
-44.81
-53.21
-59.59
-63.62
-65.39
-65.29
-65.28
-67.33
-72.23
-79.56
-88.58
-98.06
-106.37
-110.95
-101.62
-73.85
-34.30
3.34
28.85
39.63
40.74
37.54
33.10
28.65
23.07
15.55
6.91
0.08
-1.93
3.46
16.35
34.85
56.12
76.37
92.82
104.27
111.20
115.02
118.31
122.33
126.66
129.50
127.73
118.61
100.71
74.95
39.48
0.50
-31.08
-47.51
-49.43
-44.98
-40.76
-39.53
-40.91
-42.98
-42.91
-40.12
-36.18
-33.43
-33.51
-36.39
-41.15
-46.32
-50.36
-51.40
-48.87
-43.48
-36.44
-28.60
-20.17
-11.37
-2.45
6.39
15.34
24.00
31.32
36.23
38.29
37.94
36.00
33.40
31.01
29.60
29.38
29.98
30.70
30.90
30.22
28.57
26.15
23.52
21.38
20.15
19.65
19.24
18.15
15.97
12.77
9.10
5.68
2.97
0.91
-1.04
-3.51
-6.81
-10.72
-14.61
-17.81
-20.04
-21.59
-23.22
-25.68
-29.36
-34.10
-39.37
-44.51
-49.18
-53.34
-57.16
-60.71
-63.67
-65.42
-65.21
-62.49
-57.18
-49.74
-40.93
-31.58
-22.30
-13.38
-4.90
3.13
10.58
17.11
22.30
25.85
27.88
28.96
29.97
31.74
34.64
38.40
42.18
45.04
46.40
46.23
45.02
43.44
42.03
41.00
40.32
39.89
39.73
39.94
40.65
41.77
43.01
43.92
44.18
43.76
42.99
42.48
42.86
44.54
47.47
51.09
54.46
56.47
56.13
52.78
46.34
37.23
26.25
14.37
2.52
-8.52
-18.08
-25.60
-30.56
-32.55
-31.48
-27.59
-21.38
-13.48
-4.49
5.01
14.44
23.06
30.06
34.72
36.71
36.21
33.96
30.96
28.21
26.33
25.46
25.16
24.65
23.12
20.03
15.31
9.43
3.15
-2.84
-8.12
-12.61
-16.39
-19.39
-21.43
-22.16
-21.42
-19.44
-16.90
-14.67
-13.46
-13.66
-15.26
-18.03
-21.73
-26.32
-31.86
-38.34
-45.45
-52.57
-58.89
-63.75
-66.94
-68.88
-70.49
-72.75
-76.21
-80.72
-85.43
-89.08
-90.60
-89.51
-86.02
-80.87
-74.82
-68.20
-60.96
-52.80
-43.58
-33.68
-23.85
-14.98
-7.60
-1.69
3.21
7.59
11.63
14.97
17.00
17.21
15.62
12.92
10.12
8.22
7.70
8.39
9.63
10.67
11.04
10.64
9.72
8.66
7.61
6.50
5.01
2.84
-0.00
-3.14
-5.97
-7.94
-8.84
-9.01
-9.16
-10.03
-12.03
-14.98
-18.30
-21.30
-23.63
-25.47
-27.34
-29.81
-33.09
-36.98
-41.05
-44.87
-48.28
-51.29
-53.94
-56.01
-56.99
-56.22
-53.18
-47.70
-40.14
-31.29
-22.08
-13.30
-5.36
1.78
8.44
14.98
21.51
27.72
33.03
36.91
39.13
39.91
39.73
39.13
38.33
37.30
35.78
33.64
30.97
28.14
25.63
23.81
22.75
22.22
21.83
21.21
20.20
18.90
17.57
16.49
15.72
15.00
13.83
11.72
8.41
4.05
-0.88
-5.76
-10.11
-13.77
-16.88
-19.74
-22.64
-25.75
-29.15
-32.95
-37.32
-42.43
-48.30
-54.47
-60.00
-63.60
-64.07
-60.77
-53.96
-44.71
-34.49
-24.51
-15.36
-6.95
1.21
9.55
18.05
26.17
33.09
38.18
41.29
42.82
43.47
43.88
44.38
44.87
45.02
44.51
43.29
41.58
39.76
38.05
36.35
34.47
32.18
29.53
26.84
24.64
23.39
23.13
23.30
23.16
22.32
21.00
19.81
19.44
20.25
21.96
23.58
23.52
20.62
15.14
8.54
2.68
-1.05
-2.38
-2.30
-2.66
-5.72
-12.33
-20.98
-28.61
-32.29
-30.68
-24.50
-16.13
-8.52
-4.70
-5.97
-11.35
-18.69
-26.03
-32.00
-35.12
-33.44
-21.26
2.68
31.52
54.46
64.30
60.28
46.89
31.25
20.00
16.64
20.10
26.58
33.52
39.91
45.51
50.12
53.17
53.63
50.41
42.54
30.38
16.08
2.19
-8.97
-16.52
-21.12
-24.32
-27.70
-32.41
-38.17
-43.25
-45.62
-44.23
-39.72
-34.02
-29.37
-27.41
-28.66
-32.18
-35.86
-37.36
-35.10
-28.89
-20.08
-11.51
-6.91
-9.62
-20.68
-37.58
-54.59
-64.55
-61.62
-43.64
-13.20
23.27
57.91
84.49
100.23
105.71
103.48
96.49
86.94
75.72
62.77
47.71
30.77
13.01
-4.19
-19.75
-33.05
-43.78
-49.61
-47.25
-35.83
-18.02
2.07
20.47
33.81
39.73
39.19
32.92
22.43
9.71
-3.19
-14.70
-24.03
-31.17
-36.09
-38.94
-40.31
-40.96
-41.93
-43.96
-47.07
-50.62
-53.57
-54.89
-53.94
-50.82
-46.12
-40.91
-36.40
-33.62
-33.26
-35.29
-38.94
-42.85
-45.60
-45.91
-43.09
-37.15
-28.53
-17.95
-5.90
6.88
19.23
29.77
37.60
42.61
45.46
47.10
48.25
49.73
51.44
52.53
52.13
50.37
48.42
47.69
49.15
52.84
59.09
67.10
74.76
79.37
79.30
74.56
66.64
57.95
51.09
49.58
55.17
66.86
81.57
96.30
108.72
116.76
118.34
102.81
67.33
19.06
-29.62
-69.41
-95.98
-109.57
-113.28
-110.38
-104.15
-96.25
-88.50
-82.33
-79.71
-79.85
-79.13
-73.08
-58.87
-36.59
-8.23
21.58
46.83
58.44
51.19
27.97
-2.42
-31.84
-56.20
-74.48
-87.16
-93.63
-93.00
-84.15
-66.96
-43.06
-17.21
5.06
20.06
26.68
26.10
20.57
13.02
5.75
-0.85
-7.94
-16.75
-27.56
-39.49
-50.97
-60.34
-65.64
-64.93
-57.47
-43.48
-24.05
-1.13
22.68
44.35
60.76
69.43
69.43
59.84
41.74
17.96
-7.02
-27.81
-39.48
-39.38
-28.42
-10.28
6.48
14.83
10.90
-4.45
-26.29
-48.19
-65.21
-75.30
-77.40
-74.99
-68.77
-58.36
-42.98
-22.36
2.97
32.07
64.20
100.72
137.03
169.10
191.17
197.95
187.38
161.97
127.92
79.04
40.49
12.19
-4.90
-10.67
-4.89
12.48
39.90
73.14
105.83
133.49
148.91
151.06
141.49
123.67
101.79
79.14
57.22
35.95
16.56
-2.54
-18.98
-29.72
-30.49
-16.87
12.69
54.04
97.46
132.05
146.59
136.70
102.65
49.95
-12.34
-74.62
-129.18
-169.81
-190.24
-187.21
-162.13
-126.40
-97.01
-88.76
-108.14
-151.16
-204.46
-250.05
-273.41
-255.24
-194.65
-114.52
-43.89
3.82
32.25
51.01
66.31
77.86
80.88
68.88
40.57
2.96
-32.42
-56.17
-65.68
-63.07
-53.17
-40.92
-31.11
-25.42
-21.65
-16.39
-8.69
-0.72
4.35
4.48
0.11
-6.85
-12.85
-13.82
-7.43
4.26
15.40
19.72
13.88
-0.54
-17.75
-29.43
-27.79
-8.74
26.26
71.09
117.71
158.77
189.38
207.25
212.33
205.93
189.85
165.93
136.27
103.65
71.39
42.82
20.28
4.49
-5.62
-12.15
-17.24
-22.13
-26.69
-29.88
-30.56
-28.21
-23.13
-16.04
-7.67
1.60
11.65
22.20
32.39
40.92
46.64
49.33
49.79
49.22
48.47
47.37
44.68
38.51
27.40
11.36
-7.75
-26.81
-43.20
-55.34
-62.94
-66.65
-67.96
-68.93
-71.91
-79.34
-93.36
-116.11
-148.02
-186.80
-227.27
-262.55
-286.19
-293.53
-282.54
-253.94
-212.10
-163.51
-115.46
-74.59
-45.91
-32.00
-31.88
-41.26
-47.19
-39.28
-14.86
19.24
52.98
79.74
97.89
109.23
116.37
121.02
122.48
119.47
111.72
100.78
89.59
79.53
71.31
64.83
59.61
54.51
48.76
42.32
35.95
30.49
26.07
22.42
19.12
15.96
12.32
8.07
3.60
-0.35
-3.22
-4.99
-5.91
-6.22
-6.02
-5.54
-5.01
-4.69
-4.81
-5.58
-7.19
-9.53
-12.09
-14.01
-14.35
-12.39
-7.93
-1.33
6.61
15.01
23.30
31.33
39.25
47.10
54.59
60.99
65.43
67.33
66.64
63.86
59.76
54.96
49.75
44.18
38.22
31.99
25.78
19.97
14.81
10.27
6.05
1.76
-2.91
-8.01
-13.39
-18.77
-23.85
-28.40
-32.21
-35.02
-36.54
-36.53
-35.02
-32.37
-29.17
-25.99
-23.07
-20.13
-16.46
-11.24
-3.98
5.27
15.85
26.82
37.19
46.31
53.90
59.96
64.60
67.86
69.71
70.01
68.75
66.14
62.63
58.86
55.55
53.31
52.52
52.99
53.62
52.29
46.16
32.65
10.75
-17.97
-49.30
-77.58
-97.65
-106.70
-105.13
-96.08
-83.88
-72.30
-63.49
-57.86
-54.72
-53.10
-52.26
-51.75
-51.15
-49.87
-47.28
-43.01
-37.39
-31.52
-27.01
-25.22
-26.67
-30.61
-35.33
-38.91
-39.97
-38.11
-33.86
-28.23
-22.14
-16.12
-10.32
-4.70
0.69
5.69
10.11
13.82
16.86
19.38
21.49
23.15
24.16
24.24
23.28
21.42
19.10
16.91
15.36
14.64
14.59
14.78
14.78
14.36
13.60
12.81
12.30
12.15
12.20
12.13
11.59
10.43
8.67
6.50
4.15
1.75
-0.71
-3.35
-6.31
-9.61
-13.15
-16.65
-19.75
-22.16
-23.86
-25.12
-26.51
-28.59
-31.79
-36.27
-41.82
-47.78
-53.00
-56.22
-56.36
-52.95
-46.21
-37.15
-27.49
-19.22
-14.14
-13.41
-17.47
-25.68
-35.94
-44.59
-47.41
-41.38
-26.23
-4.92
17.48
35.80
47.00
51.42
52.15
53.32
57.20
62.84
67.07
68.00
66.53
65.72
67.52
71.74
76.41
78.96
77.86
72.62
65.12
57.84
52.37
48.62
45.38
41.17
35.05
27.02
18.01
9.43
2.20
-3.61
-8.68
-13.72
-19.08
-24.69
-30.13
-34.95
-38.81
-41.81
-44.25
-46.20
-47.19
-46.35
-42.93
-36.86
-29.00
-20.79
-13.76
-8.81
-5.88
-4.07
-2.28
0.06
2.61
4.39
4.47
2.63
-0.45
-3.42
-4.93
-4.41
-2.30
0.17
1.63
1.36
-0.47
-2.95
-4.89
-5.48
-4.62
-2.89
-1.17
-0.15
-0.01
-0.38
-0.65
-0.40
0.27
0.79
0.45
-1.10
-3.62
-6.38
-8.48
-9.42
-9.33
-8.82
-8.69
-9.42
-11.11
-13.51
-16.32
-19.39
-22.76
-26.44
-30.26
-33.66
-35.94
-36.42
-34.77
-31.19
-26.30
-20.95
-15.89
-11.50
-7.71
-4.12
-0.25
4.13
8.89
13.50
17.35
19.98
21.34
21.75
21.71
21.62
21.56
21.32
20.64
19.44
17.99
16.78
16.23
16.45
17.07
17.39
16.78
15.00
12.32
9.42
7.02
5.56
4.91
4.55
3.82
2.26
-0.17
-3.16
-6.23
-8.97
-11.28
-13.31
-15.42
-17.89
-20.87
-24.28
-27.94
-31.73
-35.68
-39.84
-44.10
-48.01
-50.79
-51.49
-49.44
-44.54
-37.37
-29.01
-20.55
-12.70
-5.63
0.98
7.60
14.48
21.44
27.96
33.35
37.11
39.12
39.65
39.24
38.43
37.53
36.57
35.41
33.96
32.34
30.87
29.89
29.55
29.63
29.72
29.41
28.55
27.29
25.97
24.84
23.84
22.62
20.74
17.99
14.53
10.87
7.60
5.09
3.27
1.61
-0.52
-3.53
-7.38
-11.59
-15.48
-18.57
-20.78
-22.53
-24.42
-26.98
-30.37
-34.36
-38.41
-41.92
-44.44
-45.73
-45.76
-44.58
-42.17
-38.40
-33.13
-26.32
-18.22
-9.42
-0.71
7.23
13.96
19.50
24.11
28.10
31.54
34.20
35.72
35.92
34.97
33.37
31.74
30.56
29.91
29.53
29.06
28.27
27.20
26.11
25.27
24.78
24.44
23.86
22.67
20.73
18.22
15.58
13.27
11.51
10.16
8.75
6.68
3.60
-0.42
-4.85
-8.93
-12.06
-14.11
-15.53
-17.07
-19.39
-22.72
-26.71
-30.70
-34.10
-36.76
-38.92
-40.99
-43.00
-44.44
-44.32
-41.73
-36.35
-28.78
-20.29
-12.27
-5.55
-0.13
4.65
9.60
15.10
20.86
26.09
30.00
32.25
33.12
33.36
33.69
34.46
35.47
36.12
35.88
34.65
32.81
31.04
29.92
29.58
29.53
28.99
27.29
24.28
20.36
16.37
13.06
10.76
9.20
7.78
5.87
3.16
-0.20
-3.74
-7.03
-9.90
-12.56
-15.40
-18.69
-22.43
-26.27
-29.72
-32.47
-34.60
-36.66
-39.37
-43.15
-47.83
-52.49
-55.82
-56.61
-54.30
-49.13
-42.04
-34.10
-26.06
-18.21
-10.46
-2.71
4.91
11.97
17.97
22.62
26.00
28.50
30.57
32.50
34.20
35.34
35.50
34.55
32.70
30.55
28.87
28.25
28.81
30.12
31.32
31.55
30.36
27.89
24.83
21.97
19.74
18.04
16.27
13.82
10.46
6.50
2.60
-0.65
-3.10
-5.19
-7.58
-10.74
-14.63
-18.74
-22.40
-25.26
-27.49
-29.72
-32.68
-36.76
-41.74
-46.92
-51.29
-53.98
-54.57
-53.11
-50.02
-45.79
-40.76
-35.02
-28.50
-21.17
-13.21
-5.10
2.56
9.33
15.04
19.86
24.13
28.03
31.36
33.67
34.45
33.60
31.55
29.16
27.38
26.75
27.15
27.92
28.24
27.56
25.91
23.78
21.84
20.46
19.51
18.46
16.76
14.22
11.15
8.15
5.76
4.13
2.82
1.15
-1.44
-5.04
-9.21
-13.19
-16.29
-18.33
-19.67
-21.17
-23.65
-27.60
-32.86
-38.71
-44.11
-48.11
-50.17
-50.24
-48.65
-45.75
-41.76
-36.62
-30.18
-22.45
-13.85
-5.10
3.03
10.01
15.78
20.68
25.16
29.39
33.09
35.72
36.82
36.34
34.78
32.99
31.71
31.21
31.21
31.10
30.40
29.07
27.51
26.29
25.78
25.80
25.71
24.74
22.44
18.96
14.97
11.28
8.45
6.49
4.91
3.04
0.42
-2.98
-6.81
-10.54
-13.77
-16.47
-18.85
-21.28
-23.99
-26.94
-29.94
-32.72
-35.17
-37.52
-40.17
-43.47
-47.39
-51.30
-54.12
-54.62
-51.97
-46.12
-37.82
-28.33
-18.84
-10.10
-2.25
5.01
12.02
18.84
25.14
30.41
34.24
36.59
37.83
38.54
39.23
40.04
40.73
40.86
40.10
38.47
36.35
34.31
32.82
31.95
31.38
30.57
29.08
26.78
23.98
21.20
18.92
17.28
16.01
14.59
12.54
9.70
6.35
3.05
0.31
-1.71
-3.34
-5.14
-7.60
-10.77
-14.27
-17.45
-19.89
-21.63
-23.19
-25.32
-28.52
-32.80
-37.70
-42.39
-46.12
-48.36
-48.96
-47.95
-45.43
-41.43
-35.90
-28.86
-20.57
-11.62
-2.85
4.95
11.33
16.30
20.26
23.69
26.82
29.45
31.14
31.52
30.68
29.16
27.71
26.96
27.06
27.61
27.95
27.53
26.18
24.20
22.15
20.57
19.67
19.21
18.62
17.34
15.12
12.15
9.00
6.32
4.47
3.32
2.34
0.85
-1.55
-4.84
-8.56
-12.14
-15.17
-17.61
-19.75
-21.96
-24.47
-27.27
-30.25
-33.34
-36.63
-40.36
-44.64
-49.24
-53.45
-56.23
-56.53
-53.71
-47.88
-39.82
-30.73
-21.78
-13.68
-6.53
0.02
6.42
12.85
19.06
24.51
28.68
31.35
32.74
33.37
33.76
34.18
34.54
34.48
33.69
32.15
30.18
28.35
27.17
26.80
26.97
27.09
26.63
25.38
23.53
21.58
19.98
18.81
17.79
16.37
14.18
11.17
7.74
4.44
1.69
-0.49
-2.48
-4.81
-7.84
-11.55
-15.53
-19.24
-22.31
-24.72
-26.90
-29.41
-32.69
-36.87
-41.65
-46.44
-50.59
-53.56
-55.01
-54.76
-52.70
-48.74
-42.82
-34.97
-25.50
-15.06
-4.57
4.92
12.66
18.39
22.46
25.62
28.60
31.67
34.56
36.60
37.25
36.46
34.77
33.02
31.99
31.92
32.50
33.11
33.23
32.65
31.49
30.01
28.27
26.03
22.89
18.52
13.03
7.02
1.44
-2.79
-5.17
-5.90
-5.76
-5.80
-6.77
-8.84
-11.51
-14.01
-15.69
-16.46
-16.79
-17.49
-19.29
-22.59
-27.37
-33.28
-39.88
-46.67
-53.13
-58.62
-62.41
-63.77
-62.22
-57.62
-50.31
-41.04
-30.77
-20.43
-10.73
-2.05
5.60
12.38
18.46
23.78
28.08
30.98
32.36
32.42
31.68
30.78
30.10
29.62
28.99
27.82
26.06
24.10
22.67
22.48
23.78
26.18
28.77
30.54
30.84
29.62
27.38
24.83
22.48
20.42
18.37
15.99
13.15
10.04
7.01
4.33
1.97
-0.42
-3.35
-7.18
-11.89
-17.13
-22.33
-26.97
-30.88
-34.29
-37.72
-41.66
-46.18
-50.74
-54.35
-55.87
-54.59
-50.57
-44.52
-37.50
-30.42
-23.64
-17.05
-10.29
-3.19
4.02
10.82
16.60
21.02
24.09
26.15
27.56
28.56
29.12
29.05
28.24
26.78
24.97
23.21
21.83
20.85
20.04
19.07
17.67
15.88
13.96
12.28
11.05
10.10
8.97
7.07
4.09
0.23
-3.87
-7.39
-9.70
-10.73
-10.97
-11.17
-11.99
-13.63
-15.85
-18.06
-19.69
-20.51
-20.72
-20.91
-21.73
-23.65
-26.70
-30.47
-34.27
-37.34
-39.15
-39.42
-38.02
-34.85
-29.72
-22.48
-13.24
-2.58
8.45
18.61
26.91
32.94
37.01
39.82
42.09
44.11
45.68
46.34
45.78
44.18
42.13
40.39
39.44
39.23
39.22
38.72
37.28
34.98
32.37
30.20
28.97
28.67
28.81
28.62
27.52
25.41
22.71
20.11
18.12
16.76
15.54
13.75
10.96
7.32
3.48
0.30
-1.70
-2.67
-3.30
-4.45
-6.67
-9.93
-13.73
-17.52
-21.03
-24.41
-28.02
-32.02
-36.08
-39.48
-41.45
-41.65
-40.53
-39.12
-38.50
-39.31
-41.44
-44.10
-46.08
-46.20
-43.64
-38.29
-30.55
-21.28
-11.57
-2.65
4.37
8.75
10.32
9.49
6.95
3.69
0.80
-0.77
-0.50
1.63
5.18
9.33
13.13
15.26
14.99
12.65
9.41
6.57
5.01
4.96
6.03
7.35
7.10
4.20
-0.83
-6.24
-10.42
-12.68
-13.25
-13.04
-13.38
-16.76
-24.27
-34.56
-44.66
-52.15
-56.13
-57.03
-56.03
-54.75
-56.51
-63.46
-75.29
-89.87
-104.98
-118.73
-128.89
-132.72
-115.07
-70.19
-8.34
51.37
95.05
118.57
124.65
119.44
111.09
103.33
95.62
86.64
76.38
66.29
57.83
51.75
48.29
47.26
47.71
46.87
42.41
34.02
23.40
12.95
4.79
0.45
0.41
3.69
7.70
10.04
9.77
7.50
4.37
1.37
-0.81
-1.93
-2.35
-3.27
-5.99
-11.22
-18.81
-27.88
-37.10
-45.08
-50.89
-54.45
-56.41
-57.42
-57.44
-55.60
-50.77
-42.35
-30.79
-17.51
-4.40
6.97
15.89
22.55
27.56
31.47
34.43
36.19
36.46
35.23
32.92
30.32
28.22
27.11
27.01
27.53
28.07
28.11
27.34
25.71
23.33
20.35
16.88
13.01
8.93
4.99
1.65
-0.67
-1.96
-2.67
-3.70
-5.93
-9.81
-15.15
-21.18
-26.93
-31.81
-35.76
-39.17
-42.42
-45.66
-48.60
-50.81
-51.99
-52.19
-51.77
-51.20
-50.67
-49.92
-48.23
-44.64
-38.35
-29.11
-17.37
-4.26
8.93
21.17
32.00
41.56
50.17
57.88
64.29
68.69
70.52
69.75
66.96
63.10
59.04
55.22
51.63
48.05
44.32
40.53
36.96
33.95
31.65
29.89
28.31
26.47
24.12
21.38
18.66
16.43
14.93
13.87
12.58
10.32
6.78
2.30
-2.26
-6.02
-8.51
-9.95
-10.90
-11.83
-12.76
-13.38
-13.38
-12.91
-12.59
-13.13
-14.96
-18.03
-22.19
-27.68
-35.12
-44.84
-55.93
-65.73
-70.41
-66.67
-53.48
-32.88
-9.24
12.70
29.78
41.25
48.20
52.19
54.04
53.65
50.62
45.23
38.59
32.15
26.71
21.95
16.58
9.19
-0.78
-12.62
-24.62
-34.86
-41.92
-45.28
-45.18
-42.27
-37.30
-31.04
-24.40
-18.58
-14.78
-13.92
-16.17
-20.75
-26.13
-30.52
-32.65
-32.31
-30.45
-28.78
-28.93
-31.69
-36.73
-42.68
-47.92
-51.16
-51.86
-50.07
-46.16
-40.55
-33.73
-26.48
-19.97
-15.41
-13.45
-13.61
-14.13
-12.66
-7.29
2.43
15.20
28.45
39.38
46.07
47.98
45.89
41.33
35.92
30.89
27.01
24.68
24.09
25.22
27.74
30.93
33.81
35.49
35.49
34.02
31.82
29.82
28.66
28.43
28.63
28.44
27.21
24.65
20.96
16.58
11.92
7.15
2.25
-2.88
-8.21
-13.47
-18.17
-21.71
-23.68
-24.13
-23.67
-23.45
-24.84
-28.93
-36.02
-45.34
-55.08
-62.96
-66.99
-66.26
-61.24
-53.48
-44.78
-36.37
-28.38
-20.04
-10.41
0.87
13.30
25.68
36.81
46.04
53.41
59.23
63.52
65.74
65.07
61.05
54.32
46.74
40.74
38.08
38.96
41.88
44.30
43.80
39.24
31.23
21.93
13.88
8.68
6.31
5.38
4.08
1.16
-3.47
-8.82
-13.23
-15.53
-15.86
-15.54
-16.17
-18.74
-23.19
-28.60
-33.65
-36.51
-36.20
-33.42
-30.11
-28.24
-28.97
-32.46
-38.13
-44.93
-50.00
-50.96
-47.67
-42.09
-36.46
-31.80
-27.54
-22.19
-14.19
-0.07
21.76
48.82
75.67
97.46
111.98
119.37
120.82
117.89
116.14
121.59
137.57
164.22
200.13
242.69
287.28
327.43
334.22
290.31
204.25
104.57
16.55
-49.89
-96.66
-129.99
-155.08
-174.06
-184.27
-181.43
-165.98
-143.88
-122.75
-108.19
-102.56
-105.15
-113.36
-121.22
-122.51
-115.70
-103.70
-91.09
-81.76
-78.03
-80.45
-86.98
-93.39
-95.29
-91.36
-83.75
-76.08
-71.11
-70.57
-72.77
-75.09
-74.54
-69.09
-59.06
-46.39
-33.05
-20.70
-10.03
-0.92
6.74
13.04
17.90
20.88
21.63
20.46
18.35
16.59
16.27
17.78
20.92
25.38
30.71
36.57
42.78
49.28
55.93
62.35
67.69
70.81
70.72
66.83
59.22
48.50
35.55
21.12
5.81
-9.56
-23.32
-32.91
-35.44
-28.95
-13.70
7.50
29.48
46.27
53.45
49.92
38.45
24.81
16.14
18.66
36.14
67.44
106.19
142.42
165.72
168.68
149.38
112.36
67.01
24.95
-5.84
-23.58
-31.97
-37.01
-43.21
-51.16
-57.27
-55.81
-41.23
-13.60
21.08
53.54
75.49
82.64
75.13
56.17
22.69
-22.16
-69.91
-110.10
-134.71
-138.73
-120.28
-82.46
-34.01
13.71
53.28
78.49
86.65
79.68
62.80
41.39
18.12
-6.52
-33.17
-58.13
-76.46
-82.84
-73.36
-47.49
-10.09
28.73
57.34
67.22
56.08
26.30
-16.62
-66.43
-115.17
-151.07
-164.99
-154.86
-124.45
-80.66
-33.59
5.01
25.26
23.05
1.67
-29.59
-60.56
-81.27
-84.98
-70.18
-40.03
-0.34
42.58
81.04
106.46
115.68
111.73
100.20
85.68
70.51
55.64
41.46
28.43
17.55
7.85
-1.39
-10.81
-20.77
-31.25
-41.26
-49.19
-53.48
-53.50
-50.23
-45.63
-42.27
-40.69
-41.23
-42.67
-42.18
-36.19
-22.05
1.37
30.87
59.47
80.40
90.29
89.68
81.34
68.81
57.14
46.61
37.15
28.63
20.52
11.29
-1.11
-18.77
-40.30
-61.94
-80.08
-92.25
-97.51
-95.95
-88.09
-74.80
-57.52
-38.49
-21.05
-8.93
-3.96
-4.72
-8.13
-11.77
-14.95
-18.53
-24.16
-33.53
-47.44
-64.29
-79.25
-86.09
-79.53
-57.37
-21.03
25.19
74.34
116.55
143.23
151.48
144.19
128.40
112.42
103.61
106.55
122.08
147.82
171.46
181.81
174.67
154.02
125.76
92.86
55.40
13.07
-32.28
-76.13
-111.33
-132.39
-138.64
-134.79
-127.77
-123.11
-122.44
-123.04
-120.30
-109.93
-91.12
-67.15
-43.61
-24.91
-12.78
-6.86
-5.48
-8.06
-14.68
-25.31
-38.48
-50.52
-55.90
-50.00
-31.61
-3.28
29.11
59.23
82.88
99.05
106.57
107.38
104.33
95.06
77.62
52.56
23.96
-1.84
-19.05
-25.28
-22.06
-14.41
-8.22
-6.69
-9.43
-14.21
-17.73
-17.10
-11.01
0.03
13.62
26.39
35.95
41.28
41.82
37.98
31.04
22.56
13.70
4.52
-5.34
-14.72
-21.17
-23.31
-20.77
-14.27
-5.42
3.58
10.57
14.50
17.02
20.27
22.93
21.04
9.91
-13.40
-49.04
-94.35
-144.62
-192.86
-225.51
-233.75
-219.03
-192.03
-162.94
-134.10
-101.13
-59.15
-7.98
51.92
113.17
166.33
205.13
228.72
240.39
244.86
232.71
201.94
156.74
104.62
54.35
13.63
-13.17
-26.97
-32.01
-33.47
-33.65
-33.73
-35.38
-40.05
-46.76
-54.70
-63.96
-75.89
-92.88
-114.21
-137.69
-160.97
-181.15
-193.99
-195.19
-181.58
-152.33
-110.28
-58.73
-2.92
49.95
92.83
122.00
137.51
142.90
143.54
143.95
149.31
162.15
180.93
193.45
189.01
163.96
123.98
85.80
54.39
31.52
16.66
6.21
-2.85
-11.97
-21.60
-32.26
-45.51
-63.88
-86.08
-104.69
-108.26
-88.91
-49.48
-3.49
32.32
46.58
37.02
11.86
-16.46
-38.49
-51.63
-58.66
-63.50
-67.87
-70.09
-67.55
-58.18
-43.15
-27.18
-16.13
-13.37
-16.99
-20.91
-17.58
-2.62
23.00
52.37
75.19
82.63
71.80
48.62
22.88
5.52
3.36
16.86
40.53
65.84
84.70
90.70
82.08
59.43
25.59
-14.30
-52.86
-82.05
-95.67
-92.16
-76.93
-57.94
-44.67
-43.03
-52.46
-66.14
-74.74
-71.01
-53.09
-24.94
6.38
33.47
52.11
60.85
62.45
60.44
56.77
51.60
44.44
36.03
28.30
23.70
23.54
26.95
30.58
30.50
24.12
11.58
-4.07
-18.60
-28.16
-30.81
-26.75
-18.30
-8.90
-1.79
1.04
-0.50
-4.90
-9.81
-13.02
-13.30
-10.95
-7.39
-4.34
-3.03
-3.72
-5.75
-7.89
-8.92
-7.92
-4.70
0.33
6.28
12.09
16.83
19.77
20.69
19.80
17.68
15.04
12.56
10.77
9.88
9.70
9.80
9.65
8.92
7.60
5.99
4.53
3.60
3.35
3.75
4.63
5.86
7.35
9.09
11.13
13.54
16.45
19.94
24.02
28.68
33.84
39.44
45.46
51.71
57.96
63.94
69.36
73.91
77.46
80.04
81.90
83.39
84.81
86.25
87.54
88.26
87.80
85.43
80.42
72.09
59.96
44.00
24.72
3.21
-19.10
-40.75
-60.53
-77.66
-91.85
-103.20
-112.03
-118.75
-123.78
-127.42
-129.81
-130.98
-130.90
-129.54
-126.97
-123.34
-118.73
-113.22
-106.86
-99.82
-92.39
-84.94
-77.79
-71.01
-64.44
-57.80
-50.89
-43.86
-37.12
-31.24
-26.58
-23.17
-20.62
-18.30
-15.57
-12.01
-7.56
-2.46
2.84
7.90
12.32
15.95
18.75
20.88
22.52
23.84
24.96
25.94
26.79
27.44
27.73
27.48
26.63
25.35
24.05
23.22
23.23
24.11
25.20
25.43
23.68
19.49
13.41
6.85
1.50
-1.39
-1.43
0.25
1.66
0.68
-3.94
-11.92
-21.78
-31.45
-38.97
-42.75
-42.07
-36.86
-27.77
-16.25
-4.64
3.72
5.09
-3.36
-19.10
-36.75
-49.52
-53.54
-49.68
-41.38
-31.94
-23.06
-14.76
-6.46
1.43
7.05
7.91
2.88
-6.21
-14.75
-16.91
-8.02
13.36
44.58
79.70
111.39
133.08
140.64
132.81
111.55
83.25
54.33
31.99
21.51
23.80
35.04
48.65
58.18
59.80
51.99
37.01
18.20
-1.75
-20.73
-37.18
-48.68
-53.49
-52.00
-46.74
-40.92
-36.47
-33.01
-28.36
-20.57
-9.67
1.70
9.57
11.03
5.86
-3.59
-13.76
-21.58
-25.35
-24.81
-20.11
-12.26
-2.74
6.92
15.24
21.03
23.56
22.76
19.38
14.84
10.89
9.22
10.87
15.63
22.05
27.95
31.25
30.78
26.53
19.37
10.77
2.30
-4.83
-9.94
-12.88
-14.00
-14.01
-13.82
-14.35
-16.17
-19.49
-24.16
-29.67
-35.09
-39.35
-41.55
-41.39
-39.29
-36.11
-32.76
-29.71
-26.78
-22.93
-17.03
-8.69
1.31
11.41
19.90
25.39
27.18
25.23
20.82
15.87
11.94
9.49
8.08
6.77
4.59
0.85
-4.45
-9.38
-11.22
-8.02
0.05
11.20
22.95
32.75
38.67
39.69
37.24
34.17
33.40
36.87
46.25
62.89
86.98
116.53
139.49
142.97
122.96
88.43
52.56
23.97
4.11
-10.78
-26.21
-45.88
-68.20
-87.96
-99.72
-102.88
-99.05
-91.64
-84.03
-78.34
-74.68
-70.56
-63.12
-50.69
-34.44
-16.63
0.56
16.47
31.22
44.38
55.37
62.93
67.12
68.84
70.32
73.48
78.59
82.69
80.82
68.44
43.58
10.68
-25.68
-59.52
-85.87
-102.25
-110.00
-112.33
-107.92
-100.51
-93.30
-88.57
-86.06
-83.21
-75.38
-60.78
-36.85
-4.27
32.46
67.85
96.09
114.29
118.83
113.92
105.36
96.79
87.92
75.81
58.49
36.44
9.92
-18.56
-45.28
-68.12
-85.60
-96.68
-99.97
-89.21
-65.48
-34.23
-1.78
26.76
46.62
54.92
51.93
41.61
31.73
28.07
34.11
50.93
75.55
99.27
111.53
105.12
79.13
38.34
-11.05
-65.10
-120.86
-171.57
-210.66
-232.39
-232.40
-209.28
-166.54
-103.60
-35.53
18.36
49.23
61.08
63.56
64.62
67.33
70.72
72.14
68.62
61.08
53.36
48.58
47.78
50.31
54.81
59.76
63.45
63.02
57.14
46.25
31.30
13.76
-4.15
-19.86
-31.49
-38.59
-42.83
-45.55
-46.91
-46.55
-44.10
-39.63
-33.79
-27.69
-22.69
-19.38
-17.27
-15.03
-11.55
-6.51
-0.50
5.43
10.28
13.53
15.10
15.55
15.80
16.60
18.23
20.46
22.74
24.40
24.98
24.33
22.65
20.45
18.30
16.47
14.90
13.24
11.04
8.06
4.35
0.24
-3.77
-7.31
-10.21
-12.59
-14.73
-16.92
-18.94
-20.67
-22.04
-22.99
-23.49
-23.51
-23.03
-22.08
-20.74
-19.14
-17.50
-15.98
-14.64
-13.46
-12.37
-11.29
-10.13
-8.75
-6.97
-4.62
-1.58
2.11
6.24
10.42
14.25
17.40
19.77
21.42
22.51
23.17
23.38
23.00
21.82
19.73
16.76
13.13
9.17
5.12
1.10
-2.93
-7.02
-11.23
-15.52
-19.68
-23.43
-26.37
-28.05
-27.96
-25.64
-20.86
-13.75
-4.93
4.52
13.30
20.25
24.60
26.26
25.66
23.63
21.00
18.41
16.15
14.29
12.75
11.50
10.55
9.92
9.56
9.34
9.06
8.58
7.92
7.28
6.93
7.14
8.04
9.52
11.31
13.04
14.43
15.28
15.58
15.39
14.77
13.78
12.44
10.77
8.81
6.62
4.26
1.76
-0.80
-3.33
-5.66
-7.62
-9.08
-9.94
-10.21
-9.95
-9.28
-8.36
-7.46
-6.92
-7.03
-7.92
-9.45
-11.25
-12.80
-13.71
-13.86
-13.44
-12.88
-12.61
-12.93
-13.88
-15.26
-16.74
-18.01
-18.93
-19.52
-19.93
-20.35
-20.90
-21.59
-22.43
-23.40
-24.49
-25.61
-26.57
-27.05
-26.67
-25.19
-22.57
-19.01
-14.87
-10.51
-6.15
-1.87
2.34
6.49
10.48
14.12
17.16
19.34
20.46
20.48
19.56
17.99
16.20
14.61
13.51
13.04
13.16
13.70
14.49
15.37
16.21
16.90
17.35
17.47
17.28
16.84
16.27
15.62
14.86
13.86
12.51
10.79
8.80
6.72
4.71
2.80
0.87
-1.23
-3.63
-6.28
-9.04
-11.72
-14.23
-16.61
-18.98
-21.45
-23.97
-26.31
-28.05
-28.77
-28.15
-26.10
-22.82
-18.69
-14.18
-9.65
-5.31
-1.16
2.81
6.61
10.14
13.20
15.62
17.28
18.25
18.70
18.86
18.87
18.78
18.54
18.08
17.35
16.42
15.46
14.63
14.03
13.64
13.29
12.75
11.87
10.63
9.16
7.71
6.43
5.39
4.46
3.43
2.15
0.61
-1.03
-2.53
-3.77
-4.78
-5.76
-6.94
-8.42
-10.15
-11.96
-13.75
-15.53
-17.48
-19.78
-22.48
-25.35
-27.93
-29.65
-30.08
-29.05
-26.68
-23.34
-19.43
-15.28
-11.05
-6.80
-2.55
1.54
5.21
8.15
10.18
11.28
11.68
11.69
11.58
11.40
11.06
10.35
9.15
7.55
5.79
4.21
3.07
2.42
2.14
1.96
1.65
1.10
0.35
-0.45
-1.13
-1.61
-1.93
-2.23
-2.68
-3.41
-4.44
-5.73
-7.21
-8.85
-10.68
-12.69
-14.82
-16.88
-18.65
-19.94
-20.76
-21.35
-22.04
-23.13
-24.63
-26.21
-27.27
-27.13
-25.36
-21.89
-17.04
-11.41
-5.57
0.05
5.29
10.17
14.69
18.74
22.07
24.39
25.59
25.77
25.28
24.51
23.77
23.18
22.68
22.16
21.59
21.04
20.68
20.64
20.93
21.41
21.84
21.98
21.71
21.04
20.09
19.02
17.92
16.75
15.40
13.70
11.56
9.03
6.26
3.46
0.74
-1.95
-4.77
-7.94
-11.57
-15.59
-19.72
-23.61
-27.02
-29.90
-32.37
-34.63
-36.81
-38.83
-40.43
-41.28
-41.12
-39.86
-37.55
-34.34
-30.30
-25.43
-19.63
-12.86
-5.26
2.76
10.58
17.57
23.26
27.50
30.48
32.56
34.08
35.20
35.91
36.12
35.83
35.14
34.31
33.60
33.21
33.10
33.11
32.89
32.07
30.40
27.86
24.75
21.54
18.78
16.84
15.75
15.08
14.13
12.18
8.87
4.42
-0.44
-4.67
-7.42
-8.33
-7.81
-6.91
-6.79
-8.12
-10.74
-13.67
-15.40
-14.73
-11.26
-5.89
-0.57
2.59
2.49
-0.51
-4.46
-6.22
-2.40
9.91
31.70
61.06
93.40
122.02
139.39
138.93
117.72
77.97
27.89
-20.54
-55.73
-69.42
-59.11
-27.98
16.61
66.54
114.11
153.42
179.47
187.04
172.80
136.77
83.60
21.32
-40.40
-94.45
-134.01
-152.15
-149.25
-133.64
-116.11
-102.89
-99.52
-102.41
-107.93
-113.30
-117.20
-121.08
-121.84
-118.07
-109.16
-96.24
-81.42
-68.25
-59.74
-53.41
-48.43
-44.07
-40.71
-38.67
-37.76
-36.24
-31.56
-20.76
-2.04
22.12
46.43
64.60
72.78
71.51
64.58
57.20
54.15
58.28
68.54
82.01
95.34
106.03
112.26
112.70
106.32
90.21
64.44
31.14
-5.45
-40.25
-69.25
-90.84
-105.53
-114.88
-120.60
-123.66
-125.13
-125.46
-124.28
-121.08
-115.35
-106.44
-93.57
-76.89
-58.15
-41.06
-29.02
-22.85
-20.60
-18.30
-11.14
4.84
31.03
65.91
102.60
130.18
141.36
135.86
116.67
86.32
47.18
3.48
-37.98
-70.45
-89.67
-92.99
-81.72
-61.02
-37.22
-15.07
3.57
19.52
33.36
46.26
59.65
73.53
86.00
94.32
96.49
92.19
83.21
72.73
64.62
61.76
64.01
68.08
69.13
62.97
47.91
25.08
-2.18
-29.26
-51.66
-66.30
-71.88
-68.47
-57.16
-40.01
-20.27
-2.32
9.40
11.61
3.33
-13.61
-34.86
-55.10
-70.00
-77.65
-78.92
-76.32
-72.59
-69.51
-67.56
-66.26
-64.87
-62.83
-59.77
-55.33
-49.00
-40.46
-29.86
-18.03
-6.37
3.77
11.64
17.47
22.19
26.81
31.77
36.63
40.26
41.55
40.00
36.08
31.10
26.60
23.80
23.11
24.07
25.70
27.02
27.50
27.21
26.61
26.26
26.35
26.67
26.67
25.88
24.21
22.05
20.04
18.68
17.95
17.30
15.85
12.91
8.35
2.70
-3.12
-8.25
-12.34
-15.67
-18.93
-22.83
-27.67
-33.20
-38.72
-43.38
-46.48
-47.73
-47.11
-44.85
-41.13
-36.05
-29.61
-21.85
-13.05
-3.71
5.47
13.82
20.93
26.67
31.19
34.71
37.29
38.83
39.20
38.46
37.06
35.73
35.19
35.79
37.20
38.57
38.96
37.84
35.49
32.87
31.17
31.12
32.56
34.35
35.00
33.42
29.55
24.50
20.08
17.87
18.43
20.97
23.71
24.64
22.39
16.43
6.98
-5.36
-19.65
-34.32
-47.08
-55.34
-57.29
-53.06
-45.15
-37.50
-33.63
-34.77
-39.17
-43.20
-43.50
-38.91
-31.13
-23.51
-19.05
-18.69
-20.88
-22.68
-21.38
-15.90
-7.09
2.81
11.49
17.63
21.30
23.50
25.40
27.56
29.82
31.65
32.66
33.04
33.37
34.20
35.56
36.86
37.23
36.12
33.55
30.12
26.62
23.76
21.86
20.86
20.44
20.19
19.71
18.66
16.73
13.82
10.08
5.86
1.62
-2.32
-5.85
-8.88
-11.45
-13.84
-16.41
-19.44
-23.05
-27.15
-31.44
-35.46
-38.20
-38.79
-36.90
-32.77
-26.97
-20.18
-13.15
-6.47
-0.39
6.27
14.71
25.21
36.82
47.82
56.36
60.79
60.03
53.73
43.87
32.87
22.72
15.12
11.91
14.70
23.70
37.01
51.14
64.45
76.14
85.88
94.06
101.78
110.23
119.72
129.45
126.06
102.83
64.18
22.64
-11.05
-33.46
-46.76
-55.21
-62.63
-71.34
-80.22
-88.19
-95.75
-104.22
-113.49
-121.41
-124.78
-121.13
-110.11
-91.85
-66.92
-41.19
-20.19
-6.64
-0.49
-0.19
-3.75
-8.79
-11.06
-8.26
-0.09
12.12
25.57
37.12
43.90
43.71
33.37
15.02
-7.28
-29.40
-47.57
-59.11
-62.60
-58.49
-49.35
-38.98
-30.64
-27.12
-29.98
-38.88
-51.89
-66.03
-76.53
-79.05
-70.97
-51.83
-24.64
5.26
32.72
51.81
61.44
64.84
67.02
71.54
78.50
83.73
80.94
65.02
34.80
-4.29
-43.99
-74.35
-87.82
-82.19
-62.20
-37.43
-17.86
-9.92
-13.48
-23.51
-33.55
-39.78
-42.17
-43.63
-47.18
-53.25
-59.55
-61.42
-54.84
-36.89
-10.67
17.60
41.16
55.34
60.87
59.96
55.79
51.27
48.24
46.79
46.35
46.53
45.70
44.33
43.08
42.67
43.26
44.08
43.05
37.98
27.63
12.52
-4.72
-21.08
-34.30
-43.85
-50.98
-57.41
-63.15
-65.40
-59.96
-43.24
-15.58
18.55
52.54
79.81
95.67
98.17
88.04
67.29
39.25
8.24
-19.78
-37.04
-36.67
-16.30
19.79
61.88
96.33
110.77
98.08
59.73
6.46
-46.55
-86.13
-106.21
-107.91
-99.58
-91.68
-89.80
-97.48
-111.95
-125.38
-130.39
-123.62
-103.48
-75.08
-38.56
4.69
51.06
96.50
137.34
171.78
188.25
183.60
161.58
131.92
104.16
84.32
74.92
74.30
76.71
74.09
61.12
36.14
-0.06
-42.56
-84.20
-117.76
-139.03
-148.48
-150.31
-142.23
-128.54
-113.83
-100.70
-89.97
-81.32
-74.48
-69.19
-64.46
-57.40
-46.32
-30.67
-11.92
6.54
21.88
33.42
43.15
54.47
70.17
88.84
105.88
116.62
115.84
102.25
78.90
51.86
27.56
10.49
1.11
-2.83
-4.80
-7.60
-11.69
-15.42
-16.28
-12.62
-4.60
5.24
13.55
17.66
16.57
11.53
5.13
0.31
-0.89
1.72
6.80
12.22
15.51
14.89
9.81
0.84
-9.74
-18.53
-20.85
-13.07
6.22
34.74
67.53
97.83
118.40
123.83
111.29
82.39
41.65
-3.77
-46.58
-80.38
-102.77
-117.55
-132.36
-155.53
-181.34
-197.64
-190.29
-153.96
-93.81
-22.97
39.60
87.13
116.23
127.73
123.98
107.99
77.09
31.39
-19.83
-64.75
-94.60
-106.31
-98.98
-78.26
-46.57
-10.39
22.86
46.94
59.09
60.27
54.05
44.58
37.20
36.19
41.07
49.05
56.91
62.65
65.67
65.55
62.34
56.09
46.81
33.61
16.48
-4.37
-28.11
-52.80
-75.44
-92.54
-101.46
-101.73
-96.09
-85.24
-74.94
-68.75
-66.19
-63.50
-56.00
-40.84
-19.08
4.31
22.93
31.05
27.51
15.63
1.78
-7.21
-6.43
5.69
27.32
54.54
81.60
103.00
113.58
109.19
88.11
52.67
9.60
-31.40
-58.44
-65.66
-54.04
-30.62
-4.90
15.60
28.28
35.26
40.81
47.93
55.34
58.91
54.23
39.38
16.27
-9.95
-34.30
-53.07
-64.78
-70.08
-70.08
-65.77
-58.21
-48.88
-39.75
-32.75
-28.73
-27.29
-27.33
-27.85
-28.67
-30.43
-33.47
-36.85
-38.37
-35.60
-27.79
-16.94
-6.96
-2.08
-4.97
-15.16
-29.33
-42.63
-50.53
-50.76
-44.12
-33.86
-23.93
-17.64
-16.41
-19.01
-22.15
-22.09
-16.53
-5.49
9.05
24.48
38.93
51.93
63.93
75.14
84.77
91.23
93.08
89.99
82.88
73.36
62.97
52.63
42.56
32.59
22.50
12.37
2.53
-6.52
-14.08
-19.17
-20.64
-17.77
-10.76
-0.63
11.32
23.92
36.38
48.26
59.08
68.52
76.07
81.23
84.00
84.93
84.50
82.30
77.23
67.79
53.97
37.21
20.30
6.74
-0.66
-1.20
2.82
7.69
9.95
9.17
7.15
6.25
7.73
10.56
11.67
6.96
-6.12
-30.58
-61.70
-89.68
-107.42
-114.53
-114.23
-108.12
-97.62
-78.85
-49.38
-9.84
34.71
76.43
108.73
125.51
125.98
114.29
97.56
81.86
70.37
61.97
52.52
37.97
16.95
-8.23
-33.34
-53.86
-67.06
-71.87
-69.15
-61.18
-50.69
-40.00
-30.36
-22.39
-16.21
-12.16
-10.67
-12.30
-17.47
-26.15
-37.15
-47.96
-55.62
-57.61
-52.81
-41.56
-25.61
-7.62
9.52
23.77
34.62
42.87
49.75
56.22
62.69
69.21
75.91
82.65
89.44
95.85
100.19
99.08
88.93
68.31
39.35
7.39
-22.48
-46.00
-60.45
-65.04
-60.83
-49.51
-32.63
-11.92
9.98
26.58
32.88
28.50
17.20
3.69
-8.62
-18.45
-26.68
-35.21
-50.10
-73.57
-101.44
-126.40
-143.56
-152.74
-157.26
-161.81
-170.19
-189.95
-223.64
-266.33
-309.71
-348.04
-379.06
-401.55
-413.58
-375.92
-275.81
-139.69
-10.19
87.51
150.49
187.07
207.99
221.68
232.05
232.79
217.79
187.92
150.62
115.29
90.12
80.35
86.33
102.20
115.84
117.75
106.86
89.17
72.33
61.52
58.22
60.70
65.78
68.42
66.81
63.72
62.94
65.75
69.69
70.45
64.69
50.67
29.33
4.98
-15.01
-23.84
-19.73
-8.15
1.91
3.30
-6.58
-26.14
-50.64
-73.84
-92.72
-104.70
-109.11
-107.36
-102.08
-97.05
-95.60
-98.87
-100.27
-94.16
-75.14
-42.12
-0.00
43.07
78.92
102.53
113.11
113.08
105.23
92.67
80.15
68.12
58.09
51.42
48.22
47.17
46.61
44.70
41.13
36.30
30.49
24.33
18.28
12.98
8.06
4.22
1.69
0.58
0.40
0.16
-0.68
-2.18
-3.62
-3.69
-0.88
5.27
14.15
24.14
33.18
39.64
42.73
42.91
41.47
39.88
38.71
37.64
35.73
31.95
25.44
15.80
3.48
-10.59
-25.38
-40.35
-55.32
-70.15
-81.60
-85.98
-82.08
-72.25
-60.15
-48.40
-38.19
-29.61
-22.28
-15.73
-10.17
-6.53
-4.94
-5.09
-6.28
-7.76
-8.76
-8.80
-7.92
-7.07
-7.46
-9.82
-13.81
-18.50
-22.75
-25.49
-26.25
-25.33
-23.86
-23.09
-23.69
-25.53
-27.92
-30.07
-31.18
-30.96
-29.94
-29.30
-30.21
-33.09
-37.48
-42.33
-46.53
-48.67
-48.16
-45.82
-43.55
-42.89
-43.98
-45.64
-46.36
-45.07
-39.99
-30.45
-17.95
-5.93
2.48
6.31
6.88
6.97
9.99
21.42
44.74
77.93
113.30
141.58
156.01
154.14
137.76
111.99
87.56
76.04
85.19
116.85
168.46
234.26
304.99
368.76
392.56
353.06
256.32
136.26
27.65
-52.76
-105.25
-137.94
-158.74
-171.43
-172.71
-158.74
-131.17
-98.87
-72.78
-60.16
-62.57
-76.97
-97.92
-116.99
-126.77
-123.86
-109.59
-87.71
-62.37
-37.64
-17.39
-4.35
1.95
3.69
2.24
-2.47
-10.80
-21.59
-31.61
-36.78
-33.65
-20.61
0.84
25.96
48.45
63.28
68.64
65.29
54.24
38.24
19.11
-1.40
-20.91
-36.25
-44.48
-44.49
-37.37
-25.93
-13.27
-1.95
6.50
10.96
10.51
4.64
-5.70
-17.52
-26.16
-27.15
-18.77
-3.01
15.51
32.06
44.14
52.86
60.59
68.28
73.49
71.10
57.17
29.62
-8.58
-50.34
-86.67
-109.82
-114.91
-101.57
-73.64
-37.88
-1.99
27.65
47.12
55.35
53.39
44.34
31.46
17.27
3.15
-9.97
-20.58
-26.61
-24.16
-14.40
0.95
18.69
35.40
46.50
48.44
40.09
22.93
0.41
-23.72
-45.14
-60.22
-66.47
-63.38
-52.09
-35.16
-16.00
1.59
13.54
17.62
13.91
4.93
-5.69
-13.99
-16.94
-13.06
-0.09
20.01
41.34
57.54
65.57
65.19
57.59
43.93
25.40
3.04
-22.30
-49.22
-77.02
-102.35
-121.14
-129.88
-127.60
-116.31
-100.80
-86.53
-77.40
-74.09
-73.72
-71.70
-61.94
-42.68
-15.94
13.35
40.11
60.55
73.35
76.52
69.60
56.16
41.74
32.06
25.28
18.77
11.03
1.76
-7.45
-13.53
-12.80
-3.15
15.16
38.89
63.18
82.46
92.69
92.77
84.66
72.05
58.19
45.19
33.93
25.05
16.77
9.15
3.53
1.51
3.63
10.05
18.08
25.07
29.97
33.58
36.44
40.35
46.49
54.50
58.55
53.99
39.68
18.05
-7.13
-32.12
-53.93
-70.67
-81.34
-85.71
-83.66
-75.79
-63.88
-50.79
-39.37
-31.43
-27.54
-26.38
-26.29
-25.51
-23.08
-19.23
-15.02
-11.57
-9.50
-9.01
-9.97
-12.12
-14.71
-16.74
-17.28
-15.58
-11.13
-3.96
5.15
14.84
23.56
30.33
34.86
37.46
38.83
39.70
40.50
41.15
41.07
39.42
35.58
29.49
21.68
13.17
5.06
-1.88
-7.44
-12.09
-16.67
-22.07
-28.81
-36.75
-45.13
-52.86
-58.96
-62.85
-64.41
-63.79
-61.11
-56.41
-49.78
-41.67
-32.94
-24.58
-17.19
-10.64
-4.13
2.99
10.48
16.86
19.98
18.20
11.58
2.14
-6.96
-13.01
-14.99
-13.77
-11.14
-8.44
-5.51
-0.84
7.28
19.31
33.68
47.23
56.79
60.43
58.23
52.06
44.70
38.88
36.41
37.88
42.81
50.25
58.71
66.44
71.83
73.92
72.52
67.89
60.29
49.65
36.27
20.46
2.67
-16.32
-35.24
-52.33
-65.53
-72.77
-72.56
-63.86
-47.62
-26.76
-4.95
15.24
33.47
50.92
69.08
82.14
84.15
71.85
47.61
18.48
-7.00
-22.06
-24.64
-17.63
-6.88
2.22
6.29
4.30
-2.63
-12.04
-21.20
-28.63
-33.38
-34.27
-27.71
-12.34
8.14
26.63
36.99
36.61
25.47
7.49
-15.48
-40.19
-63.44
-83.11
-98.61
-110.40
-113.91
-107.52
-92.77
-74.52
-57.50
-44.64
-36.84
-33.09
-30.88
-26.35
-17.14
-2.19
17.67
41.13
66.88
93.70
117.69
136.60
149.09
152.50
143.44
119.17
81.71
39.44
4.38
-12.57
-5.55
22.86
62.04
98.55
118.40
112.75
86.49
54.86
31.05
19.55
16.89
15.23
10.05
0.21
-12.96
-27.51
-43.24
-62.39
-83.70
-104.81
-122.18
-132.64
-135.00
-129.67
-117.82
-101.68
-84.48
-69.53
-60.21
-58.69
-64.57
-74.19
-80.74
-76.59
-57.53
-25.59
11.47
42.89
59.73
58.32
41.04
14.70
-12.68
-35.09
-49.95
-57.28
-58.50
-55.03
-48.00
-38.31
-26.84
-14.67
-2.83
7.78
16.63
23.49
28.49
31.99
34.50
36.62
38.74
40.88
42.55
42.97
41.39
37.67
32.47
27.09
22.92
20.79
20.67
21.65
22.41
21.76
19.17
14.87
9.70
4.65
0.53
-2.33
-4.18
-5.56
-7.08
-9.01
-11.21
-13.16
-14.27
-14.22
-13.18
-11.80
-10.97
-11.31
-12.97
-15.52
-18.21
-20.41
-21.91
-22.96
-24.06
-25.58
-27.42
-28.97
-29.39
-27.96
-24.49
-19.32
-13.17
-6.88
-1.17
3.82
8.47
13.45
19.25
25.66
31.73
36.08
37.34
34.71
28.34
19.04
7.87
-4.20
-16.30
-27.11
-34.64
-36.89
-32.65
-22.11
-7.34
8.36
21.78
30.95
36.28
40.70
47.80
57.84
67.77
72.04
66.56
51.39
29.68
6.35
-13.55
-27.52
-35.54
-38.86
-38.10
-32.05
-18.97
2.21
29.22
56.84
77.89
87.61
86.18
78.56
68.89
64.27
65.99
68.41
65.04
49.70
22.79
-9.19
-37.67
-56.10
-62.54
-60.41
-56.05
-51.41
-49.11
-49.46
-51.05
-52.59
-53.02
-51.30
-46.63
-38.55
-27.02
-14.71
-4.94
-0.58
-3.47
-12.51
-24.22
-34.98
-43.24
-45.11
-41.02
-34.90
-30.47
-29.17
-29.68
-33.35
-40.60
-52.55
-68.86
-87.76
-106.03
-115.32
-111.30
-92.57
-60.82
-19.82
26.13
73.62
120.01
163.58
203.31
230.61
238.48
227.93
208.05
189.07
176.56
170.63
168.04
164.32
155.07
139.21
120.31
100.28
81.55
66.23
55.85
50.86
50.56
53.01
57.06
62.22
67.68
74.73
82.97
91.29
97.58
98.92
92.33
76.72
53.20
24.04
-8.15
-41.92
-76.66
-112.16
-147.77
-181.77
-211.14
-232.76
-244.95
-247.70
-242.85
-232.87
-220.03
-205.99
-191.64
-177.26
-162.93
-148.89
-135.41
-122.85
-111.22
-100.16
-89.13
-77.58
-65.35
-52.67
-40.17
-28.47
-18.07
-9.06
-1.26
5.53
11.42
16.31
20.09
22.81
24.81
26.63
28.80
31.54
34.60
37.33
38.95
38.94
37.17
34.08
30.42
26.91
24.04
21.87
20.12
18.39
16.39
14.07
11.52
8.86
6.10
3.04
-0.70
-5.48
-11.27
-17.55
-23.49
-28.35
-31.79
-34.02
-35.71
-37.89
-41.43
-46.55
-52.67
-58.48
-62.54
-63.78
-61.72
-56.92
-50.94
-45.73
-42.64
-41.78
-42.00
-41.46
-38.49
-31.70
-21.36
-9.83
-0.86
2.45
-0.96
-9.79
-21.05
-31.23
-36.02
-32.92
-23.30
-12.67
-8.41
-17.36
-43.39
-85.38
-136.36
-182.59
-210.10
-211.46
-189.03
-151.73
-110.20
-72.22
-40.08
-10.53
25.67
76.54
143.22
218.84
293.64
358.75
407.73
436.69
425.38
363.53
264.65
161.25
81.61
37.04
23.49
28.51
37.36
38.05
27.76
10.36
-6.46
-20.34
-29.85
-34.25
-34.30
-32.33
-30.95
-29.11
-24.54
-16.72
-8.27
-2.14
-1.11
-5.06
-12.11
-19.33
-22.27
-17.96
-7.12
5.76
15.70
19.24
15.71
6.71
-4.55
-13.78
-17.77
-15.86
-10.16
-3.71
0.76
1.83
-0.56
-5.26
-10.22
-13.54
-14.34
-13.09
-10.94
-9.28
-9.15
-11.11
-14.97
-19.94
-25.05
-29.64
-33.55
-36.95
-40.00
-42.52
-43.95
-43.49
-40.36
-34.32
-25.86
-16.13
-6.51
1.84
8.46
13.63
18.14
22.82
27.98
33.05
36.94
38.57
37.53
34.34
30.14
26.34
24.14
23.87
24.87
25.93
25.92
24.18
20.81
16.36
12.04
9.31
9.04
10.75
12.93
13.71
11.61
6.21
-1.98
-10.96
-17.72
-20.00
-17.79
-13.17
-9.41
-9.91
-16.50
-28.98
-44.29
-57.17
-62.52
-57.57
-41.65
-15.69
18.24
56.99
90.39
102.93
84.05
37.07
-23.65
-80.83
-121.03
-141.24
-142.25
-127.45
-102.27
-72.16
-41.77
-16.44
0.13
5.78
-0.80
-19.73
-47.16
-76.67
-100.28
-110.79
-103.87
-79.22
-40.90
4.26
49.80
94.60
139.69
185.70
231.86
276.19
316.62
351.36
379.60
380.02
344.41
282.83
215.00
153.83
100.32
49.81
-1.58
-53.88
-103.52
-142.31
-164.56
-170.28
-164.13
-152.05
-138.34
-125.40
-114.35
-105.78
-97.46
-87.91
-78.20
-69.42
-62.46
-57.02
-52.20
-47.31
-42.20
-35.51
-26.73
-16.88
-7.82
-1.11
2.70
3.85
2.94
0.72
-1.30
-2.12
-1.68
-0.63
0.12
0.54
0.59
0.31
-0.15
-0.32
0.19
1.39
2.95
4.28
4.92
4.56
3.27
1.44
-0.46
-2.10
-3.52
-5.00
-6.92
-9.43
-12.36
-15.23
-17.54
-19.03
-19.80
-20.29
-21.00
-22.23
-23.99
-26.07
-28.10
-29.79
-31.01
-31.75
-32.07
-31.92
-31.10
-29.29
-26.24
-21.88
-16.47
-10.56
-4.76
0.43
4.82
8.46
11.55
14.25
16.52
18.16
18.96
18.90
18.16
17.20
16.47
16.28
16.64
17.29
17.86
18.07
17.84
17.28
16.61
15.98
15.38
14.67
13.62
12.15
10.29
8.24
6.25
4.49
2.92
1.36
-0.45
-2.70
-5.34
-8.08
-10.48
-12.23
-13.23
-13.73
-14.16
-14.93
-16.22
-17.88
-19.58
-20.96
-21.84
-22.27
-22.42
-22.33
-21.82
-20.50
-17.88
-13.64
-7.80
-0.71
7.00
14.70
21.86
28.15
33.43
37.65
40.80
42.81
43.69
43.50
42.49
41.04
39.56
38.27
37.07
35.59
33.36
30.15
26.16
21.94
18.17
15.32
13.39
11.96
10.48
8.52
6.06
3.33
0.74
-1.46
-3.32
-5.10
-7.16
-9.73
-12.82
-16.18
-19.42
-22.22
-24.42
-26.08
-27.43
-28.66
-29.82
-30.80
-31.42
-31.64
-31.60
-31.67
-32.16
-33.12
-34.25
-34.90
-34.37
-32.20
-28.39
-23.39
-17.89
-12.57
-7.80
-3.67
-0.05
3.15
5.83
7.69
8.39
7.76
5.96
3.49
0.97
-1.13
-2.60
-3.61
-4.45
-5.37
-6.36
-7.22
-7.61
-7.33
-6.41
-5.21
-4.24
-3.93
-4.48
-5.69
-7.10
-8.19
-8.65
-8.50
-8.06
-7.77
-7.93
-8.58
-9.52
-10.42
-11.12
-11.63
-12.14
-12.85
-13.87
-15.12
-16.43
-17.69
-18.93
-20.36
-22.15
-24.27
-26.41
-27.98
-28.33
-27.00
-23.96
-19.54
-14.33
-8.84
-3.42
1.90
7.20
12.53
17.72
22.42
26.26
29.04
30.91
32.26
33.58
35.12
36.80
38.29
39.16
39.27
38.77
38.11
37.75
37.92
38.46
38.99
39.08
38.55
37.54
36.35
35.27
34.35
33.30
31.70
29.18
25.68
21.51
17.19
13.23
9.93
7.23
4.81
2.32
-0.43
-3.39
-6.30
-8.90
-11.12
-13.17
-15.46
-18.34
-21.94
-26.00
-29.98
-33.23
-35.24
-35.81
-35.04
-33.12
-30.27
-26.60
-22.16
-17.07
-11.60
-6.22
-1.41
2.48
5.34
7.38
8.91
10.23
11.46
12.52
13.20
13.34
12.97
12.28
11.66
11.42
11.70
12.34
13.02
13.36
13.12
12.30
11.09
9.76
8.48
7.25
5.98
4.59
3.09
1.61
0.34
-0.62
-1.37
-2.15
-3.31
-5.05
-7.35
-9.92
-12.31
-14.11
-15.20
-15.77
-16.31
-17.33
-19.11
-21.60
-24.31
-26.58
-27.82
-27.66
-26.09
-23.33
-19.69
-15.41
-10.62
-5.33
0.35
6.17
11.75
16.65
20.54
23.34
25.23
26.49
27.39
28.04
28.45
28.58
28.48
28.25
28.00
27.78
27.44
26.74
25.41
23.32
20.59
17.53
14.55
12.03
10.09
8.61
7.31
5.94
4.45
3.02
2.00
1.65
1.94
2.48
2.70
2.09
0.44
-2.04
-4.84
-7.45
-9.52
-11.02
-12.15
-13.19
-14.37
-15.78
-17.37
-19.00
-20.54
-21.88
-22.87
-23.30
-22.93
-21.49
-18.78
-14.81
-9.78
-4.14
1.59
6.91
11.54
15.35
18.38
20.66
22.14
22.68
22.16
20.63
18.36
15.80
13.46
11.66
10.46
9.64
8.85
7.78
6.35
4.68
3.01
1.52
0.28
-0.83
-1.95
-3.16
-4.41
-5.57
-6.47
-7.05
-7.38
-7.66
-8.15
-9.01
-10.24
-11.65
-12.95
-13.84
-14.22
-14.20
-14.10
-14.30
-15.04
-16.39
-18.16
-20.05
-21.75
-23.06
-23.85
-24.01
-23.35
-21.64
-18.67
-14.40
-9.06
-3.13
2.76
8.14
12.77
16.71
20.18
23.27
25.85
27.56
28.03
27.15
25.14
22.53
19.96
17.88
16.44
15.56
15.03
14.68
14.43
14.25
14.15
14.01
13.66
12.89
11.55
9.64
7.35
4.99
2.90
1.26
0.03
-1.05
-2.36
-4.16
-6.44
-8.96
-11.30
-13.11
-14.29
-15.04
-15.74
-16.76
-18.29
-20.26
-22.47
-24.75
-27.10
-29.66
-32.57
-35.76
-38.84
-41.11
-41.84
-40.51
-37.07
-31.89
-25.57
-18.73
-11.79
-4.98
1.55
7.58
12.76
16.76
19.37
20.71
21.23
21.54
22.24
23.65
25.75
28.18
30.51
32.34
33.45
33.84
33.63
32.94
31.77
30.08
27.84
25.16
22.35
19.85
18.06
17.14
16.97
17.16
17.26
16.88
15.89
14.29
12.15
9.36
5.73
1.04
-4.63
-10.77
-16.46
-20.66
-22.64
-22.28
-20.19
-17.50
-15.45
-14.94
-16.31
-19.30
-23.19
-27.11
-30.22
-31.88
-31.72
-29.64
-25.86
-20.83
-15.17
-9.54
-4.51
-0.49
2.41
4.33
5.54
6.40
7.24
8.25
9.51
10.96
12.50
14.02
15.42
16.72
17.92
19.03
19.96
20.55
20.58
19.86
18.33
16.06
13.15
9.75
5.97
1.96
-2.06
-5.79
-8.95
-11.46
-13.49
-15.44
-17.79
-20.82
-24.50
-28.44
-32.13
-35.08
-37.09
-38.20
-38.60
-38.44
-37.76
-36.49
-34.58
-32.20
-29.69
-27.59
-26.34
-26.14
-26.73
-27.52
-27.66
-26.41
-23.29
-18.23
-11.60
-4.02
3.78
11.17
17.73
23.33
27.99
31.82
34.89
37.21
38.74
39.50
39.66
39.53
39.45
39.64
40.06
40.43
40.38
39.68
38.33
36.57
34.69
32.88
31.07
29.07
26.82
24.51
22.67
21.91
22.61
24.59
27.05
28.78
28.61
25.80
20.36
13.08
5.27
-1.68
-6.73
-9.51
-10.27
-9.79
-9.07
-9.16
-11.07
-15.72
-23.87
-35.80
-51.01
-68.01
-84.48
-97.81
-105.91
-107.88
-104.24
-96.44
-86.18
-74.59
-61.98
-48.04
-32.48
-15.65
1.30
16.76
29.24
38.00
43.22
45.72
46.55
46.36
45.34
43.33
40.17
36.10
31.74
27.92
25.32
24.16
24.17
24.73
25.20
25.12
24.35
22.99
21.21
19.14
16.80
14.16
11.20
8.06
4.95
2.11
-0.38
-2.69
-5.32
-8.91
-14.05
-20.95
-29.35
-38.62
-47.98
-56.80
-64.64
-71.24
-76.16
-78.71
-77.99
-73.20
-64.15
-51.51
-36.84
-22.20
-9.53
-0.14
5.57
8.07
8.35
7.49
6.40
5.61
5.40
5.88
7.10
9.08
11.74
14.86
18.07
20.97
23.31
25.10
26.59
28.16
30.00
31.96
33.52
34.07
33.21
31.08
28.29
25.72
24.07
23.56
23.88
24.44
24.63
24.10
22.75
20.61
17.71
14.06
9.72
4.95
0.22
-3.87
-6.86
-8.52
-9.00
-8.71
-8.20
-7.96
-8.22
-8.92
-9.71
-10.11
-9.69
-8.27
-5.99
-3.23
-0.40
2.23
4.63
6.99
9.51
12.24
15.05
17.68
19.94
21.80
23.42
25.00
26.60
28.04
28.91
28.80
27.52
25.18
22.15
18.88
15.66
12.47
9.15
5.55
1.74
-1.89
-4.74
-6.30
-6.35
-5.13
-3.24
-1.42
-0.24
0.04
-0.53
-1.67
-3.13
-4.79
-6.64
-8.75
-11.05
-13.31
-15.25
-16.65
-17.48
-17.98
-18.49
-19.33
-20.63
-22.35
-24.32
-26.38
-28.41
-30.36
-32.13
-33.48
-34.05
-33.47
-31.52
-28.19
-23.76
-18.69
-13.46
-8.46
-3.90
0.19
3.89
7.33
10.53
13.44
15.87
17.66
18.74
19.22
19.39
19.57
19.92
20.38
20.65
20.38
19.41
17.86
16.15
14.73
13.87
13.54
13.38
12.96
12.00
10.44
8.51
6.55
4.83
3.45
2.30
1.11
-0.34
-2.12
-4.08
-5.89
-7.23
-7.98
-8.28
-8.52
-9.09
-10.21
-11.76
-13.44
-14.89
-15.90
-16.46
-16.70
-16.69
-16.32
-15.24
-13.04
-9.56
-4.93
0.38
5.87
11.09
15.92
20.46
24.91
29.27
33.18
36.02
37.29
36.94
35.19
32.65
30.02
27.98
26.89
26.69
26.97
27.34
27.52
26.94
25.08
21.75
17.31
12.65
8.54
5.39
3.15
1.37
-1.32
-6.20
-13.69
-22.89
-31.93
-39.40
-44.90
-48.88
-51.83
-54.72
-58.04
-61.72
-65.45
-69.48
-75.86
-87.72
-107.73
-129.42
-143.91
-144.13
-129.48
-104.85
-75.81
-46.91
-21.19
-0.73
13.32
19.44
16.36
4.43
-14.24
-33.09
-44.97
-44.16
-28.50
0.02
35.36
69.77
96.57
110.61
113.70
112.53
114.27
121.68
131.78
139.10
135.58
116.73
83.62
42.54
0.59
-32.34
-50.98
-56.37
-53.92
-50.45
-50.80
-56.52
-65.55
-73.49
-76.46
-70.81
-54.65
-28.50
4.06
37.39
65.53
82.36
86.05
79.09
65.89
51.10
38.90
32.45
33.53
41.43
52.09
59.78
56.81
37.67
2.24
-43.47
-89.00
-123.32
-139.02
-134.76
-115.28
-89.39
-66.18
-50.93
-43.33
-37.85
-26.58
-3.14
34.23
81.66
130.70
168.52
183.35
168.95
127.94
71.92
18.10
-16.38
-20.68
5.79
53.61
107.67
152.88
179.03
182.93
167.36
138.43
102.78
66.21
33.49
8.61
-5.61
-8.55
-2.49
7.72
16.23
17.81
10.09
-5.59
-24.73
-41.72
-52.02
-53.87
-48.65
-40.13
-33.76
-33.62
-40.69
-52.51
-64.94
-74.13
-77.71
-75.01
-66.66
-55.97
-46.14
-38.89
-33.85
-29.92
-26.15
-21.87
-16.49
-9.64
-4.47
-3.81
-8.07
-14.35
-19.27
-21.41
-22.13
-24.85
-33.78
-56.20
-96.29
-152.45
-217.31
-282.47
-342.09
-393.26
-434.47
-438.82
-388.57
-287.22
-159.80
-34.14
71.69
150.12
200.83
228.15
238.88
235.92
223.12
201.88
176.10
150.30
127.97
111.29
101.12
96.96
93.89
86.84
73.29
55.90
38.94
26.25
20.22
21.47
28.71
37.06
41.20
37.59
26.30
9.76
-8.38
-24.35
-35.19
-39.43
-38.34
-34.27
-29.28
-23.86
-17.73
-10.73
-3.38
3.10
7.32
8.09
5.25
-0.32
-7.07
-13.92
-20.62
-27.51
-34.90
-42.54
-49.56
-54.70
-56.81
-55.29
-50.43
-43.24
-35.21
-27.83
-22.26
-19.06
-18.21
-19.23
-21.52
-24.65
-28.51
-33.36
-39.60
-47.50
-56.93
-67.27
-77.53
-86.73
-94.33
-100.55
-106.26
-112.38
-119.37
-126.97
-134.41
-140.69
-144.68
-145.11
-140.38
-128.58
-107.86
-77.44
-38.26
6.73
53.25
96.68
133.14
160.23
177.16
184.75
184.58
178.51
168.43
156.34
144.18
133.45
124.95
118.46
113.60
109.47
105.14
100.37
96.02
93.52
93.99
97.61
103.27
110.45
118.35
125.96
132.34
137.31
141.12
143.81
145.13
144.17
142.17
140.28
139.06
138.46
138.83
140.65
143.64
146.73
147.49
146.05
142.67
137.44
130.52
123.68
119.68
120.83
127.87
121.30
89.74
34.00
-36.00
-110.57
-181.84
-240.57
-281.79
-299.44
-291.64
-260.78
-216.59
-170.47
-137.17
-126.06
-138.82
-165.53
-188.52
-193.07
-171.69
-127.45
-70.76
-15.31
26.60
46.98
43.52
19.91
-15.35
-49.33
-70.19
-72.60
-57.72
-33.40
-10.51
2.03
1.12
-10.57
-25.89
-38.34
-45.07
-47.88
-51.62
-60.25
-74.96
-93.58
-112.42
-127.08
-138.20
-146.02
-145.50
-132.46
-104.36
-61.80
-8.36
50.81
111.19
169.78
225.25
275.34
315.06
338.29
340.28
319.89
280.62
229.24
173.41
119.85
72.71
32.85
-0.22
-26.92
-46.93
-59.39
-63.84
-60.94
-52.53
-41.56
-31.66
-25.70
-24.81
-28.07
-33.18
-37.70
-40.35
-41.36
-42.29
-45.02
-50.50
-58.18
-66.28
-72.75
-76.39
-77.43
-77.28
-77.87
-80.66
-85.95
-92.68
-98.79
-101.95
-100.22
-92.55
-78.94
-60.44
-38.86
-16.42
4.71
22.87
37.12
47.30
53.86
57.55
59.20
59.52
59.09
58.31
57.40
56.27
54.65
52.15
48.54
43.85
38.46
32.96
27.90
23.66
20.29
17.58
15.26
13.04
10.74
8.26
5.56
2.65
-0.36
-3.35
-6.13
-8.62
-10.89
-13.06
-15.28
-17.57
-19.78
-21.56
-22.62
-22.88
-22.58
-22.31
-22.77
-24.53
-27.65
-31.60
-35.31
-37.59
-37.62
-35.33
-31.50
-27.49
-24.63
-23.53
-23.77
-24.10
-23.11
-20.13
-15.49
-10.41
-6.23
-3.86
-3.42
-4.47
-6.46
-8.94
-11.56
-13.45
-13.43
-10.80
-6.49
-3.22
-4.36
-11.76
-24.10
-37.27
-45.84
-46.08
-38.03
-25.44
-13.25
-4.69
0.43
4.77
10.66
18.80
27.47
33.38
33.44
26.45
13.56
-2.42
-18.39
-32.76
-44.31
-52.08
-55.88
-56.71
-56.72
-58.37
-63.21
-71.37
-82.29
-93.46
-101.32
-103.13
-98.18
-87.33
-72.16
-53.82
-27.17
5.15
34.90
54.63
62.70
62.35
58.40
53.85
51.55
53.56
60.14
71.43
87.27
106.28
124.31
135.93
136.49
124.88
104.53
81.55
63.11
54.63
57.74
69.82
85.15
94.98
90.24
66.31
26.71
-18.10
-55.99
-78.28
-82.68
-73.79
-60.40
-50.47
-47.43
-49.51
-51.87
-49.88
-42.99
-32.24
-20.32
-9.60
-0.63
7.43
15.41
22.80
27.96
29.28
26.26
19.80
11.64
4.02
-1.32
-3.32
-2.67
-1.22
-0.90
-2.87
-7.48
-14.58
-23.29
-32.19
-39.75
-45.00
-47.96
-49.85
-53.01
-58.41
-66.65
-76.58
-85.38
-89.61
-86.50
-74.74
-54.64
-27.54
5.04
41.23
78.46
112.47
137.25
146.85
138.20
113.44
80.06
48.33
26.90
19.55
24.17
34.68
44.57
49.71
49.36
45.23
39.71
34.18
28.85
23.26
17.08
10.59
4.50
-0.37
-3.55
-5.16
-5.94
-6.87
-8.67
-11.46
-14.47
-16.39
-16.10
-13.26
-8.59
-3.72
-0.52
-0.36
-3.61
-9.54
-16.58
-22.87
-26.82
-27.66
-25.79
-22.67
-20.28
-20.26
-23.18
-28.23
-33.62
-37.44
-38.57
-37.14
-34.24
-31.17
-28.81
-27.22
-25.95
-24.50
-22.64
-20.48
-18.33
-16.43
-14.74
-12.97
-10.69
-7.31
-2.84
2.37
7.85
13.18
18.15
22.80
27.33
31.93
36.65
41.22
45.19
48.09
49.52
49.32
47.59
44.57
40.59
36.00
31.11
26.32
22.10
18.77
16.42
14.73
13.12
10.99
8.08
4.56
1.05
-1.80
-3.54
-4.13
-3.83
-2.92
-1.60
0.02
1.66
2.87
2.93
1.16
-2.84
-9.08
-17.43
-27.64
-39.31
-51.48
-62.39
-69.79
-71.84
-68.15
-60.33
-51.54
-45.04
-42.63
-43.85
-46.37
-47.35
-44.79
-38.34
-29.06
-18.56
-8.29
0.85
8.45
14.48
19.14
22.96
26.67
30.89
35.93
41.48
46.67
50.25
51.02
48.36
42.58
34.92
27.25
21.35
18.09
16.83
15.40
10.89
0.99
-14.56
-33.35
-50.69
-61.21
-60.95
-49.03
-28.07
-3.30
19.46
35.88
44.46
46.64
45.91
46.07
49.81
57.87
69.06
80.89
90.65
96.45
97.82
95.74
92.10
88.92
87.54
88.19
90.08
91.84
91.98
89.30
83.01
72.78
58.86
41.98
23.31
4.23
-13.90
-29.94
-43.11
-53.26
-60.90
-67.08
-73.04
-79.71
-87.34
-95.12
-101.36
-104.15
-102.17
-95.51
-85.53
-74.40
-64.33
-57.21
-53.86
-53.95
-56.45
-59.97
-63.65
-66.91
-69.37
-70.79
-71.62
-72.19
-72.64
-73.19
-73.96
-75.78
-79.15
-83.72
-88.29
-91.87
-93.11
-90.58
-83.52
-71.76
-56.90
-41.27
-27.01
-15.32
-6.61
1.20
12.35
31.47
63.46
105.74
148.78
181.25
201.10
207.79
201.34
183.08
151.28
109.98
66.12
28.12
2.69
-8.03
-7.91
-3.53
-0.71
-2.34
-7.41
-14.08
-19.48
-22.07
-22.44
-22.50
-22.31
-20.11
-14.69
-6.81
-0.07
1.51
-3.98
-15.33
-29.08
-40.91
-47.69
-48.72
-45.09
-39.06
-33.29
-28.24
-23.80
-19.66
-15.29
-10.28
-4.51
1.92
8.40
14.04
18.15
20.27
20.63
20.18
20.19
21.53
24.37
28.11
31.19
32.53
31.76
29.54
27.35
26.68
28.36
32.17
36.95
40.99
42.91
41.84
37.91
32.27
26.89
24.27
26.89
36.45
52.98
74.11
95.04
109.63
112.60
101.60
78.55
49.05
20.22
-2.20
-15.88
-22.27
-25.20
-28.45
-33.96
-41.36
-48.89
-54.86
-58.79
-61.48
-64.25
-67.86
-71.97
-75.21
-75.93
-73.18
-67.27
-59.76
-52.80
-48.35
-47.36
-49.59
-53.79
-58.27
-61.45
-62.17
-59.86
-54.40
-46.12
-35.73
-24.19
-12.47
-1.24
9.33
19.53
29.54
39.12
47.28
52.72
54.48
52.50
47.76
41.83
36.08
31.14
26.89
22.83
18.65
14.54
10.96
8.30
6.39
4.60
2.08
-1.75
-6.88
-12.69
-18.20
-22.44
-24.78
-25.12
-23.85
-21.72
-19.65
-18.43
-18.56
-20.04
-22.41
-24.90
-26.62
-26.81
-24.98
-20.93
-14.80
-6.96
2.02
11.45
20.56
28.69
35.29
40.09
43.05
44.26
43.86
42.03
38.99
35.09
30.79
26.56
22.66
19.07
15.48
11.50
6.94
2.00
-2.79
-6.79
-9.58
-11.15
-11.92
-12.48
-13.25
-14.35
-15.59
-16.63
-17.29
-17.67
-18.09
-18.85
-20.04
-21.39
-22.30
-22.17
-20.59
-17.53
-13.28
-8.32
-3.11
2.04
6.97
11.65
16.06
20.11
23.65
26.44
28.23
28.87
28.39
27.01
25.16
23.17
21.16
18.97
16.26
12.76
8.56
4.11
0.11
-2.86
-4.71
-5.86
-7.06
-8.95
-11.76
-15.14
-18.42
-20.96
-22.40
-23.01
-23.35
-24.01
-25.31
-27.20
-29.33
-31.31
-32.93
-34.11
-35.21
-36.61
-38.75
-41.85
-45.78
-49.95
-53.52
-55.53
-55.12
-51.98
-46.12
-37.99
-28.48
-19.13
-12.01
-9.52
-13.45
-21.57
-29.68
-32.06
-24.48
-6.72
17.27
41.72
61.24
72.56
75.25
70.96
62.69
53.59
46.32
42.41
42.60
46.32
51.76
56.65
58.86
57.39
52.38
45.44
37.37
29.99
25.53
25.96
32.13
42.82
54.67
62.83
62.77
51.58
30.26
2.92
-25.05
-48.98
-66.28
-76.45
-80.34
-75.54
-63.32
-45.98
-26.61
-8.80
4.21
10.70
11.19
8.15
4.72
2.73
2.49
3.33
3.84
2.83
-0.02
-4.02
-7.96
-10.75
-12.29
-12.66
-12.24
-11.60
-11.27
-11.58
-12.69
-13.89
-14.90
-15.93
-17.10
-18.49
-20.15
-21.97
-23.65
-24.76
-24.99
-24.46
-23.72
-23.32
-23.56
-24.38
-25.37
-26.01
-26.00
-25.46
-24.93
-25.00
-25.82
-26.96
-27.48
-26.39
-23.02
-17.38
-10.14
-2.31
5.22
12.02
18.13
23.85
29.38
34.53
38.81
41.62
42.54
41.58
39.23
36.21
33.17
30.45
27.99
25.52
22.81
19.88
17.08
14.87
13.58
13.16
13.17
13.05
12.41
11.22
9.80
8.63
8.02
7.94
7.94
7.39
5.80
3.07
-0.43
-4.03
-7.02
-8.93
-9.84
-10.28
-10.99
-12.47
-14.75
-17.38
-19.73
-21.26
-21.56
-20.68
-19.00
-16.91
-14.48
-11.41
-7.27
-1.85
4.79
12.50
20.68
28.29
34.34
38.44
40.89
42.42
43.78
45.47
48.20
51.92
55.80
58.65
59.69
58.80
56.46
53.53
51.27
51.80
56.46
64.75
74.24
81.34
82.31
74.39
56.69
26.77
-11.43
-48.83
-76.46
-91.15
-95.79
-95.60
-94.45
-93.74
-92.65
-88.92
-81.54
-71.71
-62.06
-55.01
-51.66
-51.67
-54.35
-58.89
-63.56
-66.16
-63.99
-54.24
-34.94
-6.58
27.24
60.96
88.48
106.14
113.42
112.62
107.21
100.14
90.88
80.09
66.70
49.83
30.44
10.66
-7.19
-21.71
-32.69
-40.95
-47.26
-52.29
-55.94
-57.40
-56.13
-52.34
-47.17
-42.07
-38.24
-35.83
-34.42
-33.45
-31.62
-28.27
-23.49
-17.93
-12.56
-8.22
-5.21
-3.53
-2.82
-2.45
-2.03
-1.35
-0.41
0.59
1.47
2.14
2.56
2.84
3.22
3.91
5.04
6.58
8.32
9.95
11.24
12.07
12.50
12.78
13.04
13.33
13.54
13.48
13.01
12.17
11.11
10.10
9.38
8.88
8.52
8.23
7.94
7.72
7.69
7.93
8.37
8.79
8.87
8.44
7.47
6.12
4.67
3.32
2.14
0.99
-0.37
-2.18
-4.49
-7.17
-9.90
-12.38
-14.33
-15.74
-16.75
-17.62
-18.58
-19.76
-21.12
-22.61
-24.17
-25.79
-27.47
-29.10
-30.40
-30.94
-30.26
-28.06
-24.35
-19.48
-13.99
-8.46
-3.24
1.66
6.40
11.16
15.93
20.41
24.18
26.86
28.34
28.81
28.64
28.18
27.67
27.11
26.43
25.58
24.61
23.62
22.72
21.95
21.22
20.32
19.05
17.33
15.21
12.92
10.70
8.75
7.05
5.42
3.56
1.25
-1.51
-4.50
-7.31
-9.58
-11.12
-12.04
-12.68
-13.46
-14.70
-16.45
-18.53
-20.62
-22.35
-23.43
-23.68
-22.97
-21.27
-18.62
-15.16
-11.11
-6.75
-2.33
1.91
5.78
9.12
11.75
13.52
14.38
14.41
13.78
12.74
11.46
10.04
8.55
7.05
5.65
4.50
3.68
3.21
2.99
2.83
2.59
2.14
1.40
0.41
-0.83
-2.28
-3.93
-5.76
-7.77
-9.91
-12.09
-14.16
-16.01
-17.57
-18.83
-19.81
-20.51
-20.83
-20.64
-19.84
-18.47
-16.74
-14.99
-13.51
-12.48
-11.80
-11.18
-10.29
-8.89
-6.91
-4.46
-1.72
1.16
4.11
7.09
10.02
12.71
14.92
16.41
17.12
17.18
16.83
16.36
15.90
15.43
14.84
14.02
13.03
12.03
11.25
10.81
10.70
10.77
10.81
10.69
10.38
9.99
9.61
9.33
9.15
9.01
8.82
8.47
7.86
6.92
5.60
3.93
2.00
-0.07
-2.25
-4.60
-7.27
-10.36
-13.80
-17.37
-20.69
-23.45
-25.45
-26.71
-27.30
-27.23
-26.42
-24.69
-21.96
-18.33
-14.10
-9.67
-5.39
-1.41
2.29
5.79
9.08
12.02
14.37
15.92
16.63
16.65
16.28
15.80
15.41
15.13
14.85
14.46
13.88
13.16
12.40
11.75
11.25
10.87
10.46
9.85
8.90
7.54
5.76
3.67
1.43
-0.81
-2.92
-4.80
-6.41
-7.75
-8.79
-9.54
-10.05
-10.45
-10.99
-11.96
-13.58
-15.89
-18.69
-21.57
-24.00
-25.56
-25.99
-25.27
-23.50
-20.86
-17.48
-13.50
-9.09
-4.53
-0.16
3.69
6.86
9.41
11.57
13.63
15.70
17.67
19.27
20.20
20.35
19.88
19.12
18.44
18.08
18.07
18.27
18.48
18.49
18.20
17.58
16.68
15.55
14.25
12.80
11.21
9.52
7.77
6.08
4.53
3.13
1.81
0.36
-1.37
-3.44
-5.71
-7.88
-9.66
-10.88
-11.66
-12.30
-13.18
-14.59
-16.61
-19.08
-21.70
-24.13
-26.07
-27.33
-27.76
-27.28
-25.83
-23.38
-20.00
-15.80
-11.03
-5.99
-1.00
3.63
7.74
11.30
14.38
17.07
19.41
21.32
22.67
23.36
23.39
22.95
22.34
21.88
21.74
21.92
22.28
22.60
22.74
22.66
22.45
22.23
22.09
22.03
21.95
21.69
21.12
20.19
18.96
17.60
16.31
15.23
14.41
13.77
13.13
12.29
11.12
9.68
8.28
7.35
7.30
8.26
9.95
11.68
12.68
12.44
11.10
9.57
9.30
11.77
17.86
27.35
38.84
50.13
59.06
64.38
66.40
67.07
69.28
75.63
87.14
102.13
116.46
124.45
120.93
103.19
72.20
32.71
-7.67
-40.09
-56.58
-52.41
-28.07
10.06
50.92
81.96
93.15
80.32
46.04
-2.20
-55.69
-108.07
-157.22
-204.95
-254.56
-307.93
-363.48
-415.98
-458.22
-483.50
-487.90
-471.32
-436.89
-389.60
-334.65
-276.92
-220.96
-171.09
-130.88
-101.92
-82.77
-69.08
-55.08
-35.91
-9.56
22.71
57.47
90.89
119.95
142.97
159.45
169.75
174.88
176.36
175.89
174.89
174.01
172.89
170.44
165.45
157.18
145.69
131.83
117.07
103.12
91.57
83.57
79.52
79.03
81.01
83.96
86.49
87.65
87.10
84.99
81.59
77.20
72.02
66.36
60.76
55.83
51.80
48.07
43.14
35.13
22.74
6.12
-12.89
-31.42
-46.90
-58.05
-65.37
-70.44
-74.84
-79.05
-82.23
-82.80
-79.55
-72.51
-63.06
-53.20
-44.57
-37.68
-31.84
-25.86
-18.86
-10.88
-2.91
3.74
8.17
10.31
10.92
11.07
11.53
12.45
13.46
14.08
14.19
14.14
14.55
15.87
17.99
20.29
21.97
22.50
21.95
20.82
19.74
19.08
18.88
19.00
19.41
20.37
22.27
25.38
29.54
34.24
38.79
42.68
45.85
48.58
51.32
54.37
57.77
61.25
64.36
66.65
67.85
67.95
67.37
66.96
67.92
71.55
78.80
89.85
103.74
118.38
130.97
138.74
139.89
134.41
124.42
113.55
105.61
102.84
104.50
106.78
103.90
90.04
61.34
17.13
-39.70
-103.38
-166.36
-220.96
-260.76
-282.05
-284.43
-270.53
-244.98
-212.88
-178.52
-144.82
-113.54
-85.76
-62.30
-43.61
-29.44
-18.73
-9.92
-1.59
6.90
15.27
22.61
27.91
30.60
30.84
29.35
27.14
25.10
23.74
23.03
22.54
21.62
19.74
16.61
12.36
7.42
2.46
-1.90
-5.27
-7.56
-8.96
-9.66
-9.68
-8.82
-6.85
-3.72
0.20
4.22
7.64
10.09
11.69
12.88
14.06
15.31
16.34
16.71
16.21
14.94
13.33
11.81
10.65
9.85
9.28
8.85
8.55
8.45
8.50
8.53
8.23
7.35
5.81
3.68
1.16
-1.57
-4.35
-7.09
-9.72
-12.17
-14.43
-16.55
-18.69
-21.08
-23.89
-27.11
-30.55
-33.86
-36.73
-39.15
-41.39
-43.99
-47.44
-51.95
-57.30
-62.92
-68.13
-72.50
-75.95
-78.68
-80.91
-82.57
-83.14
-81.80
-77.82
-70.99
-61.72
-50.95
-39.72
-28.77
-18.33
-8.28
1.46
10.70
19.12
26.73
34.41
43.87
57.18
75.64
98.95
125.06
150.94
173.93
192.78
208.13
221.80
235.68
250.72
266.64
282.47
297.58
312.33
327.89
345.07
362.89
377.93
384.95
378.84
356.94
320.45
274.11
224.31
176.52
133.39
94.40
56.93
18.10
-23.69
-68.01
-112.63
-154.32
-189.76
-216.39
-232.88
-239.50
-237.96
-230.91
-221.22
-211.23
-202.30
-194.78
-188.32
-182.28
-176.21
-169.89
-163.24
-156.20
-148.55
-140.04
-130.53
-120.29
-110.03
-100.67
-92.96
-87.10
-82.59
-78.43
-73.55
-67.34
-59.92
-52.10
-45.01
-39.62
-36.42
-35.21
-35.32
-35.83
-35.97
-35.27
-33.75
-31.79
-29.97
-28.86
-28.76
-29.57
-30.84
-31.99
-32.58
-32.62
-32.52
-32.90
-34.19
-36.30
-38.64
-40.30
-40.47
-38.83
-35.61
-31.43
-26.93
-22.52
-18.24
-13.86
-9.23
-4.41
0.19
4.03
6.67
8.07
8.57
8.80
9.31
10.35
11.75
13.03
13.73
13.62
12.79
11.62
10.58
9.98
9.91
10.22
10.59
10.72
10.47
9.84
9.01
8.10
7.13
5.97
4.47
2.50
0.14
-2.43
-4.97
-7.37
-9.70
-12.06
-14.49
-16.77
-18.57
-19.59
-19.80
-19.53
-19.43
-20.16
-22.04
-24.88
-27.93
-30.19
-30.74
-29.18
-25.71
-21.05
-16.06
-11.37
-7.15
-3.21
0.77
4.88
8.86
12.19
14.42
15.44
15.56
15.34
15.30
15.62
16.10
16.34
16.03
15.18
14.15
13.40
13.22
13.52
13.83
13.56
12.36
10.30
7.88
5.74
4.29
3.49
2.87
1.84
-0.01
-2.62
-5.57
-8.28
-10.36
-11.82
-13.07
-14.69
-17.13
-20.46
-24.37
-28.31
-31.75
-34.34
-35.99
-36.75
-36.61
-35.46
-33.13
-29.47
-24.61
-18.97
-13.18
-7.86
-3.38
0.22
3.21
5.95
8.68
11.43
13.99
16.09
17.59
18.52
19.10
19.59
20.13
20.65
20.94
20.79
20.18
19.32
18.59
18.35
18.72
19.53
20.32
20.58
20.01
18.62
16.73
14.79
13.11
11.70
10.19
8.06
4.90
0.63
-4.43
-9.70
-14.60
-18.81
-22.38
-25.59
-28.76
-32.05
-35.37
-38.34
-40.54
-41.70
-41.78
-40.90
-39.09
-36.27
-32.32
-27.19
-21.07
-14.40
-7.77
-1.70
3.57
8.09
12.08
15.56
18.35
20.19
20.98
20.88
20.30
19.76
19.68
20.13
20.45
19.76
17.58
14.24
10.67
7.99
6.95
7.65
9.32
9.79
7.02
0.31
-9.10
-18.79
-26.47
-30.97
-32.70
-33.36
-36.33
-44.16
-57.01
-72.21
-85.83
-94.74
-97.54
-94.60
-87.63
-80.66
-77.72
-81.10
-90.62
-104.28
-119.26
-131.86
-137.27
-121.01
-74.18
-0.76
81.12
149.25
188.61
195.72
177.35
146.29
115.82
93.24
79.67
72.44
68.69
67.22
68.29
72.26
78.07
82.86
82.02
72.59
55.73
36.87
23.04
19.21
25.97
39.56
53.68
61.60
59.59
48.41
32.66
18.11
8.74
5.46
6.63
9.71
12.21
12.85
11.38
8.07
3.15
-3.65
-12.43
-22.49
-31.96
-38.30
-39.13
-32.92
-20.60
-5.02
10.07
21.40
27.41
28.67
27.20
25.38
24.82
25.85
27.89
29.89
30.81
29.87
26.65
21.04
13.40
4.51
-4.55
-12.75
-19.36
-24.09
-27.02
-28.35
-28.29
-27.12
-25.28
-23.40
-22.09
-21.72
-22.20
-23.05
-23.59
-23.30
-21.88
-19.55
-16.55
-13.36
-10.35
-7.82
-5.85
-4.36
-3.16
-2.01
-0.80
0.47
1.62
2.44
2.81
2.69
2.25
1.72
1.30
1.08
1.06
1.12
1.22
1.37
1.65
2.16
2.89
3.74
4.56
5.28
5.91
6.53
7.16
7.65
7.69
7.02
5.50
3.28
0.72
-1.74
-3.78
-5.29
-6.38
-7.30
-8.20
-9.14
-10.01
-10.64
-10.78
-10.30
-9.18
-7.53
-5.58
-3.49
-1.40
0.58
2.44
4.22
6.00
7.88
10.01
11.82
13.01
13.37
12.80
11.41
9.38
6.94
4.24
1.31
-1.92
-5.46
-9.26
-13.08
-16.59
-19.48
-21.74
-23.53
-25.14
-26.75
-28.23
-29.18
-28.98
-26.97
-22.89
-17.04
-10.15
-3.07
3.54
9.31
14.20
18.31
21.62
23.69
23.46
19.92
12.65
2.56
-8.15
-16.23
-17.97
-9.96
10.32
42.37
83.22
127.95
170.79
205.28
224.23
221.08
192.91
142.98
80.70
18.86
-31.12
-63.37
-78.73
-82.73
-81.75
-79.91
-78.27
-76.06
-72.25
-66.76
-60.88
-56.27
-54.42
-56.31
-62.17
-70.79
-79.73
-84.16
-78.78
-60.57
-30.34
6.98
44.22
75.05
95.78
105.41
102.42
87.83
62.93
30.63
-3.60
-32.55
-50.24
-55.17
-51.29
-45.71
-44.23
-48.60
-56.01
-61.87
-63.36
-61.09
-58.39
-58.28
-61.17
-64.18
-63.57
-55.70
-39.50
-17.13
6.81
26.68
37.77
37.73
27.32
10.00
-9.11
-23.46
-27.75
-19.45
0.33
26.98
53.74
73.98
83.46
82.01
73.33
62.93
55.53
53.01
54.09
55.65
54.91
51.36
45.72
39.53
33.93
29.20
25.49
23.29
23.56
26.98
32.64
37.70
37.95
29.77
12.26
-11.91
-37.43
-58.68
-72.07
-77.25
-76.56
-73.28
-69.78
-66.60
-62.98
-57.88
-51.09
-43.35
-36.20
-30.05
-24.81
-19.84
-14.53
-8.86
-3.31
1.35
4.67
6.87
8.93
11.91
16.62
23.13
30.60
37.83
43.42
46.29
45.82
41.95
34.98
25.58
14.64
3.07
-8.01
-17.55
-24.83
-29.50
-31.68
-31.92
-30.95
-28.64
-25.84
-22.81
-19.53
-15.99
-12.39
-9.07
-6.38
-4.43
-3.09
-2.22
-1.53
-0.95
-0.53
-0.41
-0.63
-1.07
-1.53
-1.85
-2.08
-2.26
-2.52
-3.01
-3.72
-4.52
-5.20
-5.64
-5.81
-5.96
-6.31
-7.06
-8.25
-9.72
-11.18
-12.32
-12.94
-13.05
-12.87
-12.77
-13.17
-14.58
-17.26
-20.98
-24.61
-26.43
-24.70
-18.47
-8.16
4.42
16.81
26.90
33.78
37.84
40.19
41.97
43.83
45.93
48.13
50.08
51.36
51.02
48.11
41.99
32.95
22.41
12.41
4.69
-0.20
-3.31
-6.54
-11.50
-18.38
-25.56
-30.23
-29.73
-22.79
-10.47
4.20
17.35
25.61
27.31
22.70
13.81
3.52
-5.06
-9.70
-9.26
-3.89
4.72
13.23
17.06
12.07
-3.17
-25.50
-47.72
-61.07
-59.08
-41.01
-12.51
17.09
38.81
47.82
45.96
39.05
33.08
31.46
34.39
40.00
45.78
49.16
47.60
38.63
21.15
-4.51
-34.52
-62.62
-82.14
-88.87
-82.62
-66.93
-47.09
-27.97
-12.51
-1.31
6.26
10.84
12.71
12.03
9.45
6.34
4.32
4.73
7.86
12.59
16.88
18.87
17.82
14.43
10.50
7.83
7.50
9.45
12.65
15.57
17.15
17.13
15.92
14.56
13.63
13.23
13.15
13.07
12.53
11.82
11.78
13.21
16.13
19.71
22.78
24.27
23.72
20.59
15.73
11.12
8.39
7.81
8.30
8.33
6.65
2.67
-4.77
-15.16
-26.42
-36.59
-45.01
-52.12
-58.71
-65.82
-74.89
-89.34
-110.39
-135.78
-160.64
-179.41
-186.99
-180.05
-158.32
-114.08
-54.26
4.03
46.82
71.55
82.96
86.79
86.74
84.54
81.08
75.68
69.66
65.65
65.36
67.44
68.52
65.37
56.73
43.80
28.35
14.10
4.64
2.02
5.12
10.28
13.50
11.79
4.43
-7.93
-21.90
-33.13
-38.60
-38.52
-36.05
-34.72
-36.41
-40.08
-43.00
-41.72
-34.78
-22.32
-6.51
9.29
23.05
34.17
43.50
50.84
56.71
61.18
64.11
66.58
68.15
69.26
70.33
71.31
70.94
67.21
57.90
40.30
16.45
-10.61
-37.46
-61.90
-81.81
-94.58
-97.14
-86.91
-63.15
-28.13
11.62
47.21
70.02
75.14
62.84
37.78
6.67
-24.53
-52.29
-74.77
-90.72
-99.71
-101.54
-96.35
-84.88
-68.74
-50.22
-31.52
-14.48
0.07
12.26
23.11
33.72
44.69
55.74
65.87
74.00
79.29
81.42
80.54
77.12
71.65
64.48
55.91
46.56
37.54
30.10
25.14
22.75
22.27
22.49
22.11
20.19
16.60
12.02
7.48
3.68
0.68
-1.98
-5.03
-9.23
-15.28
-23.32
-32.98
-43.67
-54.69
-65.12
-73.28
-77.12
-75.06
-67.42
-56.39
-45.72
-39.64
-41.18
-50.50
-64.23
-77.13
-84.70
-85.76
-82.01
-76.67
-72.43
-69.97
-67.38
-61.00
-47.73
-24.89
3.54
28.92
43.78
46.74
41.55
33.51
27.09
24.28
24.55
25.55
25.65
24.45
22.71
22.56
24.55
29.68
38.94
52.89
70.71
91.04
110.98
126.57
133.50
128.52
111.97
87.72
62.21
38.61
22.56
18.12
26.53
46.07
70.38
91.69
103.59
104.11
95.14
80.32
62.29
42.69
23.96
6.01
-10.18
-22.46
-28.46
-26.96
-18.29
-4.91
10.44
24.40
33.56
34.21
24.73
6.93
-14.28
-32.82
-44.66
-49.56
-51.39
-56.44
-72.00
-101.17
-141.24
-185.26
-226.21
-260.49
-288.35
-312.19
-320.76
-307.65
-275.17
-232.20
-185.80
-136.85
-82.74
-22.36
40.87
99.22
142.05
162.93
163.24
150.92
135.23
121.90
111.40
101.43
90.34
77.83
66.65
60.77
62.48
70.52
81.64
90.99
95.72
95.66
91.54
84.98
77.88
71.57
66.17
60.77
53.84
44.50
32.94
19.78
6.26
-6.21
-16.73
-25.06
-31.37
-36.39
-40.91
-45.82
-52.32
-61.68
-73.79
-88.01
-102.93
-116.13
-125.42
-129.23
-127.01
-119.36
-108.00
-95.37
-84.14
-76.07
-70.30
-64.00
-52.65
-31.69
1.38
45.02
93.22
137.22
168.76
184.02
183.19
169.85
148.91
125.00
101.73
82.07
68.91
58.82
51.99
48.73
48.03
47.38
44.50
38.75
31.11
23.03
15.57
10.12
6.92
5.97
6.99
9.50
12.78
16.04
18.81
20.82
22.51
23.26
21.86
16.98
8.08
-3.96
-17.21
-29.45
-39.15
-45.51
-49.64
-52.66
-55.76
-59.80
-65.01
-71.16
-77.51
-82.79
-84.11
-80.88
-73.05
-61.65
-48.76
-36.75
-28.07
-24.65
-27.35
-35.37
-45.84
-53.59
-52.89
-40.44
-15.88
16.63
49.66
75.66
89.93
92.41
86.42
78.78
75.04
77.07
82.33
85.27
80.07
63.18
35.45
2.08
-30.41
-55.93
-71.08
-76.47
-75.76
-73.78
-74.59
-79.59
-87.51
-95.01
-98.06
-92.97
-77.93
-53.69
-22.68
8.27
33.18
49.02
56.20
57.55
56.67
56.04
56.70
58.56
61.00
63.48
64.80
63.56
57.64
46.52
32.09
18.00
8.02
3.79
3.96
4.87
2.26
-6.02
-18.89
-32.68
-42.83
-45.72
-39.86
-26.43
-9.20
6.41
15.08
13.34
0.72
-19.65
-42.02
-59.61
-66.73
-61.04
-44.27
-21.46
0.55
15.29
18.89
11.42
-2.61
-15.94
-21.23
-13.87
6.44
34.97
63.39
82.84
86.17
72.62
47.58
20.34
-1.66
-13.64
-14.94
-8.45
1.47
11.02
18.14
21.95
21.20
14.99
2.72
-15.65
-38.79
-63.60
-85.87
-102.28
-108.97
-104.18
-88.38
-64.02
-34.95
-5.44
20.83
41.49
55.91
64.81
69.16
69.83
67.71
63.85
59.70
56.82
56.00
56.99
58.68
59.62
59.00
57.04
54.65
52.29
50.60
49.48
48.33
46.68
44.42
41.87
39.35
36.75
33.54
29.09
23.03
15.65
7.83
0.49
-5.80
-11.07
-15.83
-20.76
-26.31
-32.63
-39.50
-46.41
-52.82
-58.30
-62.70
-66.11
-68.91
-71.70
-75.08
-79.33
-84.09
-88.41
-91.09
-91.20
-88.26
-82.72
-75.75
-68.78
-62.77
-57.89
-53.83
-50.34
-47.63
-46.03
-46.11
-48.35
-52.73
-58.15
-62.69
-64.45
-62.47
-57.05
-48.99
-39.68
-30.82
-23.67
-18.24
-13.24
-6.99
1.67
12.94
27.18
44.51
64.70
87.17
111.03
134.45
154.14
165.63
159.91
132.95
89.82
41.89
-0.97
-34.22
-56.89
-68.00
-65.24
-46.12
-10.21
37.33
85.49
120.93
133.63
120.95
88.39
46.94
8.47
-17.97
-29.29
-28.21
-21.16
-12.90
-5.52
1.45
9.54
19.49
30.23
38.38
39.35
30.64
13.45
-7.65
-26.85
-39.75
-45.14
-44.91
-43.24
-42.74
-44.26
-46.65
-47.78
-46.13
-41.81
-36.21
-31.43
-29.10
-29.36
-31.00
-32.35
-32.53
-32.14
-32.72
-35.10
-39.68
-46.12
-53.36
-60.13
-65.61
-69.08
-71.04
-72.37
-72.42
-71.32
-70.22
-70.42
-72.10
-74.10
-74.49
-71.71
-65.29
-53.79
-38.17
-20.82
-3.06
16.49
41.02
73.77
116.34
168.17
229.15
294.76
356.05
402.46
425.85
422.63
394.60
348.10
273.96
179.47
83.27
3.06
-54.81
-93.19
-117.73
-132.74
-140.92
-144.03
-140.58
-130.74
-116.63
-102.05
-87.63
-73.02
-57.82
-42.20
-27.18
-12.70
-1.03
3.84
-1.61
-17.63
-41.31
-67.56
-90.77
-105.44
-107.34
-96.77
-77.87
-56.23
-35.89
-18.82
-4.98
5.98
13.57
16.97
13.70
3.28
-12.18
-28.75
-43.18
-53.28
-57.92
-56.71
-49.98
-39.51
-28.33
-20.17
-16.04
-15.06
-14.22
-10.36
-2.13
8.95
19.46
26.34
28.69
28.65
28.60
31.92
40.24
52.67
66.36
77.46
82.26
77.69
62.73
38.97
11.53
-12.65
-25.63
-20.70
4.42
45.57
92.33
132.26
154.92
154.88
130.98
87.32
33.18
-18.86
-56.09
-69.89
-57.21
-22.58
22.06
58.54
70.10
48.74
-1.97
-69.14
-136.88
-190.26
-219.79
-213.27
-171.18
-111.03
-56.43
-22.70
-4.42
6.10
13.57
19.16
21.43
15.95
-0.25
-25.32
-52.87
-75.30
-86.18
-82.50
-67.81
-51.06
-41.22
-39.91
-40.73
-35.02
-18.24
6.52
31.91
50.70
59.16
57.13
47.58
35.07
23.94
17.16
14.99
15.72
16.17
13.70
7.08
-2.27
-10.96
-15.71
-14.47
-8.41
0.04
8.48
15.62
21.56
27.60
35.27
45.30
57.10
67.59
71.74
63.92
40.55
2.53
-43.80
-88.24
-120.27
-132.79
-125.00
-102.04
-72.16
-42.91
-18.52
0.69
17.14
31.17
43.13
52.85
60.06
64.90
67.56
67.68
63.25
50.79
27.01
-8.38
-51.25
-93.08
-123.49
-134.19
-122.65
-93.40
-56.28
-22.57
-0.30
8.03
5.56
-1.08
-4.91
-1.14
11.64
31.84
56.19
81.37
104.69
124.25
138.67
146.80
147.77
141.52
129.44
114.42
100.18
89.81
84.47
82.83
81.88
78.14
69.47
56.08
40.10
24.23
10.25
-1.83
-13.55
-26.77
-43.27
-63.39
-85.14
-104.81
-118.37
-122.96
-117.89
-104.88
-86.99
-68.44
-52.56
-40.44
-30.81
-21.29
-9.30
6.98
28.03
53.05
78.01
97.04
104.81
98.58
79.59
53.40
28.29
7.51
-2.46
-0.14
8.64
16.41
19.82
20.18
20.62
22.88
26.03
27.95
25.87
19.08
10.03
2.56
-0.92
-0.93
-0.75
-4.80
-15.67
-33.57
-55.51
-76.13
-90.14
-94.77
-90.67
-81.13
-70.42
-61.87
-57.43
-57.17
-59.27
-61.07
-60.47
-56.67
-50.62
-43.24
-35.62
-28.47
-22.00
-15.89
-9.64
-3.06
3.63
10.27
16.81
23.21
29.54
35.68
41.64
47.59
53.81
60.33
66.99
73.07
76.42
76.40
73.27
68.44
63.78
61.38
60.23
58.07
51.77
38.73
18.25
-8.09
-36.58
-62.64
-82.25
-93.10
-94.43
-87.31
-73.97
-57.23
-40.22
-25.83
-16.50
-14.09
-19.89
-32.26
-47.95
-62.35
-71.73
-75.09
-73.69
-69.40
-63.21
-54.77
-42.89
-27.09
-8.54
10.05
25.51
35.85
41.14
43.27
44.62
46.74
49.43
51.15
50.22
46.02
39.50
32.63
27.26
24.30
23.50
23.73
23.72
22.38
19.01
13.35
5.67
-3.60
-13.53
-22.85
-30.20
-34.29
-34.25
-29.76
-20.80
-8.82
4.35
16.88
27.22
34.39
38.05
38.44
36.30
32.58
28.40
25.01
23.49
24.50
28.15
33.95
40.66
46.11
47.34
41.43
26.94
5.14
-19.80
-41.93
-55.84
-58.92
-52.45
-40.75
-29.03
-21.00
-17.88
-18.79
-22.21
-27.14
-33.37
-40.85
-48.79
-55.18
-57.46
-53.66
-43.13
-27.49
-10.14
4.76
13.84
15.58
11.00
3.56
-2.04
-1.60
6.68
21.35
38.14
51.72
57.84
55.09
45.22
32.04
19.69
10.91
6.43
5.43
6.43
8.13
9.65
10.47
10.22
8.69
5.81
1.89
-2.43
-6.52
-10.01
-13.34
-17.41
-22.88
-29.24
-34.43
-35.53
-30.04
-17.77
-1.56
12.76
18.85
12.22
-7.48
-36.44
-68.00
-94.26
-108.17
-105.03
-84.80
-52.19
-15.58
15.98
36.13
43.59
43.20
43.44
52.82
74.69
105.85
137.92
160.74
166.45
152.33
122.17
80.18
36.15
0.04
-21.61
-27.81
-22.93
-13.47
-8.07
-12.09
-23.95
-36.53
-44.40
-47.35
-49.17
-53.90
-62.58
-72.65
-78.95
-77.19
-66.26
-49.65
-33.57
-23.94
-23.88
-32.73
-46.90
-60.61
-67.77
-63.68
-46.77
-18.57
16.80
53.27
84.30
104.77
112.21
107.86
96.16
82.59
71.45
64.45
60.34
56.26
50.03
42.16
35.34
32.55
35.20
42.45
51.79
60.07
64.29
62.96
56.65
47.12
35.86
23.62
10.18
-5.80
-27.19
-55.05
-89.03
-126.82
-164.31
-196.62
-217.78
-221.60
-204.02
-166.74
-119.28
-75.32
-46.54
-37.38
-43.57
-53.44
-53.52
-36.49
-1.31
36.34
53.33
41.18
15.45
1.32
14.19
50.78
95.21
128.47
138.11
125.40
100.04
76.69
64.59
63.46
65.47
60.99
43.70
13.56
-22.47
-53.91
-72.05
-74.68
-64.67
-46.35
-22.74
3.44
28.42
46.93
53.76
45.75
23.09
-8.65
-39.39
-58.57
-61.39
-50.74
-35.09
-22.53
-16.07
-13.17
-7.44
7.44
34.58
71.38
111.41
143.32
157.96
155.37
141.54
122.18
99.61
76.68
50.29
20.44
-9.51
-34.11
-49.03
-54.39
-51.02
-43.76
-37.41
-36.43
-40.93
-47.20
-49.10
-42.09
-25.81
-3.42
20.18
40.52
51.28
47.80
27.98
-6.46
-51.32
-101.07
-149.50
-191.22
-208.73
-192.60
-149.46
-98.02
-53.41
-21.04
0.19
13.67
22.82
30.81
35.94
39.09
41.59
45.36
50.98
57.24
62.17
64.12
62.17
53.91
39.27
19.48
-2.40
-23.18
-40.37
-52.27
-58.12
-58.51
-56.61
-55.97
-59.65
-68.79
-82.65
-98.43
-111.23
-115.04
-104.47
-77.32
-34.78
17.78
71.60
116.24
142.89
147.09
129.97
97.15
56.44
16.61
-14.97
-34.33
-42.06
-42.36
-41.20
-44.08
-53.75
-68.69
-82.53
-86.86
-75.75
-48.59
-8.93
37.91
87.26
136.03
176.01
196.82
193.79
169.94
131.07
83.34
33.76
-9.91
-40.98
-56.03
-54.99
-41.88
-24.10
-10.26
-6.07
-12.53
-26.34
-41.98
-54.95
-61.51
-60.32
-52.91
-42.91
-32.91
-24.95
-20.56
-20.72
-25.34
-32.73
-40.36
-46.35
-50.31
-50.97
-48.82
-46.79
-49.40
-60.53
-82.03
-112.55
-147.64
-180.83
-202.19
-205.17
-189.50
-160.13
-123.07
-81.81
-36.70
13.82
70.94
137.66
212.04
286.44
351.24
400.42
433.83
455.20
468.47
447.86
381.16
277.86
162.38
56.40
-28.25
-87.57
-123.30
-141.40
-149.36
-148.88
-139.96
-122.67
-98.16
-68.43
-36.59
-6.93
15.92
29.69
35.60
34.95
27.65
12.55
-10.34
-38.20
-65.45
-85.38
-92.59
-83.30
-59.54
-28.33
1.10
20.97
27.46
21.00
4.59
-20.14
-48.60
-76.68
-100.32
-116.00
-121.10
-114.00
-94.40
-63.62
-24.79
19.32
58.16
81.38
86.37
77.48
61.35
43.69
28.12
16.05
7.33
0.50
-5.06
-9.09
-11.23
-11.55
-10.39
-8.26
-5.94
-4.16
-3.72
-4.18
-4.43
-3.53
-1.76
0.05
0.94
0.20
-2.35
-6.48
-11.00
-14.45
-16.00
-15.83
-14.69
-13.53
-13.18
-14.06
-16.21
-19.16
-22.21
-24.95
-27.25
-28.99
-29.95
-29.78
-28.27
-25.40
-21.37
-16.49
-11.15
-5.69
-0.24
5.24
10.79
16.34
21.69
26.51
30.50
33.46
35.36
36.26
36.32
35.67
34.41
32.62
30.48
28.32
26.57
25.58
25.37
25.47
24.92
22.65
17.87
10.55
1.54
-7.56
-14.96
-19.31
-20.16
-18.10
-14.44
-10.69
-8.07
-7.29
-8.56
-11.69
-16.17
-21.14
-25.40
-27.66
-27.06
-23.56
-18.13
-12.41
-7.97
-5.64
-5.16
-5.50
-5.44
-4.16
-1.48
2.21
6.38
10.53
14.42
17.96
21.13
23.95
26.41
28.48
30.10
31.22
31.75
