1.593192268000000000e+09
-2.999999999999999889e-02
5.059999999999999609e+00
1.791000000000000014e+01
7.934000000000000341e+01
2.282500000000000000e+02
-4.865400000000000205e+02
-6.759999999999999787e+00
1.513400000000000034e+02
2.846000000000000085e+01
1.041000000000000014e+01
2.358999999999999986e+01
-2.990000000000000213e+00
-6.360000000000000320e+00
6.559999999999999609e+00
3.870000000000000107e+00
-1.360999999999999943e+01
-2.649999999999999911e+00
-4.830000000000000071e+00
-1.585999999999999943e+01
1.708999999999999986e+01
4.160000000000000142e+00
-1.882000000000000028e+01
1.308000000000000007e+01
-4.610000000000000320e+00
-4.656000000000000227e+01
-6.530000000000000249e+00
4.261999999999999744e+01
5.239000000000000057e+01
3.290000000000000036e+00
-2.567999999999999972e+01
-4.309999999999999609e+00
8.060000000000000497e+00
3.699999999999999956e-01
-4.950000000000000178e+00
9.949999999999999289e+00
3.399999999999999911e+00
-1.147000000000000064e+01
2.950000000000000178e+00
2.169999999999999929e+00
-1.497000000000000064e+01
1.879999999999999893e+00
-1.255000000000000071e+01
-1.283999999999999986e+01
4.489000000000000057e+01
1.732999999999999829e+01
4.052000000000000313e+01
5.500000000000000000e+00
-4.925000000000000000e+01
-2.357000000000000028e+01
-2.058999999999999986e+01
-1.794999999999999929e+01
-1.489999999999999991e+00
1.246000000000000085e+01
-6.009999999999999787e+00
-1.313000000000000078e+01
9.669999999999999929e+00
5.549999999999999822e+00
-1.540000000000000036e+00
1.031000000000000050e+01
-6.639999999999999680e+00
-4.150000000000000355e+00
1.484999999999999964e+01
-1.998000000000000043e+01
-1.111999999999999922e+01
3.292999999999999972e+01
-5.990000000000000213e+00
-4.196000000000000085e+01
-1.519999999999999929e+01
-1.580000000000000071e+00
-2.458999999999999986e+01
3.182000000000000028e+01
7.929999999999999716e+01
-6.370000000000000107e+00
-2.989999999999999858e+01
-3.055999999999999872e+01
4.339999999999999858e+00
2.029999999999999805e+00
8.550000000000000711e+00
-6.309999999999999609e+00
2.359999999999999876e+00
1.270000000000000018e+00
-1.479999999999999982e+00
-4.274000000000000199e+01
7.348000000000000398e+01
4.104999999999999716e+01
3.617999999999999972e+01
-2.563899999999999864e+02
-2.755999999999999872e+01
2.621000000000000085e+01
2.208999999999999986e+01
1.708600000000000136e+02
-1.135999999999999943e+02
-2.026000000000000156e+01
3.042000000000000171e+01
3.788000000000000256e+01
-2.990000000000000213e+00
-2.944000000000000128e+01
-9.039999999999999147e+00
-8.539999999999999147e+00
-4.835999999999999943e+01
5.500000000000000000e+00
1.898000000000000043e+01
1.152999999999999936e+01
-5.136999999999999744e+01
1.669000000000000128e+01
-2.519999999999999929e+01
-1.106099999999999994e+02
1.887299999999999898e+02
1.942500000000000000e+02
-1.026500000000000057e+02
6.310999999999999943e+01
1.183999999999999986e+01
-4.985000000000000142e+01
4.129999999999999716e+01
1.873999999999999844e+01
-4.263000000000000256e+01
-1.610000000000000098e+00
-9.349999999999999645e+00
-8.730000000000000426e+00
1.189999999999999947e+00
4.277000000000000313e+01
-2.621000000000000085e+01
5.667000000000000171e+01
5.079999999999999716e+01
-3.267999999999999972e+01
-6.518999999999999773e+01
-8.506000000000000227e+01
-1.451699999999999875e+02
8.737999999999999545e+01
-3.107000000000000028e+01
-1.975000000000000000e+01
9.880000000000000782e+00
-5.842000000000000171e+01
3.221999999999999886e+01
-4.006000000000000227e+01
-2.899999999999999911e+00
-2.516000000000000014e+01
4.320000000000000284e+00
9.759000000000000341e+01
-9.965000000000000568e+01
-4.078000000000000114e+01
2.680999999999999872e+01
-3.293999999999999773e+01
5.582999999999999829e+01
-5.053000000000000114e+01
-2.092000000000000171e+01
2.301999999999999957e+01
5.790000000000000036e+00
-7.219999999999999751e+00
-2.485000000000000142e+01
-9.945000000000000284e+01
-5.757000000000000028e+01
8.517000000000000171e+01
1.116599999999999966e+02
-2.526000000000000156e+01
4.007999999999999829e+01
-8.857999999999999829e+01
-7.710999999999999943e+01
4.760999999999999943e+01
2.230999999999999872e+01
-2.640000000000000124e+00
-4.106000000000000227e+01
1.979999999999999982e+00
-7.917000000000000171e+01
3.050000000000000000e+01
-9.539999999999999147e+00
-4.654999999999999716e+01
7.012999999999999545e+01
-1.372000000000000064e+01
-5.678000000000000114e+01
4.500999999999999801e+01
1.132000000000000028e+01
-2.508999999999999986e+01
3.382000000000000028e+01
1.912999999999999901e+01
-3.579999999999999716e+01
2.837999999999999901e+01
-5.660000000000000142e+00
3.982000000000000028e+01
-2.890000000000000124e+00
2.157000000000000028e+01
3.189999999999999947e+00
-8.210000000000000853e+00
5.699000000000000199e+01
-1.198700000000000045e+02
-5.043999999999999773e+01
4.339000000000000057e+01
-3.921999999999999886e+01
-3.677000000000000313e+01
1.025199999999999960e+02
-1.807999999999999829e+01
-4.090099999999999909e+02
3.410799999999999841e+02
9.109000000000000341e+01
1.696000000000000085e+01
-3.479999999999999716e+01
-1.119800000000000040e+02
7.469999999999999751e+00
8.270999999999999375e+01
2.299999999999999822e+00
1.336999999999999922e+01
-4.277000000000000313e+01
2.225000000000000000e+02
-4.840799999999999841e+02
8.548000000000000398e+01
1.396699999999999875e+02
1.601999999999999957e+01
-9.490000000000000213e+00
-1.485999999999999943e+01
-5.510999999999999943e+01
7.181000000000000227e+01
-2.798000000000000043e+01
1.864000000000000057e+01
1.139599999999999937e+02
8.918999999999999773e+01
1.399999999999999911e+00
-8.476999999999999602e+01
-3.746000000000000085e+01
-1.035999999999999943e+01
3.209000000000000341e+01
-5.459000000000000341e+01
4.929999999999999716e+01
-6.500000000000000000e+00
-4.480000000000000426e+00
6.309999999999999609e+00
7.199999999999999734e-01
-2.937000000000000099e+01
3.234000000000000341e+01
-1.393999999999999950e+01
1.392999999999999972e+01
-2.919999999999999929e+01
-3.472999999999999687e+01
2.285300000000000011e+02
-9.395000000000000284e+01
-7.756000000000000227e+01
-7.565000000000000568e+01
-4.618999999999999773e+01
5.409000000000000341e+01
-3.332000000000000028e+01
5.139999999999999680e+00
-1.336999999999999922e+01
-4.235000000000000142e+01
3.853000000000000114e+01
-6.498000000000000398e+01
-3.374000000000000199e+01
-5.461999999999999744e+01
-6.099999999999999645e+00
-3.988000000000000256e+01
-1.122900000000000063e+02
1.491999999999999993e+01
1.666000000000000014e+01
-5.703000000000000114e+01
-5.204999999999999716e+01
8.729000000000000625e+01
1.771999999999999886e+01
-2.876000000000000156e+01
2.891000000000000014e+01
1.167999999999999972e+01
-1.394999999999999929e+01
-7.990000000000000213e+00
5.345000000000000284e+01
-3.117999999999999972e+01
-1.401999999999999886e+02
2.017000000000000171e+01
-6.360000000000000320e+00
-4.995000000000000284e+01
-6.950000000000000178e+00
-4.990000000000000213e+00
3.367000000000000171e+01
-5.542000000000000171e+01
2.008999999999999986e+01
-7.715000000000000568e+01
4.418999999999999773e+01
9.234000000000000341e+01
2.508999999999999986e+01
2.653000000000000114e+01
6.867000000000000171e+01
4.121999999999999886e+01
-7.293999999999999773e+01
5.631000000000000227e+01
-1.355000000000000071e+01
4.442000000000000171e+01
-5.504999999999999716e+01
1.589000000000000057e+01
1.509999999999999964e+01
-3.076999999999999957e+01
2.369999999999999929e+01
1.224000000000000021e+01
-2.532000000000000028e+01
2.910000000000000142e+00
1.443999999999999950e+01
-4.540000000000000036e+00
-3.569999999999999840e+00
2.178999999999999915e+01
1.699999999999999956e+00
-2.008999999999999986e+01
1.555000000000000071e+01
5.959999999999999964e+00
-1.316000000000000014e+01
7.410000000000000142e+00
-3.029999999999999805e+00
-1.389000000000000057e+01
6.349999999999999645e+00
4.099999999999999645e+00
-6.709999999999999964e+00
-9.929999999999999716e+00
6.019999999999999574e+00
-1.159999999999999920e+00
-1.151999999999999957e+01
-5.349999999999999645e+00
2.879999999999999893e+00
-7.690000000000000391e+00
-2.216000000000000014e+01
1.175000000000000000e+01
7.940000000000000391e+00
-1.433000000000000007e+01
-3.419999999999999929e+00
1.789000000000000057e+01
2.600000000000000089e+00
-2.932999999999999829e+01
2.017999999999999972e+01
1.558999999999999986e+01
-7.450000000000000178e+00
-1.723000000000000043e+01
2.146999999999999886e+01
1.155000000000000071e+01
-1.712999999999999901e+01
1.534999999999999964e+01
2.123999999999999844e+01
4.629999999999999893e+00
-1.616000000000000014e+01
3.732000000000000028e+01
1.026999999999999957e+01
-3.091000000000000014e+01
-4.799000000000000199e+01
2.339000000000000057e+01
-7.395000000000000284e+01
7.167000000000000171e+01
-4.482000000000000028e+01
1.325999999999999979e+01
5.070000000000000284e+01
-2.375000000000000000e+01
-4.721999999999999886e+01
-6.401000000000000512e+01
4.709999999999999964e+00
4.842999999999999972e+01
5.249000000000000199e+01
-1.405000000000000071e+01
-2.214000000000000057e+01
-5.111999999999999744e+01
-7.759999999999999787e+00
4.572999999999999687e+01
-8.509999999999999787e+00
-5.193999999999999773e+01
4.482000000000000028e+01
3.310999999999999943e+01
-1.916000000000000014e+01
-1.349000000000000021e+01
-4.600000000000000200e-01
-2.350000000000000089e+00
-4.492999999999999972e+01
-1.742999999999999972e+01
7.735999999999999943e+01
2.387999999999999901e+01
-4.968999999999999773e+01
-3.589999999999999858e+00
-7.915000000000000568e+01
6.690999999999999659e+01
1.851999999999999957e+01
4.307999999999999829e+01
3.750000000000000000e+01
7.409999999999999432e+01
-1.381800000000000068e+02
-6.662999999999999545e+01
6.156000000000000227e+01
-2.366299999999999955e+02
1.953600000000000136e+02
-6.307999999999999829e+01
-2.026800000000000068e+02
2.557999999999999829e+01
-1.771000000000000085e+01
1.239000000000000057e+01
-2.428000000000000114e+01
7.740000000000000213e+00
8.084000000000000341e+01
5.046000000000000085e+01
-8.162000000000000455e+01
-5.120000000000000284e+01
4.830000000000000071e+00
2.435999999999999943e+01
-7.515000000000000568e+01
1.513499999999999943e+02
-8.076999999999999602e+01
-1.000000000000000000e+00
-5.578000000000000114e+01
9.368000000000000682e+01
-1.618700000000000045e+02
6.546999999999999886e+01
4.603000000000000114e+01
-2.110999999999999943e+01
-2.429399999999999977e+02
1.121899999999999977e+02
5.838000000000000256e+01
2.001000000000000156e+01
4.842000000000000171e+01
-1.723499999999999943e+02
-3.734000000000000341e+01
2.625000000000000000e+01
1.555999999999999943e+02
-9.460999999999999943e+01
2.502299999999999898e+02
8.707999999999999829e+01
-9.806999999999999318e+01
-2.040900000000000034e+02
1.891500000000000057e+02
-8.189999999999999503e+00
-4.661999999999999744e+01
1.283000000000000007e+01
-3.442999999999999972e+01
2.664999999999999858e+01
-5.239000000000000057e+01
3.191000000000000014e+01
2.314000000000000057e+01
-8.050000000000000711e+00
3.861999999999999744e+01
-3.169999999999999929e+00
-4.320000000000000284e+00
-3.374000000000000199e+01
2.742000000000000171e+01
2.628000000000000114e+01
9.679999999999999716e+00
1.038499999999999943e+02
1.299000000000000021e+01
-4.193999999999999773e+01
-5.450000000000000000e+01
2.373999999999999844e+01
3.890000000000000124e+00
-1.266000000000000014e+01
1.600000000000000000e+01
1.596000000000000085e+01
-6.969999999999999751e+00
-4.629999999999999716e+01
2.557000000000000028e+01
1.111999999999999922e+01
-2.362999999999999901e+01
-3.268999999999999773e+01
4.478999999999999915e+01
1.896999999999999886e+01
-2.153000000000000114e+01
1.307000000000000028e+01
3.567999999999999972e+01
-1.000000000000000000e+00
-5.903999999999999915e+01
3.026000000000000156e+01
2.441000000000000014e+01
-1.296000000000000085e+01
-5.147999999999999687e+01
3.189000000000000057e+01
6.139999999999999680e+00
-3.010999999999999943e+01
-9.449999999999999289e+00
4.013000000000000256e+01
3.695000000000000284e+01
-2.880999999999999872e+01
1.889999999999999858e+01
6.349999999999999645e+00
1.213000000000000078e+01
-2.994999999999999929e+01
2.635000000000000142e+01
6.080000000000000071e+00
-4.749000000000000199e+01
1.077999999999999936e+01
1.584999999999999964e+01
-1.344999999999999929e+01
-6.543999999999999773e+01
2.067000000000000171e+01
1.626999999999999957e+01
-3.178999999999999915e+01
1.119999999999999929e+01
3.407000000000000028e+01
-6.879999999999999893e+00
-6.528000000000000114e+01
3.310000000000000142e+01
1.183100000000000023e+02
-4.090999999999999659e+01
-2.017000000000000171e+01
3.069999999999999929e+01
9.100000000000000311e-01
-5.334000000000000341e+01
1.710999999999999943e+01
4.100000000000000000e+01
5.109000000000000341e+01
-2.758999999999999986e+01
2.516000000000000014e+01
-1.689999999999999858e+01
-7.048999999999999488e+01
-2.385000000000000142e+01
9.630000000000000782e+00
-9.160000000000000142e+00
-5.393999999999999773e+01
3.303000000000000114e+01
2.182999999999999829e+01
-1.687999999999999901e+01
-3.449000000000000199e+01
4.502000000000000313e+01
2.232000000000000028e+01
-5.719999999999999751e+00
-3.343999999999999773e+01
5.011999999999999744e+01
-4.561999999999999744e+01
-2.067999999999999972e+01
6.277000000000000313e+01
3.918999999999999773e+01
-5.357000000000000028e+01
-2.853000000000000114e+01
4.842000000000000171e+01
8.156999999999999318e+01
-8.850000000000000000e+01
-5.620000000000000284e+01
-8.499999999999999778e-01
6.943000000000000682e+01
-4.818999999999999773e+01
1.979499999999999886e+02
1.510600000000000023e+02
1.320500000000000114e+02
-1.511599999999999966e+02
2.959999999999999964e+00
-6.849999999999999645e+00
1.587700000000000102e+02
-2.212999999999999901e+01
4.921999999999999886e+01
-7.934000000000000341e+01
-3.200000000000000000e+01
1.007800000000000011e+02
8.070000000000000284e+00
-1.400999999999999979e+01
6.385999999999999943e+01
-1.876999999999999957e+01
5.269999999999999574e+00
5.331000000000000227e+01
-7.229999999999999716e+01
-3.060999999999999943e+01
1.937999999999999901e+01
1.281000000000000050e+01
-1.664999999999999858e+01
-3.714999999999999858e+01
5.142000000000000171e+01
5.784000000000000341e+01
-3.495000000000000284e+01
5.999999999999999778e-02
-5.480000000000000426e+00
-9.419999999999999929e+00
-3.119000000000000128e+01
2.162000000000000099e+01
5.559999999999999609e+00
-3.173000000000000043e+01
1.448000000000000043e+01
2.955000000000000071e+01
3.270000000000000018e+00
-4.443999999999999773e+01
3.153999999999999915e+01
2.444000000000000128e+01
-1.410999999999999943e+01
-2.878000000000000114e+01
3.546999999999999886e+01
9.199999999999999289e+00
-3.665999999999999659e+01
1.197000000000000064e+01
3.012000000000000099e+01
-5.190000000000000391e+00
-5.310999999999999943e+01
3.367000000000000171e+01
1.846000000000000085e+01
-2.117000000000000171e+01
-5.099999999999999645e+00
3.110000000000000142e+01
3.040000000000000036e+00
-4.346999999999999886e+01
3.041000000000000014e+01
3.057000000000000028e+01
-5.139999999999999680e+00
-4.795000000000000284e+01
3.151999999999999957e+01
1.733999999999999986e+01
-2.196000000000000085e+01
-2.178000000000000114e+01
3.368999999999999773e+01
1.417999999999999972e+01
-3.268999999999999773e+01
1.266000000000000014e+01
3.322999999999999687e+01
-6.769999999999999574e+00
-6.240999999999999659e+01
3.235999999999999943e+01
3.083999999999999986e+01
-1.189000000000000057e+01
-3.042000000000000171e+01
2.678000000000000114e+01
2.300000000000000100e-01
-2.364999999999999858e+01
3.293999999999999773e+01
3.497999999999999687e+01
7.320000000000000284e+00
-3.947999999999999687e+01
-2.649999999999999911e+00
1.265000000000000036e+01
-1.676000000000000156e+01
-1.327199999999999989e+02
5.175000000000000000e+01
7.500000000000000000e+00
-5.742000000000000171e+01
3.522999999999999687e+01
4.990000000000000213e+00
-4.860000000000000142e+01
3.200000000000000000e+01
3.696000000000000085e+01
-2.259999999999999787e+00
-3.511999999999999744e+01
5.061999999999999744e+01
-3.729999999999999716e+01
-3.672999999999999687e+01
-7.290000000000000036e+00
3.092999999999999972e+01
7.150000000000000355e+00
-6.296000000000000085e+01
5.922999999999999687e+01
1.388000000000000078e+01
-3.364999999999999858e+01
-2.753999999999999915e+01
2.001299999999999955e+02
-1.659799999999999898e+02
-9.339000000000000057e+01
-9.200000000000000400e-01
4.928000000000000114e+01
-2.894999999999999929e+01
1.686800000000000068e+02
5.353999999999999915e+01
7.848999999999999488e+01
6.721999999999999886e+01
-2.958999999999999986e+01
4.146000000000000085e+01
-4.122999999999999687e+01
2.862999999999999901e+01
-8.929999999999999716e+00
2.519000000000000128e+01
1.257600000000000051e+02
-9.112000000000000455e+01
2.910999999999999943e+01
-8.220000000000000639e+00
1.369999999999999929e+01
9.910000000000000142e+00
1.131700000000000017e+02
-3.364999999999999858e+01
-1.523300000000000125e+02
1.639600000000000080e+02
-8.890999999999999659e+01
-4.314999999999999858e+01
3.359999999999999876e+00
-4.467000000000000171e+01
4.443999999999999773e+01
-8.900000000000000355e+00
-7.919999999999999929e+00
9.650000000000000355e+00
2.401999999999999957e+01
8.754000000000000625e+01
-1.120300000000000011e+02
-7.779000000000000625e+01
2.839999999999999858e+00
2.405000000000000071e+01
-3.939999999999999947e+00
-4.952000000000000313e+01
1.335999999999999943e+01
5.979999999999999716e+01
-9.669999999999999929e+00
2.355999999999999872e+01
-4.830000000000000071e+00
-3.610999999999999943e+01
9.490000000000000213e+00
3.417000000000000171e+01
-4.588000000000000256e+01
1.646999999999999886e+01
-5.952000000000000313e+01
6.784999999999999432e+01
-9.668000000000000682e+01
9.926999999999999602e+01
1.835999999999999943e+01
6.345000000000000284e+01
-3.378999999999999915e+01
1.823000000000000043e+01
-3.770000000000000018e+00
-1.750000000000000000e+01
1.976999999999999957e+01
-1.551999999999999957e+01
2.362999999999999901e+01
7.139999999999999680e+00
1.760000000000000009e+00
-1.125000000000000000e+01
-2.089999999999999858e+01
2.339999999999999858e+00
1.449000000000000021e+01
4.709999999999999964e+00
-2.814999999999999858e+01
1.885999999999999943e+01
7.709999999999999964e+00
-1.375000000000000000e+01
-2.549999999999999822e+00
3.069999999999999840e+00
-7.209999999999999964e+00
-2.535999999999999943e+01
2.376999999999999957e+01
1.792000000000000171e+01
-2.701999999999999957e+01
-5.259999999999999787e+00
3.321000000000000085e+01
4.419999999999999929e+00
2.589999999999999858e+00
-2.053999999999999915e+01
-9.445000000000000284e+01
-9.623999999999999488e+01
6.459999999999999432e+01
3.114000000000000057e+01
-7.689000000000000057e+01
8.631999999999999318e+01
7.353000000000000114e+01
-2.926000000000000156e+01
-7.765000000000000568e+01
3.770000000000000018e+00
2.569999999999999929e+01
1.584999999999999964e+01
-4.710999999999999943e+01
3.920000000000000284e+01
3.500000000000000000e+01
-4.707999999999999829e+01
-2.087999999999999901e+01
3.336999999999999744e+01
1.673000000000000043e+01
-3.820000000000000284e+01
6.003000000000000114e+01
1.102300000000000040e+02
-1.042199999999999989e+02
-8.259999999999999787e+00
-3.897999999999999687e+01
6.484000000000000341e+01
-9.919999999999999929e+00
5.534000000000000341e+01
3.797999999999999687e+01
7.981000000000000227e+01
5.972999999999999687e+01
-3.856000000000000227e+01
6.111999999999999744e+01
-6.918999999999999773e+01
1.022500000000000000e+02
1.766000000000000014e+01
-1.307000000000000028e+01
-1.555300000000000011e+02
-6.475000000000000000e+01
4.904999999999999716e+01
-1.017300000000000040e+02
-7.209999999999999964e+00
-3.062000000000000099e+01
-7.007999999999999829e+01
-3.560000000000000142e+01
-1.901000000000000156e+01
7.335999999999999943e+01
2.392000000000000171e+01
6.740000000000000213e+00
-8.968000000000000682e+01
8.185999999999999943e+01
-2.239000000000000057e+01
2.376999999999999957e+01
7.389999999999999680e+00
-1.844999999999999929e+01
-3.480400000000000205e+02
1.879199999999999875e+02
6.842000000000000171e+01
3.299999999999999822e+00
-4.211999999999999744e+01
4.470000000000000284e+01
-3.689999999999999947e+00
1.580000000000000071e+01
-1.573000000000000043e+01
-2.548999999999999844e+01
-4.232999999999999829e+01
6.309999999999999609e+00
1.168499999999999943e+02
-1.587400000000000091e+02
-4.349999999999999645e+00
6.529000000000000625e+01
4.639999999999999680e+00
2.962000000000000099e+01
1.726999999999999957e+01
-4.514000000000000057e+01
-8.999999999999999667e-02
-1.275999999999999943e+02
6.959999999999999432e+01
9.268999999999999773e+01
2.996999999999999886e+01
-8.365999999999999659e+01
-9.970000000000000639e+00
4.050000000000000000e+01
-4.513000000000000256e+01
1.048000000000000043e+01
3.367999999999999972e+01
7.251999999999999602e+01
-4.950000000000000178e+00
6.290000000000000036e+00
-1.548000000000000043e+01
-1.714000000000000057e+01
-5.549999999999999822e+00
-4.324000000000000199e+01
-8.073999999999999488e+01
-4.800000000000000000e+01
4.139000000000000057e+01
-4.179999999999999716e+00
-2.191000000000000014e+01
1.925000000000000000e+01
-7.339999999999999858e+00
-3.553999999999999915e+01
6.504000000000000625e+01
-4.663000000000000256e+01
-2.967999999999999972e+01
2.033100000000000023e+02
5.585000000000000142e+01
-8.150000000000000355e+00
-1.629300000000000068e+02
1.141999999999999993e+01
2.403999999999999915e+01
-3.178999999999999915e+01
-4.200000000000000000e+01
-8.410000000000000142e+00
1.432199999999999989e+02
2.776000000000000156e+01
-1.210999999999999943e+01
7.600000000000000089e-01
-3.354999999999999716e+01
2.798000000000000043e+01
1.203999999999999915e+01
-1.650000000000000000e+01
-1.210300000000000011e+02
-1.038700000000000045e+02
2.150000000000000000e+02
-9.745999999999999375e+01
2.939999999999999947e+00
4.919999999999999929e+00
-2.100000000000000000e+01
-4.759999999999999787e+00
1.785999999999999943e+01
-4.500000000000000111e-01
-2.242000000000000171e+01
4.368999999999999773e+01
1.048000000000000043e+01
-2.742999999999999972e+01
-1.789000000000000057e+01
-4.450000000000000178e+00
-8.060000000000000497e+00
-2.214999999999999858e+01
2.626000000000000156e+01
3.907999999999999829e+01
2.319999999999999840e+00
-3.311999999999999744e+01
1.333999999999999986e+01
4.589999999999999858e+00
-1.732999999999999829e+01
1.664999999999999858e+01
2.332000000000000028e+01
2.089999999999999858e+00
-2.330000000000000071e+01
2.062999999999999901e+01
-3.160000000000000142e+00
-1.430000000000000071e+01
8.140000000000000568e+00
1.467999999999999972e+01
-4.160000000000000142e+00
-3.575999999999999801e+01
2.071000000000000085e+01
2.516000000000000014e+01
-1.076999999999999957e+01
-2.964000000000000057e+01
1.401999999999999957e+01
-5.790000000000000036e+00
-3.649000000000000199e+01
1.116999999999999993e+01
3.967999999999999972e+01
2.580000000000000071e+01
-6.801000000000000512e+01
3.800000000000000000e+01
2.512000000000000099e+01
-2.094999999999999929e+01
-1.400000000000000133e-01
2.510000000000000142e+01
2.410000000000000142e+01
-8.919999999999999929e+00
2.180000000000000071e+01
-1.889999999999999902e+00
-1.331000000000000050e+01
-3.346999999999999886e+01
1.921999999999999886e+01
1.043999999999999950e+01
-1.021000000000000085e+01
1.591999999999999993e+01
2.751999999999999957e+01
-4.489999999999999858e+01
-7.581000000000000227e+01
9.656999999999999318e+01
-5.392000000000000171e+01
6.589000000000000057e+01
-1.152800000000000011e+02
1.810000000000000142e+01
-8.550000000000000711e+00
-5.250999999999999801e+01
-3.810000000000000053e+00
-4.388199999999999932e+02
1.112900000000000063e+02
9.759999999999999787e+00
-3.200000000000000067e-01
-1.905999999999999872e+01
-1.123799999999999955e+02
1.602299999999999898e+02
9.351999999999999602e+01
1.384600000000000080e+02
3.400000000000000000e+01
-1.930699999999999932e+02
2.029999999999999805e+00
-1.324600000000000080e+02
1.198499999999999943e+02
-3.770000000000000284e+01
-9.879000000000000625e+01
5.909000000000000341e+01
1.074000000000000021e+01
-2.257999999999999829e+01
-2.310999999999999943e+01
-4.360000000000000320e+00
3.343999999999999773e+01
-1.013199999999999932e+02
6.014000000000000057e+01
9.023999999999999488e+01
-2.032000000000000028e+01
-9.000000000000000222e-01
-8.650000000000000000e+01
2.417000000000000171e+01
-5.940000000000000391e+00
-2.682000000000000028e+01
-2.594999999999999929e+01
2.732999999999999829e+01
1.642000000000000171e+01
2.930000000000000160e+00
-4.385000000000000142e+01
4.147999999999999687e+01
-5.068999999999999773e+01
9.065000000000000568e+01
2.330999999999999872e+01
-8.553000000000000114e+01
-7.395999999999999375e+01
1.234999999999999964e+01
-7.910000000000000142e+00
-3.979999999999999982e+00
8.400000000000000355e+00
2.835999999999999943e+01
1.125999999999999943e+02
-6.425000000000000000e+01
-5.985999999999999943e+01
4.182999999999999829e+01
-2.244000000000000128e+01
-6.959999999999999964e+00
1.907000000000000028e+01
-1.767000000000000171e+01
2.010999999999999943e+01
-2.859999999999999876e+00
-3.130999999999999872e+01
-1.912999999999999901e+01
5.359000000000000341e+01
4.282000000000000028e+01
-8.800000000000000711e+00
-1.266000000000000014e+01
-2.446000000000000085e+01
-1.737999999999999901e+01
3.044999999999999929e+01
7.940000000000000391e+00
-2.126000000000000156e+01
4.242000000000000171e+01
8.134000000000000341e+01
-7.170999999999999375e+01
1.061400000000000006e+02
-5.228999999999999915e+01
-8.220000000000000639e+00
6.580000000000000071e+00
8.880000000000000782e+00
9.899999999999999911e-01
-2.578999999999999915e+01
2.041000000000000014e+01
2.032000000000000028e+01
-1.203999999999999915e+01
-2.330000000000000071e+00
3.680000000000000160e+00
-1.601000000000000156e+01
-8.890000000000000568e+00
1.542999999999999972e+01
9.009999999999999787e+00
-2.344999999999999929e+01
1.201999999999999957e+01
1.086999999999999922e+01
-1.044999999999999929e+01
-4.530000000000000249e+00
1.807000000000000028e+01
1.810000000000000053e+00
-2.607000000000000028e+01
1.941000000000000014e+01
2.208999999999999986e+01
8.279999999999999361e+00
5.906000000000000227e+01
-5.657999999999999829e+01
-3.634800000000000182e+02
-5.507999999999999829e+01
1.704399999999999977e+02
8.498999999999999488e+01
-5.804999999999999716e+01
-1.088000000000000078e+01
2.028999999999999915e+01
4.267999999999999972e+01
8.984999999999999432e+01
1.712999999999999901e+01
-4.360999999999999943e+01
2.253999999999999915e+01
2.000000000000000111e-01
9.279999999999999361e+00
-1.442999999999999972e+01
-6.812999999999999545e+01
1.459999999999999964e+00
2.507199999999999989e+02
1.333899999999999864e+02
-2.023000000000000114e+02
-8.259000000000000341e+01
-2.996999999999999886e+01
-3.560999999999999943e+01
1.175000000000000000e+01
7.129999999999999893e+00
-1.942999999999999972e+01
8.859999999999999432e+00
1.383000000000000007e+01
-1.307000000000000028e+01
-1.317999999999999972e+01
2.094000000000000128e+01
1.018999999999999950e+01
-4.178000000000000114e+01
2.098000000000000043e+01
7.019999999999999574e+00
-8.762999999999999545e+01
1.773499999999999943e+02
2.303999999999999915e+01
1.138000000000000078e+01
2.719999999999999929e+01
-2.701999999999999957e+01
-1.034999999999999964e+01
1.060000000000000053e+00
5.500000000000000000e+00
-5.580000000000000071e+00
4.240000000000000213e+00
-2.289000000000000057e+01
-1.796999999999999886e+01
-7.873000000000000398e+01
-7.878000000000000114e+01
-5.128999999999999915e+01
6.809999999999999609e+00
7.332999999999999829e+01
3.264000000000000057e+01
-5.109000000000000341e+01
3.060000000000000142e+01
-3.094999999999999929e+01
-6.300000000000000044e-01
-8.250000000000000000e+00
-8.160000000000000142e+00
3.295000000000000284e+01
2.560999999999999943e+01
-6.107000000000000028e+01
3.863000000000000256e+01
1.202999999999999936e+01
1.557000000000000028e+01
2.426999999999999957e+01
-5.211999999999999744e+01
7.154999999999999716e+01
1.409999999999999964e+01
-4.007999999999999829e+01
6.926000000000000512e+01
-2.812999999999999901e+01
-6.873999999999999488e+01
7.165000000000000568e+01
6.800000000000000488e-01
-3.964000000000000057e+01
2.892000000000000171e+01
5.289000000000000057e+01
9.168999999999999773e+01
2.439999999999999858e+01
-2.604900000000000091e+02
1.509199999999999875e+02
8.498000000000000398e+01
-4.582000000000000028e+01
-6.400000000000000000e+01
5.882000000000000028e+01
1.603999999999999915e+01
-5.979999999999999716e+01
-5.359000000000000341e+01
6.317999999999999972e+01
-5.368999999999999773e+01
4.652000000000000313e+01
6.410000000000000142e+00
-1.593999999999999950e+01
1.101999999999999957e+01
-5.440000000000000391e+00
5.703999999999999915e+01
4.899999999999999911e-01
-7.932999999999999829e+01
-4.835000000000000142e+01
2.717999999999999972e+01
-6.523999999999999488e+01
-5.519999999999999574e+00
-4.425999999999999801e+01
-4.611999999999999744e+01
-5.378999999999999915e+01
3.481000000000000227e+02
-7.301999999999999602e+01
-5.622999999999999687e+01
-3.950999999999999801e+01
5.267000000000000171e+01
1.548799999999999955e+02
-1.902599999999999909e+02
-7.529999999999999716e+01
3.507000000000000028e+01
2.155999999999999872e+01
-7.215999999999999659e+01
-5.125000000000000000e+01
5.618999999999999773e+01
6.946999999999999886e+01
-8.698999999999999488e+01
2.828999999999999915e+01
-9.200000000000000400e-01
-5.927000000000000313e+01
2.953999999999999915e+01
5.177000000000000313e+01
-1.989000000000000057e+01
4.114000000000000057e+01
1.901000000000000156e+01
3.804999999999999716e+01
-1.980000000000000071e+01
-5.746000000000000085e+01
5.784000000000000341e+01
-2.430000000000000160e+00
-3.643999999999999773e+01
1.379199999999999875e+02
-4.439999999999999858e+01
-6.776999999999999602e+01
5.003000000000000114e+01
-2.719000000000000128e+01
-5.352000000000000313e+01
6.459000000000000341e+01
5.375999999999999801e+01
1.114099999999999966e+02
-3.740999999999999659e+01
-1.495000000000000000e+02
5.097999999999999687e+01
-5.964999999999999858e+01
5.643999999999999773e+01
8.726000000000000512e+01
-6.070000000000000284e+00
-4.635000000000000142e+01
-8.181000000000000227e+01
5.639999999999999858e+01
3.495000000000000284e+01
-2.014000000000000057e+01
4.368999999999999773e+01
-3.529999999999999805e+00
-1.916000000000000014e+01
1.633999999999999986e+01
2.546999999999999886e+01
-1.168999999999999950e+01
2.209999999999999964e+00
2.673999999999999844e+01
-9.060000000000000497e+00
-3.992999999999999972e+01
2.101000000000000156e+01
1.450999999999999979e+01
-7.679999999999999716e+00
1.236999999999999922e+01
4.275000000000000000e+01
-2.330999999999999872e+01
-1.165699999999999932e+02
1.862000000000000099e+01
1.894999999999999929e+01
-2.521999999999999886e+01
-5.621999999999999886e+01
2.628999999999999915e+01
6.959999999999999964e+00
-5.459000000000000341e+01
5.220000000000000284e+01
3.117000000000000171e+01
-3.936999999999999744e+01
3.231000000000000227e+01
2.703999999999999915e+01
-1.773000000000000043e+01
-1.503999999999999915e+01
3.807999999999999829e+01
8.259999999999999787e+00
-4.478999999999999915e+01
2.366000000000000014e+01
1.326999999999999957e+01
-3.055000000000000071e+01
-5.600000000000000533e-01
2.264999999999999858e+01
-3.310000000000000053e+00
-4.174000000000000199e+01
2.982000000000000028e+01
1.556000000000000050e+01
-1.908999999999999986e+01
1.009999999999999964e+01
1.608999999999999986e+01
3.799999999999999822e+00
-3.274000000000000199e+01
2.553999999999999915e+01
8.560000000000000497e+00
-2.675000000000000000e+01
-3.740000000000000213e+00
1.892999999999999972e+01
-3.099999999999999978e-01
-3.867999999999999972e+01
2.689000000000000057e+01
1.182000000000000028e+01
-2.491000000000000014e+01
4.639999999999999680e+00
2.530999999999999872e+01
1.500000000000000000e+00
-1.008000000000000007e+01
2.137000000000000099e+01
-1.271000000000000085e+01
-3.992999999999999972e+01
1.769000000000000128e+01
1.594999999999999929e+01
-7.349999999999999645e+00
3.629999999999999893e+00
2.280999999999999872e+01
-5.080000000000000071e+00
-2.180999999999999872e+01
1.696999999999999886e+01
-4.099999999999999645e+00
-3.854999999999999716e+01
2.192000000000000171e+01
9.699999999999999289e+00
-2.712999999999999901e+01
1.732999999999999829e+01
1.563000000000000078e+01
-1.114000000000000057e+01
-2.439999999999999947e+00
2.167000000000000171e+01
2.149999999999999911e+00
-3.921000000000000085e+01
1.696000000000000085e+01
1.055000000000000071e+01
-1.216999999999999993e+01
8.099999999999999645e+00
5.980000000000000426e+00
-1.364000000000000057e+01
-2.837999999999999901e+01
2.280000000000000071e+01
1.588000000000000078e+01
-3.114999999999999858e+01
8.359999999999999432e+00
1.917999999999999972e+01
-1.102999999999999936e+01
-1.905999999999999872e+01
2.714999999999999858e+01
1.177999999999999936e+01
-2.119999999999999929e+01
6.009999999999999787e+00
2.398999999999999844e+01
-6.379999999999999893e+00
-3.971000000000000085e+01
7.299999999999999822e+00
1.433000000000000007e+01
-1.114000000000000057e+01
1.941000000000000014e+01
-8.589999999999999858e+00
-2.896999999999999886e+01
2.680000000000000160e+00
1.980000000000000071e+01
2.000000000000000042e-02
-2.419000000000000128e+01
3.026999999999999957e+01
1.421000000000000085e+01
-2.767000000000000171e+01
1.335999999999999943e+01
1.737000000000000099e+01
2.000000000000000111e-01
-2.516000000000000014e+01
2.405000000000000071e+01
1.116000000000000014e+01
-3.304999999999999716e+01
8.609999999999999432e+00
1.773999999999999844e+01
-8.240000000000000213e+00
-1.832999999999999829e+01
1.251999999999999957e+01
1.292999999999999972e+01
-2.258999999999999986e+01
-1.406000000000000050e+01
-3.979999999999999982e+00
-1.097000000000000064e+01
1.691000000000000014e+01
2.416000000000000014e+01
7.139999999999999680e+00
-3.518999999999999773e+01
1.714000000000000057e+01
1.719000000000000128e+01
-2.425000000000000000e+01
1.799999999999999933e-01
1.919999999999999929e+01
1.479999999999999982e+00
-3.467000000000000171e+01
1.338000000000000078e+01
1.712000000000000099e+01
-1.275000000000000000e+01
4.120000000000000107e+00
1.835000000000000142e+01
8.449999999999999289e+00
-2.432999999999999829e+01
1.867000000000000171e+01
-3.379999999999999893e+00
-4.049999999999999822e+00
-4.679999999999999716e+00
9.789999999999999147e+00
1.164899999999999949e+02
9.389000000000000057e+01
-3.021000000000000085e+01
-2.789000000000000057e+01
2.435999999999999943e+01
1.202999999999999936e+01
-1.000000000000000056e-01
-2.242999999999999972e+01
-6.646999999999999886e+01
1.472000000000000064e+01
1.717400000000000091e+02
-2.649800000000000182e+02
4.618999999999999773e+01
2.796999999999999886e+01
2.035999999999999943e+01
-3.443999999999999773e+01
3.410000000000000142e+00
-4.164000000000000057e+01
2.447199999999999989e+02
-1.125300000000000011e+02
-6.371000000000000085e+01
-9.903000000000000114e+01
2.741000000000000014e+01
7.109000000000000341e+01
3.310999999999999943e+01
2.310000000000000142e+01
2.267800000000000011e+02
-1.859399999999999977e+02
-2.333999999999999986e+01
1.319999999999999929e+01
-2.048999999999999844e+01
-1.303999999999999915e+01
1.246400000000000006e+02
-6.102000000000000313e+01
-8.114000000000000057e+01
-8.298999999999999488e+01
4.784599999999999795e+02
-6.975000000000000000e+01
-1.151599999999999966e+02
-1.573100000000000023e+02
-1.096400000000000006e+02
1.047699999999999960e+02
5.157999999999999829e+01
8.095000000000000284e+01
1.162199999999999989e+02
-2.241100000000000136e+02
-7.876999999999999602e+01
-1.917000000000000171e+01
-4.045000000000000284e+01
3.368999999999999773e+01
3.310000000000000053e+00
-4.209000000000000341e+01
2.782000000000000028e+01
3.153999999999999915e+01
-6.679999999999999716e+00
-5.356000000000000227e+01
1.973000000000000043e+01
-2.203000000000000114e+01
-1.265000000000000036e+01
1.440999999999999943e+02
-1.072000000000000064e+01
-1.943300000000000125e+02
-1.443700000000000045e+02
1.254200000000000017e+02
3.646999999999999886e+01
-1.270100000000000051e+02
5.103000000000000114e+01
-1.117199999999999989e+02
-2.130999999999999872e+01
8.019999999999999574e+00
1.979999999999999982e+00
-3.192999999999999972e+01
-1.928000000000000114e+01
1.209999999999999964e+00
1.846999999999999886e+01
-1.382000000000000028e+01
-9.799999999999999822e-01
-2.494000000000000128e+01
1.842000000000000171e+01
1.300000000000000044e-01
-2.625000000000000000e+01
3.796000000000000085e+01
5.511999999999999744e+01
-3.507000000000000028e+01
-3.692000000000000171e+01
3.546999999999999886e+01
8.090000000000000568e+01
-5.504999999999999716e+01
-1.556000000000000050e+01
-8.210000000000000853e+00
-2.619999999999999929e+01
2.398999999999999844e+01
6.631999999999999318e+01
-4.961999999999999744e+01
-1.090799999999999983e+02
7.110999999999999943e+01
6.618000000000000682e+01
3.647999999999999687e+01
1.107000000000000028e+01
1.224800000000000040e+02
-2.230500000000000114e+02
-8.517000000000000171e+01
-4.488000000000000256e+01
6.818999999999999773e+01
-2.091000000000000014e+01
1.819000000000000128e+01
-5.129999999999999893e+00
-5.303000000000000114e+01
-6.374000000000000199e+01
6.969999999999999751e+00
1.632999999999999829e+01
1.458999999999999986e+01
-5.379999999999999893e+00
-1.549000000000000021e+01
-1.644000000000000128e+01
-2.389999999999999858e+01
1.939000000000000057e+01
8.349999999999999645e+00
-1.939000000000000057e+01
2.023999999999999844e+01
2.858999999999999986e+01
7.160000000000000142e+00
-2.469000000000000128e+01
1.914999999999999858e+01
1.675000000000000000e+01
-2.028999999999999915e+01
5.999999999999999778e-01
2.235999999999999943e+01
2.853000000000000114e+01
-3.010000000000000142e+01
1.136400000000000006e+02
7.439000000000000057e+01
-1.446899999999999977e+02
-2.950000000000000178e+00
3.350000000000000000e+01
2.230999999999999872e+01
-2.379999999999999893e+00
-3.921000000000000085e+01
-2.446000000000000085e+01
-4.939000000000000057e+01
2.651399999999999864e+02
-1.451999999999999957e+01
1.643899999999999864e+02
-4.137400000000000091e+02
-2.192700000000000102e+02
9.012999999999999545e+01
4.485999999999999943e+01
4.374000000000000199e+01
3.500000000000000000e+01
-3.459999999999999964e+00
-3.884000000000000341e+01
2.446000000000000085e+01
2.207000000000000028e+01
3.100000000000000089e+00
-2.626999999999999957e+01
-2.307000000000000028e+01
-7.137999999999999545e+01
3.521100000000000136e+02
-2.418899999999999864e+02
-1.520800000000000125e+02
-2.220900000000000034e+02
1.904399999999999977e+02
2.374099999999999966e+02
1.700699999999999932e+02
-3.334700000000000273e+02
-1.744000000000000057e+02
1.158000000000000007e+01
1.368999999999999950e+01
-7.250000000000000000e+00
1.903999999999999915e+01
2.914999999999999858e+01
-1.492999999999999972e+01
3.080000000000000071e+00
-2.069000000000000128e+01
2.516000000000000014e+01
-2.505999999999999872e+01
-1.823999999999999844e+01
1.275999999999999979e+01
2.812099999999999795e+02
-7.078000000000000114e+01
2.560000000000000053e+00
1.002999999999999936e+01
1.569999999999999929e+01
1.330000000000000071e+01
-5.650000000000000355e+00
-1.916000000000000014e+01
6.549999999999999822e+00
1.490000000000000036e+01
-7.900000000000000355e-01
-1.641000000000000014e+01
1.325999999999999979e+01
1.769999999999999929e+01
-1.400999999999999979e+01
-6.299999999999999822e+00
1.565000000000000036e+01
-2.939999999999999947e+00
-3.457000000000000028e+01
2.358999999999999986e+01
1.418999999999999950e+01
-2.237000000000000099e+01
-3.094000000000000128e+01
2.660999999999999943e+01
-9.619999999999999218e+00
-1.841000000000000014e+01
4.617000000000000171e+01
6.070000000000000284e+01
-2.326999999999999957e+01
2.276000000000000156e+01
1.102999999999999936e+01
-1.685999999999999943e+01
-5.014000000000000057e+01
1.767000000000000171e+01
5.769999999999999574e+00
-6.637999999999999545e+01
4.339999999999999858e+01
1.391800000000000068e+02
-1.387599999999999909e+02
-8.660000000000000142e+00
1.050100000000000051e+02
3.574000000000000199e+01
-1.341399999999999864e+02
2.994999999999999929e+01
2.601000000000000156e+01
5.989000000000000057e+01
4.453000000000000114e+01
1.353700000000000045e+02
-1.285800000000000125e+02
-1.459799999999999898e+02
4.032000000000000028e+01
8.298999999999999488e+01
1.662999999999999901e+01
-8.421999999999999886e+01
-2.682500000000000000e+02
1.717999999999999972e+01
-8.831999999999999318e+01
3.977000000000000313e+01
4.447999999999999687e+01
-2.167999999999999972e+01
-2.089999999999999858e+01
9.099999999999999645e+00
1.117999999999999972e+01
-1.597000000000000064e+01
-3.664000000000000057e+01
4.707000000000000028e+01
4.889999999999999858e+01
8.859999999999999432e+00
-2.529999999999999805e+00
-1.667999999999999972e+01
-2.283999999999999986e+01
-4.990999999999999659e+01
2.944000000000000128e+01
2.744000000000000128e+01
-2.692000000000000171e+01
-2.812999999999999901e+01
2.132999999999999829e+01
7.900000000000000355e-01
-3.417000000000000171e+01
2.464000000000000057e+01
2.478999999999999915e+01
3.660000000000000142e+00
-1.151999999999999957e+01
1.171000000000000085e+01
5.109000000000000341e+01
-4.910999999999999943e+01
-5.200000000000000178e+00
-6.743000000000000682e+01
3.734000000000000341e+01
5.747999999999999687e+01
-4.090999999999999659e+01
1.676999999999999957e+01
9.210000000000000853e+00
-1.801999999999999957e+01
2.164000000000000057e+01
2.646000000000000085e+01
-4.500000000000000111e-01
-4.456000000000000227e+01
9.768000000000000682e+01
-2.639000000000000057e+01
-8.848000000000000398e+01
1.552999999999999936e+01
1.769999999999999929e+01
-1.564000000000000057e+01
2.983999999999999986e+01
5.750000000000000000e+00
-4.309999999999999609e+00
-2.283999999999999986e+01
-9.000000000000000000e+00
-2.853999999999999915e+01
2.839999999999999858e+00
1.074200000000000017e+02
-3.035999999999999943e+01
-1.575800000000000125e+02
9.564000000000000057e+01
-1.210199999999999960e+02
6.368999999999999773e+01
1.782000000000000028e+01
1.093199999999999932e+02
8.599999999999999645e+00
-1.206099999999999994e+02
6.526999999999999602e+01
3.003000000000000114e+01
-4.320000000000000284e+00
5.909000000000000341e+01
-1.286999999999999922e+01
-6.854999999999999716e+01
-3.183999999999999986e+01
6.284000000000000341e+01
1.744000000000000128e+01
-2.796999999999999886e+01
-1.989999999999999991e+00
1.121000000000000085e+01
-3.800000000000000044e-01
-2.755000000000000071e+01
1.892000000000000171e+01
3.589999999999999858e+00
-2.325000000000000000e+01
6.080000000000000071e+00
1.033999999999999986e+01
-8.599999999999999867e-01
-2.332000000000000028e+01
2.930000000000000071e+01
4.782000000000000028e+01
9.973999999999999488e+01
4.560000000000000142e+01
-1.198799999999999955e+02
-4.503999999999999915e+01
-1.449000000000000021e+01
4.735999999999999943e+01
2.839999999999999858e+01
-2.432000000000000028e+01
7.434000000000000341e+01
8.898000000000000398e+01
-4.122999999999999687e+01
-8.656000000000000227e+01
4.086999999999999744e+01
5.690000000000000391e+00
-3.293999999999999773e+01
1.050999999999999979e+01
6.875000000000000000e+01
8.926999999999999602e+01
-1.345200000000000102e+02
-4.117999999999999972e+01
-6.357000000000000028e+01
-2.124499999999999886e+02
8.567000000000000171e+01
9.695000000000000284e+01
3.614000000000000057e+01
-1.340000000000000000e+02
1.780999999999999872e+01
3.442999999999999972e+01
-6.375000000000000000e+01
8.695999999999999375e+01
-3.225999999999999801e+01
-1.191599999999999966e+02
1.978999999999999915e+01
3.210999999999999943e+01
2.123000000000000043e+01
7.129999999999999893e+00
5.719999999999999751e+00
-1.590300000000000011e+02
4.160999999999999943e+01
3.679999999999999716e+01
6.878000000000000114e+01
1.015000000000000036e+01
-2.746999999999999886e+01
-1.108000000000000007e+01
4.349999999999999645e+00
-1.015000000000000036e+01
-3.057000000000000028e+01
3.220000000000000284e+01
6.160000000000000142e+01
3.431000000000000227e+01
-6.188000000000000256e+01
-7.009000000000000341e+01
3.897999999999999687e+01
-3.096999999999999886e+01
5.835999999999999943e+01
1.330000000000000071e+00
-1.973000000000000043e+01
-2.658999999999999986e+01
5.270000000000000284e+01
7.053000000000000114e+01
1.528999999999999915e+01
1.466000000000000014e+01
9.660000000000000142e+00
-2.485800000000000125e+02
4.945000000000000284e+01
2.623100000000000023e+02
5.882000000000000028e+01
-2.386500000000000057e+02
-3.867999999999999972e+01
-1.745099999999999909e+02
5.029399999999999977e+02
-9.356999999999999318e+01
-4.459000000000000341e+01
-6.275999999999999801e+01
2.532999999999999829e+01
-2.189999999999999947e+00
1.534999999999999964e+01
-4.022999999999999687e+01
-1.419999999999999929e+01
-5.820000000000000284e+00
-1.585999999999999943e+01
-6.915000000000000568e+01
3.044999999999999929e+01
-4.419999999999999929e+00
-6.599999999999999645e+00
2.257000000000000028e+01
6.839999999999999858e+00
3.692000000000000171e+01
-2.619000000000000128e+01
-5.579999999999999716e+01
3.584000000000000341e+01
-3.790000000000000036e+00
-4.878999999999999915e+01
6.782999999999999829e+01
-2.823999999999999844e+01
1.866000000000000014e+01
7.940999999999999659e+01
-4.946999999999999886e+01
-1.044999999999999929e+01
-6.765999999999999659e+01
1.480000000000000071e+01
2.903000000000000114e+01
1.450999999999999979e+01
2.262999999999999901e+01
5.640999999999999659e+01
5.636999999999999744e+01
-1.785999999999999943e+01
1.948999999999999844e+01
6.771999999999999886e+01
2.451000000000000156e+01
1.719000000000000128e+01
-3.884000000000000341e+01
-5.914000000000000057e+01
3.270000000000000284e+01
-1.857000000000000028e+01
2.337999999999999901e+01
-1.339000000000000057e+01
-3.044999999999999929e+01
9.795000000000000284e+01
1.219999999999999973e+00
-3.850000000000000000e+01
-1.692000000000000171e+01
1.870000000000000107e+00
2.653000000000000114e+01
2.819000000000000128e+01
-9.428000000000000114e+01
1.000000000000000056e-01
-9.039999999999999147e+00
-9.039999999999999147e+00
4.546000000000000085e+01
-4.921000000000000085e+01
1.790000000000000036e+00
-2.066000000000000014e+01
4.203999999999999915e+01
6.562999999999999545e+01
-4.799000000000000199e+01
-3.390999999999999659e+01
6.700000000000000400e-01
6.032999999999999829e+01
5.232000000000000028e+01
-6.354999999999999716e+01
-5.338000000000000256e+01
6.496999999999999886e+01
-9.220000000000000639e+00
1.077999999999999936e+01
-2.921999999999999886e+01
7.190000000000000391e+00
3.187000000000000099e+01
-2.953999999999999915e+01
-5.577000000000000313e+01
-1.689499999999999886e+02
1.566200000000000045e+02
3.766000000000000227e+02
2.082999999999999829e+01
-3.077799999999999727e+02
3.575000000000000000e+01
2.392999999999999972e+01
1.564399999999999977e+02
-2.213899999999999864e+02
6.543999999999999773e+01
-1.536200000000000045e+02
3.821000000000000085e+01
5.395000000000000284e+01
1.280000000000000071e+01
-1.000000000000000021e-02
-9.935999999999999943e+01
4.335000000000000142e+01
6.545999999999999375e+01
3.971999999999999886e+01
-8.240000000000000568e+01
-8.193000000000000682e+01
6.654000000000000625e+01
6.684999999999999432e+01
6.017999999999999972e+01
1.152600000000000051e+02
-1.672700000000000102e+02
-8.000000000000000000e+01
3.832999999999999829e+01
-2.005000000000000071e+01
1.350000000000000089e+00
-7.070000000000000284e+00
-7.775000000000000000e+01
6.693000000000000682e+01
9.731999999999999318e+01
-1.785000000000000142e+01
-9.040999999999999659e+01
-2.542000000000000171e+01
-1.019200000000000017e+02
6.164000000000000057e+01
3.932000000000000028e+01
6.024000000000000199e+01
2.223999999999999844e+01
-4.629999999999999716e+01
-1.124200000000000017e+02
1.077800000000000011e+02
-1.309000000000000057e+02
-3.099999999999999978e-01
3.493999999999999773e+01
3.388000000000000256e+01
-1.092099999999999937e+02
-3.450999999999999801e+01
4.721999999999999886e+01
4.840999999999999659e+01
7.315000000000000568e+01
-8.048999999999999488e+01
-5.479999999999999716e+01
6.678000000000000114e+01
5.089999999999999858e+01
4.570000000000000284e+00
-3.732999999999999829e+01
5.479999999999999716e+01
-5.685000000000000142e+01
-8.231000000000000227e+01
7.540000000000000036e+00
3.292000000000000171e+01
5.410999999999999943e+01
-3.580000000000000071e+00
9.754000000000000625e+01
-5.131000000000000227e+01
4.277000000000000313e+01
-5.570000000000000284e+00
7.812999999999999545e+01
-8.865000000000000568e+01
6.450000000000000178e+00
9.373999999999999488e+01
1.935999999999999943e+01
-9.567000000000000171e+01
-1.216700000000000017e+02
2.530800000000000125e+02
-6.864000000000000057e+01
-4.895000000000000284e+01
5.378000000000000114e+01
-9.168999999999999773e+01
-3.850000000000000000e+01
1.528799999999999955e+02
2.271000000000000085e+01
3.999000000000000199e+01
7.900000000000000355e-01
1.203299999999999983e+02
-1.692700000000000102e+02
7.251999999999999602e+01
4.850000000000000000e+01
2.239000000000000057e+01
-1.805800000000000125e+02
1.316399999999999864e+02
1.650000000000000000e+01
-3.471000000000000085e+01
3.556000000000000227e+01
-1.973999999999999844e+01
-1.194999999999999929e+01
2.117000000000000171e+01
-2.303000000000000114e+01
1.860000000000000142e+01
3.665999999999999659e+01
1.027999999999999936e+01
3.215999999999999659e+01
-1.308000000000000007e+01
-1.499600000000000080e+02
1.315000000000000036e+01
1.695600000000000023e+02
4.175999999999999801e+01
8.245999999999999375e+01
-3.132000000000000028e+01
5.585000000000000142e+01
6.199000000000000199e+01
1.431000000000000050e+01
-3.790000000000000036e+00
-8.759999999999999787e+00
-5.210999999999999943e+01
9.176000000000000512e+01
-1.462400000000000091e+02
9.765999999999999659e+01
-4.711999999999999744e+01
-6.470000000000000284e+01
1.469999999999999973e+00
4.446000000000000085e+01
-6.740000000000000568e+01
3.974000000000000199e+01
3.279999999999999716e+01
-1.760999999999999943e+01
8.415000000000000568e+01
-3.534000000000000341e+01
-1.644399999999999977e+02
1.756800000000000068e+02
-4.404999999999999716e+01
1.153999999999999915e+01
2.071999999999999886e+01
-1.194899999999999949e+02
4.275999999999999801e+01
-9.225000000000000000e+01
-4.229999999999999716e+01
6.959999999999999432e+01
-1.069999999999999929e+01
-7.330000000000000071e+00
1.629999999999999893e+00
-1.308000000000000007e+01
5.809999999999999609e+00
6.169999999999999929e+00
-8.828000000000000114e+01
1.398100000000000023e+02
-2.310000000000000142e+01
3.843999999999999773e+01
-8.989000000000000057e+01
-1.955000000000000071e+01
-7.843000000000000682e+01
7.669999999999999929e+00
-2.037000000000000099e+01
4.196000000000000085e+01
-4.478999999999999915e+01
9.226999999999999602e+01
2.240000000000000213e+00
4.693999999999999773e+01
-7.379999999999999716e+01
-4.107000000000000028e+01
7.335999999999999943e+01
2.850000000000000000e+01
-1.142699999999999960e+02
-4.793999999999999773e+01
1.192999999999999972e+01
7.218000000000000682e+01
-3.085000000000000142e+01
4.150000000000000000e+01
-6.921999999999999886e+01
7.078000000000000114e+01
-4.899999999999999911e-01
1.016899999999999977e+02
3.332000000000000028e+01
-2.159699999999999989e+02
-2.960999999999999943e+01
2.742000000000000171e+01
2.500000000000000000e-01
1.878999999999999915e+01
9.779999999999999361e+00
-3.187000000000000099e+01
6.780000000000000249e+00
-1.153999999999999915e+01
-6.881000000000000227e+01
3.400000000000000244e-01
1.866599999999999966e+02
1.135900000000000034e+02
-7.428000000000000114e+01
-1.425399999999999920e+02
-1.921999999999999886e+01
-2.737000000000000099e+01
2.710999999999999943e+01
5.313000000000000256e+01
-2.198000000000000043e+01
1.610399999999999920e+02
-1.385999999999999943e+02
-1.374699999999999989e+02
1.295000000000000000e+02
1.149000000000000021e+01
1.976999999999999957e+01
-9.529999999999999716e+01
5.379999999999999716e+01
-6.540999999999999659e+01
4.678999999999999915e+01
-5.678000000000000114e+01
1.908999999999999986e+01
9.500000000000000000e+00
-1.612999999999999901e+01
3.553000000000000114e+01
1.111999999999999922e+01
-5.600999999999999801e+01
1.541299999999999955e+02
6.157000000000000028e+01
1.135499999999999972e+02
4.967000000000000171e+01
-2.831899999999999977e+02
6.857999999999999829e+01
-1.541699999999999875e+02
4.014000000000000057e+01
7.217000000000000171e+01
-7.487000000000000455e+01
8.676999999999999602e+01
-8.800000000000000711e+00
9.799999999999999822e-01
-7.940000000000000391e+00
-2.160000000000000142e+01
-1.828000000000000114e+01
2.355000000000000071e+01
-3.180999999999999872e+01
4.440999999999999659e+01
-3.607000000000000028e+01
6.754000000000000625e+01
-2.580000000000000071e+00
-1.081000000000000050e+01
2.744999999999999929e+01
-4.899999999999999911e-01
-2.075000000000000000e+01
2.492999999999999972e+01
-1.360000000000000098e+00
-2.040000000000000036e+00
1.739999999999999991e+00
-7.129999999999999893e+00
-9.019999999999999574e+00
2.805999999999999872e+01
-1.236999999999999922e+01
-2.516000000000000014e+01
-8.699999999999999289e+00
-8.489000000000000057e+01
3.408000000000000114e+02
-6.120000000000000284e+01
-2.976700000000000159e+02
1.233100000000000023e+02
-6.460999999999999943e+01
-6.359000000000000341e+01
-1.233799999999999955e+02
4.193999999999999773e+01
4.749900000000000091e+02
-1.192399999999999949e+02
-1.349399999999999977e+02
-6.385000000000000142e+01
1.091800000000000068e+02
-1.028299999999999983e+02
4.260999999999999943e+01
9.519999999999999574e+00
5.442000000000000171e+01
9.019999999999999574e+00
-2.750000000000000000e+01
1.942999999999999972e+01
-1.234999999999999964e+01
2.919999999999999929e+01
-9.695000000000000284e+01
3.315999999999999659e+01
-4.667000000000000171e+01
6.910000000000000142e+00
6.307000000000000028e+01
2.889000000000000057e+01
-4.978999999999999915e+01
-4.610999999999999943e+01
-3.299000000000000199e+01
3.871999999999999886e+01
6.295000000000000284e+01
-9.220000000000000639e+00
-9.209999999999999432e+01
-2.330999999999999872e+01
5.863000000000000256e+01
-4.169999999999999929e+00
4.167999999999999972e+01
-3.279999999999999805e+00
-4.239000000000000057e+01
2.901000000000000156e+01
-1.589000000000000057e+01
3.943999999999999773e+01
-4.225000000000000000e+01
3.303000000000000114e+01
-4.985000000000000142e+01
1.231000000000000050e+01
-1.796000000000000085e+01
-4.340999999999999659e+01
6.590999999999999659e+01
9.599999999999999645e-01
1.900000000000000022e-01
-1.028999999999999915e+01
3.313000000000000256e+01
4.278999999999999915e+01
-4.139999999999999680e+00
-4.425000000000000000e+01
-4.540999999999999659e+01
-1.264000000000000057e+01
1.089000000000000057e+01
2.357000000000000028e+01
-1.347000000000000064e+01
2.200000000000000011e-01
2.580000000000000071e+01
8.929999999999999716e+00
-4.543999999999999773e+01
-2.992000000000000171e+01
-2.479999999999999982e+00
3.246999999999999886e+01
6.253999999999999915e+01
-4.992999999999999972e+01
-6.815999999999999659e+01
9.720000000000000639e+00
1.052500000000000000e+02
9.599999999999999645e-01
-3.871000000000000085e+01
-4.317000000000000171e+01
1.335999999999999943e+01
-3.800000000000000044e-01
-2.200000000000000011e-01
3.482999999999999829e+01
-1.225799999999999983e+02
6.460999999999999943e+01
3.539999999999999858e+01
4.892000000000000171e+01
-3.635999999999999943e+01
1.199000000000000021e+01
2.757999999999999829e+01
-1.607999999999999829e+01
-8.868999999999999773e+01
1.103400000000000034e+02
-2.671999999999999886e+01
-1.617599999999999909e+02
1.329900000000000091e+02
3.293999999999999773e+01
-4.309999999999999609e+00
-3.700799999999999841e+02
6.979000000000000625e+01
2.469300000000000068e+02
7.865000000000000568e+01
-4.285000000000000142e+01
2.957999999999999829e+01
-3.119999999999999929e+01
2.344000000000000128e+01
5.884000000000000341e+01
-6.993000000000000682e+01
6.431000000000000227e+01
-2.283999999999999986e+01
-5.919999999999999929e+00
1.080000000000000071e+01
1.265100000000000051e+02
1.838799999999999955e+02
-2.769800000000000182e+02
4.452000000000000313e+01
8.214000000000000057e+01
1.196000000000000085e+01
-2.260999999999999943e+01
-1.785000000000000142e+01
5.342000000000000171e+01
-6.876000000000000512e+01
3.575000000000000000e+01
4.625999999999999801e+01
-6.450000000000000000e+01
1.789699999999999989e+02
3.990000000000000213e+00
-6.000000000000000000e+01
5.503999999999999915e+01
6.080000000000000071e+00
5.230000000000000426e+00
4.085000000000000142e+01
-2.830000000000000071e+01
-1.696999999999999886e+01
-1.258000000000000007e+01
-3.335999999999999943e+01
-9.599999999999999645e-01
-3.381000000000000227e+01
-2.721999999999999886e+01
-3.529999999999999805e+00
-8.589999999999999858e+00
1.149000000000000021e+01
2.264999999999999858e+01
-2.871000000000000085e+01
3.877000000000000313e+01
-3.422999999999999687e+01
2.244999999999999929e+01
-8.109999999999999432e+00
6.259999999999999787e+00
-5.960999999999999943e+01
-1.171000000000000085e+01
9.803000000000000114e+01
-1.471899999999999977e+02
3.878000000000000114e+01
-5.799999999999999600e-01
2.996999999999999886e+01
1.923000000000000043e+01
2.692999999999999972e+01
-1.286999999999999922e+01
2.337000000000000099e+01
2.882000000000000028e+01
-7.160999999999999943e+01
5.659000000000000341e+01
-5.365999999999999659e+01
2.798999999999999844e+01
8.028000000000000114e+01
-1.738300000000000125e+02
1.521100000000000136e+02
-1.110499999999999972e+02
1.227300000000000040e+02
1.267800000000000011e+02
-5.557799999999999727e+02
9.895000000000000284e+01
1.476399999999999864e+02
-1.203999999999999915e+01
1.855000000000000071e+01
4.709999999999999964e+00
-2.885999999999999943e+01
4.117000000000000171e+01
-5.446000000000000085e+01
1.926999999999999957e+01
-1.155000000000000071e+01
-2.008999999999999986e+01
3.747999999999999687e+01
1.976999999999999957e+01
-9.826000000000000512e+01
5.835999999999999943e+01
-2.419000000000000128e+01
-1.989999999999999991e+00
5.461999999999999744e+01
-6.526999999999999602e+01
-2.094999999999999929e+01
5.421999999999999886e+01
5.528999999999999915e+01
2.407999999999999829e+01
1.066000000000000014e+01
-6.987999999999999545e+01
-1.116999999999999993e+01
-4.320000000000000284e+00
1.300999999999999979e+01
-6.299999999999999822e+00
-1.508000000000000007e+01
1.080000000000000071e+00
-1.181000000000000050e+01
-5.820000000000000284e+01
2.369000000000000128e+01
-1.628000000000000114e+01
-3.371000000000000085e+01
-1.042099999999999937e+02
1.225499999999999972e+02
1.744000000000000057e+02
2.066399999999999864e+02
-1.658499999999999943e+02
-6.920999999999999375e+01
-6.670999999999999375e+01
1.262600000000000051e+02
5.979999999999999716e+01
-8.912000000000000455e+01
3.692999999999999972e+01
3.668999999999999773e+01
-4.800000000000000000e+01
-2.189000000000000057e+01
5.071999999999999886e+01
1.323000000000000043e+01
-6.456999999999999318e+01
2.910000000000000142e+01
-2.892000000000000171e+01
-1.331200000000000045e+02
1.080199999999999960e+02
9.178000000000000114e+01
3.989000000000000057e+01
1.911299999999999955e+02
-1.109800000000000040e+02
-1.586599999999999966e+02
6.593000000000000682e+01
-5.309000000000000341e+01
-3.241999999999999886e+02
-2.117800000000000011e+02
1.825300000000000011e+02
-4.370000000000000107e+00
1.127900000000000063e+02
-2.054499999999999886e+02
1.483999999999999986e+01
3.793999999999999773e+01
-1.896000000000000085e+01
-2.080999999999999872e+01
5.192999999999999972e+01
3.835000000000000142e+01
-4.525000000000000000e+01
-4.247999999999999687e+01
-1.271000000000000085e+01
-6.545999999999999375e+01
1.032199999999999989e+02
8.337000000000000455e+01
1.425200000000000102e+02
-1.847100000000000080e+02
-1.289699999999999989e+02
2.398000000000000043e+01
-6.589999999999999858e+00
-1.729999999999999982e+00
-7.970999999999999375e+01
-3.819999999999999840e+00
-1.860000000000000098e+00
3.439999999999999947e+00
8.900000000000000133e-01
2.648000000000000043e+01
2.270000000000000018e+00
-2.217000000000000171e+01
3.142999999999999972e+01
1.077199999999999989e+02
2.348999999999999844e+01
-2.450000000000000000e+01
5.029999999999999716e+01
-1.571800000000000068e+02
-4.361999999999999744e+01
1.583999999999999986e+01
-6.518000000000000682e+01
2.712999999999999901e+01
4.772999999999999687e+01
-5.700999999999999801e+01
-4.604999999999999716e+01
4.825000000000000000e+01
-5.825000000000000000e+01
-1.347500000000000000e+02
1.637400000000000091e+02
-8.546999999999999886e+01
-1.431000000000000050e+01
-1.650000000000000000e+01
6.940000000000000568e+01
-1.505000000000000071e+01
-9.989000000000000057e+01
-7.803000000000000114e+01
1.108599999999999994e+02
8.001000000000000512e+01
2.096000000000000085e+01
2.675000000000000000e+01
5.099999999999999645e+00
4.125000000000000000e+01
3.527000000000000313e+01
3.435999999999999943e+01
-2.919999999999999929e+00
-4.232999999999999829e+01
1.446000000000000085e+01
1.142999999999999972e+01
6.339000000000000057e+01
-2.391000000000000014e+01
7.134000000000000341e+01
-7.846999999999999886e+01
-3.019000000000000128e+01
-2.998000000000000043e+01
8.570000000000000284e+00
-3.831000000000000227e+01
1.543999999999999950e+01
-1.333000000000000007e+01
5.110000000000000320e+00
-3.439999999999999858e+01
-1.444999999999999929e+01
-8.187999999999999545e+01
1.200999999999999979e+01
1.749300000000000068e+02
-2.203300000000000125e+02
-5.754999999999999716e+01
1.810099999999999909e+02
2.853000000000000114e+01
3.071000000000000085e+01
3.048999999999999844e+01
1.007199999999999989e+02
-3.217000000000000171e+01
-9.462999999999999545e+01
-6.407999999999999829e+01
-1.801999999999999957e+01
9.478000000000000114e+01
-3.517999999999999972e+01
3.350000000000000089e+00
7.718000000000000682e+01
4.950000000000000178e+00
-3.521999999999999886e+01
1.855000000000000071e+01
-1.764999999999999858e+01
2.610000000000000142e+01
5.290000000000000036e+00
-3.793999999999999773e+01
-3.085999999999999943e+01
2.745899999999999750e+02
-3.053999999999999915e+01
5.031000000000000227e+01
-4.139999999999999680e+00
-1.621000000000000085e+01
-4.572999999999999687e+01
-8.003000000000000114e+01
-3.014999999999999858e+01
4.813000000000000256e+01
3.488000000000000256e+01
9.369999999999999218e+00
-3.918999999999999773e+01
-8.329000000000000625e+01
1.615000000000000000e+02
1.430900000000000034e+02
5.089000000000000057e+01
1.314600000000000080e+02
-5.185599999999999454e+02
1.308499999999999943e+02
6.992000000000000171e+01
-6.929999999999999716e+00
-3.459000000000000341e+01
1.853000000000000114e+01
-3.096000000000000085e+01
1.625000000000000000e+01
-1.607000000000000028e+01
-7.184000000000000341e+01
9.895999999999999375e+01
1.010000000000000009e+00
-5.299000000000000199e+01
-2.875000000000000000e+01
-1.410999999999999943e+01
7.103000000000000114e+01
-1.011299999999999955e+02
1.000000000000000000e+01
8.379000000000000625e+01
-1.623600000000000136e+02
3.499999999999999778e-01
2.012999999999999901e+01
-8.970000000000000639e+00
1.871999999999999886e+01
1.473000000000000043e+01
-1.989999999999999858e+01
-2.360999999999999943e+01
-5.865999999999999659e+01
1.820200000000000102e+02
6.280000000000000249e+00
-5.706000000000000227e+01
-4.545000000000000284e+01
-1.071000000000000085e+01
9.019999999999999574e+00
-1.870000000000000107e+00
4.139999999999999680e+00
1.983999999999999986e+01
3.322999999999999687e+01
-1.605999999999999872e+01
-2.603000000000000114e+01
-2.925000000000000000e+01
-1.235999999999999943e+01
5.545000000000000284e+01
-3.697999999999999687e+01
-2.521999999999999886e+01
-2.603999999999999915e+01
3.967999999999999972e+01
1.325000000000000000e+01
-4.424000000000000199e+01
-3.296000000000000085e+01
3.517999999999999972e+01
-1.032000000000000028e+01
-1.071000000000000085e+01
5.334000000000000341e+01
-5.070000000000000284e+00
-4.263000000000000256e+01
2.991000000000000014e+01
-1.514000000000000057e+01
-4.250999999999999801e+01
-7.709999999999999964e+00
1.992000000000000171e+01
-3.819999999999999840e+00
-2.520000000000000018e+00
2.571999999999999886e+01
-1.340000000000000080e+00
-5.813000000000000256e+01
-4.911999999999999744e+01
-1.123000000000000043e+01
1.376200000000000045e+02
3.171999999999999886e+01
-8.800000000000000711e+00
-3.353000000000000114e+01
-9.630000000000000782e+00
1.751999999999999957e+01
-1.097000000000000064e+01
-8.939999999999999503e+00
1.975000000000000000e+01
-2.479999999999999982e+00
-2.408999999999999986e+01
2.160000000000000142e+01
6.049999999999999822e+00
-1.225999999999999979e+01
2.894000000000000128e+01
1.346000000000000085e+01
2.146000000000000085e+01
1.090999999999999943e+02
-8.665999999999999659e+01
-1.232000000000000028e+01
-1.342999999999999972e+01
1.985000000000000142e+01
1.860999999999999943e+01
-3.328999999999999915e+01
-3.750000000000000000e+01
2.526000000000000156e+01
2.890000000000000124e+00
1.980000000000000071e+01
6.840999999999999659e+01
-7.109999999999999432e+01
-7.817000000000000171e+01
1.587299999999999898e+02
2.566000000000000014e+01
-1.076800000000000068e+02
-2.555999999999999872e+01
-1.456599999999999966e+02
-9.743999999999999773e+01
9.550000000000000711e+00
5.607999999999999829e+01
3.714999999999999858e+01
-3.932000000000000028e+01
8.384999999999999432e+01
7.146999999999999886e+01
-1.105100000000000051e+02
-1.239000000000000057e+01
-7.589999999999999858e+00
-7.067000000000000171e+01
-1.190000000000000036e+01
1.018700000000000045e+02
1.720000000000000000e+02
-2.063600000000000136e+02
9.993999999999999773e+01
1.023700000000000045e+02
-8.957999999999999829e+01
-2.571000000000000085e+01
-1.908999999999999986e+01
-1.499999999999999944e-01
1.939999999999999858e+01
6.070000000000000284e+00
-1.119999999999999929e+01
-1.316999999999999993e+01
5.517999999999999972e+01
5.460999999999999943e+01
6.468999999999999773e+01
-6.948000000000000398e+01
-7.839000000000000057e+01
-1.690300000000000011e+02
1.174200000000000017e+02
-1.243999999999999950e+01
-1.040600000000000023e+02
3.021999999999999886e+01
2.141999999999999886e+02
-5.906000000000000227e+01
1.025999999999999979e+01
-5.299999999999999822e+00
-8.151000000000000512e+01
-5.818999999999999773e+01
3.460999999999999943e+01
2.660000000000000142e+00
-1.058000000000000007e+01
4.843999999999999773e+01
6.785999999999999943e+01
7.000000000000000666e-02
-6.745999999999999375e+01
1.991000000000000014e+01
6.884000000000000341e+01
1.183999999999999986e+01
-4.552000000000000313e+01
-9.720000000000000639e+00
5.168999999999999773e+01
-2.364999999999999858e+01
1.716000000000000014e+01
1.472000000000000064e+01
9.509999999999999787e+00
-3.014999999999999858e+01
-1.855999999999999872e+01
-4.713000000000000256e+01
4.936999999999999744e+01
4.521999999999999886e+01
-6.306000000000000227e+01
1.263000000000000078e+01
2.655999999999999872e+01
-2.921999999999999886e+01
-2.944999999999999929e+01
-1.005000000000000071e+01
3.032000000000000028e+01
-2.942999999999999972e+01
4.667999999999999972e+01
-4.339999999999999858e+00
-3.520000000000000018e+00
3.599999999999999867e-01
-6.462999999999999545e+01
4.209999999999999964e+00
-5.059999999999999609e+00
-3.112999999999999901e+01
-1.278499999999999943e+02
3.320199999999999818e+02
-2.419499999999999886e+02
-6.490000000000000213e+00
-1.209999999999999964e+00
4.625999999999999801e+01
4.435999999999999943e+01
6.363000000000000256e+01
-4.379999999999999716e+01
-8.320000000000000284e+00
-8.895999999999999375e+01
-1.075499999999999972e+02
8.320000000000000284e+00
8.532999999999999829e+01
1.135100000000000051e+02
-3.371999999999999886e+01
2.260000000000000142e+01
-9.995000000000000284e+01
2.480999999999999872e+01
-2.551999999999999957e+01
-2.212999999999999901e+01
1.471000000000000085e+01
3.515999999999999659e+01
-1.279899999999999949e+02
6.870999999999999375e+01
-1.273799999999999955e+02
1.426999999999999957e+01
3.393299999999999841e+02
-1.368499999999999943e+02
-1.107000000000000028e+02
5.788000000000000256e+01
-9.214000000000000057e+01
5.643999999999999773e+01
-1.564000000000000057e+01
-2.660000000000000142e+01
7.835999999999999943e+01
-1.708999999999999986e+01
-8.454999999999999716e+01
-2.830000000000000071e+00
-3.075000000000000000e+01
3.100000000000000000e+01
5.300999999999999801e+01
-2.625000000000000000e+01
3.800000000000000044e-01
4.429999999999999716e+00
3.959000000000000341e+01
3.589000000000000057e+01
-3.993999999999999773e+01
3.140000000000000124e+00
3.087000000000000099e+01
-2.870000000000000107e+00
-2.873000000000000043e+01
4.035999999999999943e+01
1.352999999999999936e+01
-1.983999999999999986e+01
8.519999999999999574e+00
-3.399999999999999911e+00
1.382000000000000028e+01
8.490000000000000213e+00
2.837000000000000099e+01
-7.006000000000000227e+01
-2.189000000000000057e+01
3.689999999999999858e+01
1.352999999999999936e+01
-3.635000000000000142e+01
2.589999999999999858e+01
1.680000000000000071e+01
-2.776999999999999957e+01
-6.120000000000000107e+00
9.849999999999999645e+00
-2.298999999999999844e+01
-8.192000000000000171e+01
3.478999999999999915e+01
1.400900000000000034e+02
-1.007999999999999972e+02
-2.617999999999999972e+01
-4.232999999999999829e+01
-8.431000000000000227e+01
-1.297000000000000064e+01
9.387999999999999545e+01
-3.957000000000000028e+01
4.478000000000000114e+01
9.779999999999999361e+00
-1.272900000000000063e+02
2.230000000000000071e+01
1.097699999999999960e+02
5.240000000000000213e+00
-8.273000000000000398e+01
1.803700000000000045e+02
2.267999999999999972e+01
-8.800000000000000044e-01
-1.190799999999999983e+02
1.489900000000000091e+02
-2.672799999999999727e+02
-5.974000000000000199e+01
4.971999999999999886e+01
-3.620000000000000107e+00
6.840999999999999659e+01
-4.053000000000000114e+01
-2.000000000000000042e-02
3.653000000000000114e+01
2.180999999999999872e+01
-1.150999999999999979e+01
-2.633999999999999986e+01
-6.079999999999999716e+01
-6.225999999999999801e+01
1.114000000000000057e+02
3.357699999999999818e+02
-1.751200000000000045e+02
-4.875000000000000000e+01
-1.714999999999999858e+01
3.649999999999999911e+00
-1.755999999999999872e+01
1.325999999999999979e+01
6.434000000000000341e+01
-1.009599999999999937e+02
4.324000000000000199e+01
9.770999999999999375e+01
-1.238900000000000006e+02
-7.865000000000000568e+01
-1.887299999999999898e+02
1.562400000000000091e+02
7.706000000000000227e+01
2.344999999999999929e+01
3.549999999999999822e+00
-1.350000000000000000e+01
9.669999999999999929e+00
2.632000000000000028e+01
6.718000000000000682e+01
4.400000000000000022e-01
-6.889999999999999680e+00
4.004999999999999716e+01
-4.757000000000000028e+01
3.807999999999999829e+01
-9.137999999999999545e+01
-5.274000000000000199e+01
-1.301500000000000057e+02
-1.535999999999999943e+01
7.848000000000000398e+01
1.069899999999999949e+02
4.446000000000000085e+01
2.135600000000000023e+02
-1.174099999999999966e+02
-1.016200000000000045e+02
-1.746999999999999886e+01
1.041000000000000014e+01
-5.330000000000000071e+00
-5.077000000000000313e+01
1.535999999999999943e+01
-2.653000000000000114e+01
-7.676999999999999602e+01
1.767000000000000171e+01
4.422999999999999687e+01
-5.209999999999999964e+00
1.946999999999999886e+01
-4.482000000000000028e+01
-3.521999999999999886e+01
3.055999999999999872e+01
1.509399999999999977e+02
-2.826999999999999957e+01
-7.109999999999999432e+01
-3.296000000000000085e+01
1.942999999999999972e+01
-8.543000000000000682e+01
5.492000000000000171e+01
7.250000000000000000e+01
-5.589999999999999858e+01
-1.807400000000000091e+02
1.185900000000000034e+02
4.520000000000000284e+01
3.860000000000000142e+01
2.473000000000000043e+01
-7.290000000000000568e+01
-1.357599999999999909e+02
1.641500000000000057e+02
7.167000000000000171e+01
-4.267000000000000171e+01
-7.251999999999999602e+01
-1.653999999999999915e+01
-5.085000000000000142e+01
-7.860999999999999943e+01
2.294399999999999977e+02
-1.388600000000000136e+02
-9.704000000000000625e+01
7.110999999999999943e+01
-1.181099999999999994e+02
-4.575999999999999801e+01
-1.055900000000000034e+02
1.580000000000000071e+00
-1.410900000000000034e+02
2.228000000000000114e+01
2.600000000000000000e+02
-7.349999999999999645e+00
-6.659000000000000341e+01
4.268999999999999773e+01
1.580000000000000071e+01
-6.700000000000000178e+00
-7.090999999999999659e+01
-2.339999999999999858e+00
2.529999999999999805e+00
-3.867000000000000171e+01
4.197999999999999687e+01
-7.870999999999999375e+01
8.509999999999999787e+00
1.240900000000000034e+02
-2.794999999999999929e+01
8.187000000000000455e+01
4.952000000000000313e+01
-2.912400000000000091e+02
1.102099999999999937e+02
1.133000000000000007e+01
1.076999999999999957e+01
-4.947999999999999687e+01
7.120000000000000107e+00
-8.800000000000000044e-01
8.979000000000000625e+01
-3.160000000000000142e+01
7.099999999999999645e+00
2.721999999999999886e+01
-5.019999999999999574e+00
8.937000000000000455e+01
-2.494000000000000128e+01
-3.076000000000000156e+01
-5.731000000000000227e+01
5.940999999999999659e+01
2.189999999999999858e+01
-4.460999999999999943e+01
6.810999999999999943e+01
4.789999999999999858e+01
-2.510000000000000142e+01
3.292000000000000171e+01
4.467999999999999972e+01
-6.970999999999999375e+01
-1.499300000000000068e+02
5.692000000000000171e+01
-2.873999999999999844e+01
3.930000000000000160e+00
-3.176000000000000156e+01
1.917000000000000171e+01
7.519999999999999574e+00
1.556000000000000050e+01
-3.194999999999999929e+01
-5.440000000000000391e+00
6.299999999999999822e+00
1.190000000000000036e+01
4.500000000000000111e-01
1.935999999999999943e+01
-2.360000000000000142e+01
-9.609999999999999432e+00
2.487999999999999901e+01
1.067999999999999972e+01
-2.033999999999999986e+01
1.281000000000000050e+01
4.370000000000000107e+00
-1.619999999999999929e+01
8.800000000000000044e-01
1.530000000000000027e+00
2.729999999999999982e+00
1.048000000000000043e+01
3.390000000000000124e+00
-1.340000000000000036e+01
-5.259999999999999787e+00
-1.691000000000000014e+01
1.081000000000000050e+01
-1.449999999999999956e+00
1.235999999999999943e+01
-5.639999999999999680e+00
-1.443999999999999950e+01
1.291000000000000014e+01
-5.999999999999999778e-01
-1.116999999999999993e+01
1.382000000000000028e+01
9.300000000000000488e-01
-1.118999999999999950e+01
1.147000000000000064e+01
4.740000000000000213e+00
-2.500000000000000000e+00
-1.433999999999999986e+01
1.197000000000000064e+01
1.479999999999999982e+00
-1.183000000000000007e+01
5.230000000000000426e+00
7.700000000000000178e+00
-7.160000000000000142e+00
-1.719000000000000128e+01
1.457000000000000028e+01
2.399999999999999911e-01
-1.255000000000000071e+01
4.269999999999999574e+00
9.250000000000000000e+00
-3.799999999999999822e+00
-1.607999999999999829e+01
1.923999999999999844e+01
4.199999999999999845e-01
-2.623999999999999844e+01
1.735999999999999943e+01
3.256000000000000227e+01
-8.359999999999999432e+00
-1.637999999999999901e+01
8.859999999999999432e+00
-4.150000000000000355e+00
-1.635999999999999943e+01
1.748000000000000043e+01
-3.549999999999999822e+00
-2.875000000000000000e+01
5.652000000000000313e+01
-1.510000000000000009e+00
-2.126999999999999957e+01
-2.573000000000000043e+01
1.835999999999999943e+01
1.150999999999999979e+01
-2.039000000000000057e+01
-2.328999999999999915e+01
2.771000000000000085e+01
5.763000000000000256e+01
3.307000000000000028e+01
-2.319699999999999989e+02
7.468999999999999773e+01
1.096000000000000085e+01
1.163000000000000078e+01
8.349999999999999645e+00
-3.575000000000000000e+01
2.771000000000000085e+01
2.176999999999999957e+01
-8.519999999999999574e+00
-1.081700000000000017e+02
2.726399999999999864e+02
-1.417100000000000080e+02
-1.361399999999999864e+02
8.804999999999999716e+01
-1.246700000000000017e+02
-1.525800000000000125e+02
4.263000000000000256e+01
1.475800000000000125e+02
-2.207999999999999829e+01
-2.587999999999999901e+01
5.350999999999999801e+01
8.684000000000000341e+01
-2.416100000000000136e+02
1.208900000000000006e+02
5.370000000000000284e+01
9.179999999999999716e+00
-9.470000000000000639e+00
-3.988000000000000256e+01
6.429999999999999716e+01
-1.073000000000000043e+01
-6.500000000000000222e-01
-5.980000000000000426e+00
-7.410999999999999943e+01
2.005000000000000071e+01
-2.378000000000000114e+01
-1.107000000000000028e+01
1.443999999999999950e+01
-4.032000000000000028e+01
1.864999999999999858e+01
6.324000000000000199e+01
-3.364999999999999858e+01
2.323999999999999844e+01
1.297000000000000064e+01
-4.534000000000000341e+01
1.409999999999999920e+00
4.629999999999999716e+01
-3.245000000000000284e+01
-1.471000000000000085e+01
1.701999999999999957e+01
7.450000000000000178e+00
-2.907999999999999829e+01
-5.457999999999999829e+01
2.928000000000000114e+01
-4.790999999999999659e+01
5.022999999999999687e+01
-6.599999999999999645e+00
-5.527000000000000313e+01
5.682000000000000028e+01
2.142000000000000171e+01
-3.528999999999999915e+01
5.524000000000000199e+01
3.087999999999999901e+01
7.709999999999999964e+00
1.513000000000000078e+01
4.409000000000000341e+01
-1.315900000000000034e+02
-1.409000000000000057e+02
1.588600000000000136e+02
-4.360000000000000320e+00
-1.306000000000000050e+01
4.799999999999999822e+00
5.200000000000000178e+00
-4.700999999999999801e+01
2.859999999999999876e+00
2.280000000000000071e+01
1.323000000000000043e+01
-7.410000000000000142e+00
1.973000000000000043e+01
2.450000000000000178e+00
-5.990000000000000213e+00
2.437000000000000099e+01
-9.439999999999999503e+00
-1.746000000000000085e+01
-1.780999999999999872e+01
6.485999999999999943e+01
3.012999999999999901e+01
-7.134000000000000341e+01
-4.659000000000000341e+01
-1.807999999999999829e+01
-2.158999999999999986e+01
3.660000000000000142e+01
9.949999999999999289e+00
-7.250000000000000000e+00
-2.009999999999999787e+00
-7.500000000000000000e-01
-1.520000000000000018e+00
5.611999999999999744e+01
-3.989000000000000057e+01
-5.313000000000000256e+01
8.050000000000000711e+00
6.970999999999999375e+01
-1.929300000000000068e+02
-6.639999999999999680e+00
3.517000000000000171e+01
-9.228000000000000114e+01
-5.978000000000000114e+01
2.909900000000000091e+02
2.882999999999999829e+01
-1.358499999999999943e+02
-1.444999999999999929e+01
-1.021000000000000085e+01
2.623000000000000043e+01
-2.205000000000000071e+01
1.097000000000000064e+01
6.232000000000000028e+01
-2.785000000000000142e+01
-8.907999999999999829e+01
2.780999999999999872e+01
6.757999999999999829e+01
6.800000000000000488e-01
-2.733999999999999986e+01
3.390000000000000124e+00
9.019999999999999574e+00
1.198000000000000043e+01
2.078999999999999915e+01
-3.517999999999999972e+01
9.910000000000000142e+00
9.399999999999999467e-01
-3.914000000000000057e+01
2.889000000000000057e+01
1.323000000000000043e+01
2.423000000000000043e+01
1.320000000000000062e+00
-2.953000000000000114e+01
2.725000000000000000e+01
-1.233000000000000007e+01
1.300999999999999979e+01
-1.166400000000000006e+02
-5.150000000000000000e+01
5.428000000000000114e+01
2.682999999999999829e+01
-8.300000000000000711e+00
3.300000000000000155e-01
3.200999999999999801e+01
9.519999999999999574e+00
-2.396999999999999886e+01
6.719999999999999751e+00
-1.091999999999999993e+01
2.046000000000000085e+01
-7.098999999999999488e+01
-6.342999999999999972e+01
2.373000000000000043e+01
2.750000000000000000e+00
-8.769999999999999574e+00
6.730000000000000426e+00
7.084000000000000341e+01
-5.867999999999999972e+01
-1.338600000000000136e+02
-2.446000000000000085e+01
1.735099999999999909e+02
-9.243999999999999773e+01
-4.779999999999999716e+01
2.246000000000000085e+01
3.053000000000000114e+01
1.682999999999999829e+01
1.239999999999999991e+00
-1.316000000000000014e+01
1.383999999999999986e+01
8.737000000000000455e+01
-6.678000000000000114e+01
-5.070000000000000284e+00
5.825000000000000000e+01
-5.425999999999999801e+01
6.809999999999999609e+00
-1.451899999999999977e+02
3.600000000000000000e+01
-4.059999999999999609e+00
-3.529999999999999805e+00
-5.189000000000000057e+01
7.045000000000000284e+01
-4.628999999999999915e+01
-1.407000000000000028e+01
4.820000000000000284e+00
-7.129999999999999716e+01
-1.034999999999999964e+01
4.642000000000000171e+01
1.115000000000000036e+01
4.515999999999999659e+01
1.737999999999999901e+01
2.458999999999999986e+01
-1.569900000000000091e+02
-1.350000000000000000e+01
2.876999999999999957e+01
1.227999999999999936e+01
6.509999999999999787e+00
3.667000000000000171e+01
-1.728000000000000114e+01
-1.582000000000000028e+01
3.839999999999999858e+01
3.569999999999999840e+00
-2.610999999999999943e+01
3.235000000000000142e+01
-3.169999999999999929e+00
-2.405000000000000071e+01
1.231000000000000050e+01
-1.707000000000000028e+01
-3.950000000000000178e+00
2.026000000000000156e+01
-1.138000000000000078e+01
-2.858999999999999986e+01
4.725000000000000000e+01
2.578000000000000114e+01
-1.985999999999999943e+01
1.320000000000000062e+00
5.919999999999999929e+00
-6.690000000000000391e+00
-2.390000000000000124e+00
6.719999999999999751e+00
-1.876999999999999957e+01
-2.875000000000000000e+01
7.830000000000000071e+00
-1.576999999999999957e+01
6.709999999999999964e+00
7.379999999999999893e+00
8.801999999999999602e+01
-4.674000000000000199e+01
1.703000000000000114e+01
-8.435999999999999943e+01
-2.082999999999999829e+01
2.303999999999999915e+01
-1.260999999999999943e+01
1.167999999999999972e+01
-8.410000000000000142e+00
3.979999999999999716e+01
-7.530000000000000249e+00
-1.721999999999999886e+01
-3.471000000000000085e+01
-2.189000000000000057e+01
2.400000000000000000e+01
1.080000000000000071e+01
2.201000000000000156e+01
-1.723999999999999844e+01
1.464000000000000057e+01
6.940000000000000391e+00
-1.527999999999999936e+01
-2.399999999999999911e+00
1.322000000000000064e+01
-2.680000000000000160e+00
2.551000000000000156e+01
2.348999999999999844e+01
2.069999999999999929e+01
-4.893999999999999773e+01
4.129999999999999893e+00
-4.830000000000000071e+00
-5.160000000000000142e+01
4.440999999999999659e+01
4.457000000000000028e+01
1.699999999999999956e+00
-3.767000000000000171e+01
8.179999999999999716e+00
5.221000000000000085e+01
5.831000000000000227e+01
-1.248499999999999943e+02
-2.157000000000000028e+01
4.190000000000000391e+00
-1.946000000000000085e+01
2.796000000000000085e+01
3.310999999999999943e+01
1.283000000000000007e+01
-8.912999999999999545e+01
1.000499999999999972e+02
-3.890999999999999659e+01
3.953000000000000114e+01
-5.780000000000000249e+00
-2.016000000000000014e+01
-4.743999999999999773e+01
4.738000000000000256e+01
-1.331999999999999886e+02
4.296000000000000085e+01
-9.226000000000000512e+01
-7.562000000000000455e+01
2.020800000000000125e+02
-2.471000000000000085e+01
-4.090999999999999659e+01
-8.946999999999999886e+01
6.242999999999999972e+01
-2.132000000000000028e+01
3.857000000000000028e+01
3.328999999999999915e+01
-1.469999999999999929e+01
-8.745000000000000284e+01
8.367000000000000171e+01
-3.447999999999999687e+01
-5.678999999999999915e+01
9.890000000000000568e+00
-4.331000000000000227e+01
-2.276999999999999957e+01
-1.338000000000000078e+01
4.161999999999999744e+01
-4.152000000000000313e+01
-1.225000000000000000e+01
8.230000000000000426e+00
5.203999999999999915e+01
-4.860999999999999943e+01
1.000000000000000056e-01
7.481999999999999318e+01
-2.358999999999999986e+01
2.203000000000000114e+01
1.857999999999999829e+01
-2.414000000000000057e+01
2.137999999999999901e+01
-1.983999999999999986e+01
1.336999999999999922e+01
8.789999999999999147e+00
-2.241000000000000014e+01
2.220000000000000195e+00
3.330000000000000071e+00
3.799999999999999822e+00
-2.330000000000000071e+00
-1.133000000000000007e+01
-1.311999999999999922e+01
-7.889000000000000057e+01
2.741000000000000014e+01
8.290000000000000568e+01
1.061200000000000045e+02
3.617000000000000171e+01
-1.033100000000000023e+02
-4.938000000000000256e+01
1.030000000000000027e+00
1.625000000000000000e+01
-1.536999999999999922e+01
2.039999999999999858e+01
2.221999999999999886e+01
-1.800000000000000044e+00
-4.379999999999999893e+00
2.375000000000000000e+01
-3.393999999999999773e+01
1.790000000000000036e+00
4.507000000000000028e+01
-6.159000000000000341e+01
-3.033999999999999986e+01
3.914000000000000057e+01
2.153999999999999915e+01
-2.500000000000000000e+01
-2.000000000000000000e+00
3.464999999999999858e+01
1.753000000000000114e+01
1.350999999999999979e+01
6.651999999999999602e+01
-5.453000000000000114e+01
2.408999999999999986e+01
-6.170000000000000284e+01
9.799999999999999822e-01
5.360000000000000320e+00
-5.606000000000000227e+01
-4.128000000000000114e+01
3.729999999999999716e+01
1.541399999999999864e+02
5.225999999999999801e+01
-2.389000000000000057e+01
2.707000000000000028e+01
9.659000000000000341e+01
-2.349300000000000068e+02
-3.160000000000000142e+00
3.563999999999999773e+02
-3.936999999999999744e+01
-1.654199999999999875e+02
4.922999999999999687e+01
-2.657000000000000028e+01
5.868999999999999773e+01
-2.133999999999999986e+01
1.388000000000000078e+01
-2.339999999999999858e+01
4.667000000000000171e+01
-2.721999999999999886e+01
-1.056200000000000045e+02
4.835000000000000142e+01
-9.021999999999999886e+01
2.498999999999999844e+01
1.966000000000000014e+01
5.589999999999999858e+00
-1.780999999999999872e+01
-1.424000000000000021e+01
4.167999999999999972e+01
-1.422000000000000064e+01
1.041000000000000014e+01
2.076000000000000156e+01
2.194999999999999929e+01
-3.299999999999999822e+00
-3.019000000000000128e+01
2.692999999999999972e+01
1.327999999999999936e+01
6.443999999999999773e+01
-1.253999999999999915e+01
5.542000000000000171e+01
-6.129999999999999893e+00
1.360999999999999943e+01
2.953999999999999915e+01
-7.664000000000000057e+01
1.091999999999999993e+01
-9.689999999999999503e+00
-2.578999999999999915e+01
-2.657999999999999829e+01
-2.194000000000000128e+01
1.637999999999999901e+01
1.253799999999999955e+02
-3.939000000000000057e+01
-1.200999999999999943e+02
-2.591000000000000014e+01
7.450000000000000178e+00
5.500000000000000000e+00
1.771999999999999886e+01
-4.760000000000000142e+01
1.689000000000000057e+01
2.862000000000000099e+01
-7.975000000000000000e+01
-5.011999999999999744e+01
5.753999999999999915e+01
-6.620000000000000107e+00
7.229999999999999716e+01
1.903000000000000114e+01
-1.557000000000000028e+01
-1.534699999999999989e+02
7.037999999999999545e+01
-1.314000000000000057e+01
-4.339999999999999858e+00
3.831000000000000227e+01
-1.302999999999999936e+01
-3.378000000000000114e+01
-1.347700000000000102e+02
1.233299999999999983e+02
1.016800000000000068e+02
7.993000000000000682e+01
-1.425399999999999920e+02
5.150999999999999801e+01
-2.410999999999999943e+01
1.102999999999999936e+01
9.799999999999999822e-01
-3.402000000000000313e+01
3.622999999999999687e+01
-5.086999999999999744e+01
3.979999999999999982e+00
2.207000000000000028e+01
-6.239999999999999858e+01
2.219999999999999929e+01
-3.556000000000000227e+01
-1.685999999999999943e+01
7.199999999999999734e-01
-3.968999999999999773e+01
-2.912000000000000099e+01
1.025999999999999979e+01
1.555000000000000071e+01
-3.235999999999999943e+01
-1.664999999999999858e+01
-1.889000000000000057e+01
1.158999999999999986e+01
5.699999999999999512e-01
-7.137999999999999545e+01
-2.385000000000000142e+01
-4.872999999999999687e+01
6.423999999999999488e+01
-2.714000000000000057e+01
-8.484999999999999432e+01
-5.784000000000000341e+01
-6.600000000000000311e-01
-6.685999999999999943e+01
2.754499999999999886e+02
-1.097500000000000000e+02
-1.489000000000000057e+01
-1.516999999999999886e+02
-1.082000000000000028e+01
-8.910000000000000142e+00
2.587000000000000099e+01
-1.767000000000000171e+01
6.217999999999999972e+01
2.628999999999999915e+01
-5.865999999999999659e+01
5.699999999999999512e-01
8.376999999999999602e+01
-2.216000000000000014e+01
-5.288000000000000256e+01
-3.925999999999999801e+01
-3.066000000000000014e+01
-4.011999999999999744e+01
5.565999999999999659e+01
2.139999999999999858e+01
-4.349999999999999645e+00
-4.000999999999999801e+01
4.349999999999999645e+00
3.961999999999999744e+01
-1.305699999999999932e+02
7.620000000000000107e+00
2.626999999999999957e+01
2.419999999999999929e+00
3.371999999999999886e+01
-2.482999999999999829e+01
-5.879999999999999893e+00
-1.294999999999999929e+01
-3.051000000000000156e+01
3.818999999999999773e+01
3.503999999999999915e+01
2.810000000000000053e+00
7.500000000000000000e-01
-3.425000000000000000e+01
-8.756999999999999318e+01
-5.663000000000000256e+01
4.378999999999999915e+01
-2.951999999999999957e+01
5.693999999999999773e+01
7.928000000000000114e+01
-2.732999999999999829e+01
-5.286999999999999744e+01
2.023000000000000043e+01
7.545000000000000284e+01
-1.348000000000000043e+01
2.205000000000000071e+01
-2.285000000000000142e+01
-4.164999999999999858e+01
8.892000000000000171e+01
1.026999999999999957e+01
-1.400999999999999979e+01
-7.030000000000000249e+00
-6.540999999999999659e+01
2.295699999999999932e+02
-3.384000000000000341e+01
-9.287999999999999545e+01
9.039999999999999147e+00
4.427000000000000313e+01
-8.800000000000000044e-01
-1.774399999999999977e+02
8.067000000000000171e+01
-1.721000000000000085e+01
7.650000000000000000e+01
-1.016999999999999993e+01
1.630999999999999872e+01
-8.029999999999999361e+00
9.310000000000000497e+00
2.651000000000000156e+01
-1.080900000000000034e+02
-1.318199999999999932e+02
1.810000000000000000e+02
-1.305399999999999920e+02
1.097000000000000064e+01
2.189999999999999858e+01
6.700000000000000178e+00
7.659999999999999432e+01
3.903000000000000114e+01
-4.260999999999999943e+01
5.867000000000000171e+01
3.654999999999999716e+01
-2.717999999999999972e+01
1.213000000000000078e+01
1.292999999999999972e+01
-3.550999999999999801e+01
-1.751000000000000156e+01
-5.860000000000000320e+00
6.771999999999999886e+01
-2.205000000000000071e+01
-2.387000000000000099e+01
-3.682999999999999829e+01
4.975999999999999801e+01
-5.732000000000000028e+01
3.339000000000000057e+01
-2.526999999999999957e+01
4.581000000000000227e+01
-1.062300000000000040e+02
-3.021000000000000085e+01
1.057300000000000040e+02
-5.200000000000000000e+01
1.696999999999999886e+01
-2.487999999999999901e+01
1.479999999999999982e+00
-1.476999999999999957e+01
-6.129999999999999893e+00
1.222800000000000011e+02
-6.459999999999999432e+01
-1.059999999999999964e+01
1.183999999999999986e+01
-1.466000000000000014e+01
4.465999999999999659e+01
2.810999999999999943e+01
8.730000000000000426e+00
5.440000000000000391e+00
-1.391999999999999993e+01
-2.910000000000000142e+01
-9.500000000000000000e+00
2.912999999999999901e+01
4.878999999999999915e+01
3.492999999999999972e+01
-5.013000000000000256e+01
1.591999999999999993e+01
5.393999999999999773e+01
-4.295000000000000284e+01
-1.687999999999999901e+01
2.129999999999999893e+00
-9.000000000000000222e-01
2.223000000000000043e+01
-4.685999999999999943e+01
6.059999999999999609e+00
2.055999999999999872e+01
3.645000000000000284e+01
4.638000000000000256e+01
-1.180900000000000034e+02
-4.767000000000000171e+01
4.040999999999999659e+01
-7.919999999999999929e+00
-3.347999999999999687e+01
1.133000000000000007e+01
-5.831000000000000227e+01
1.024000000000000021e+01
9.084000000000000341e+01
-1.010699999999999932e+02
-6.074000000000000199e+01
9.154999999999999716e+01
-8.328000000000000114e+01
-5.414000000000000057e+01
-2.855999999999999872e+01
1.240000000000000036e+01
1.138000000000000078e+01
-5.019999999999999574e+00
-2.520000000000000018e+00
1.746000000000000085e+01
6.157999999999999829e+01
-4.360000000000000320e+00
2.683999999999999986e+01
-2.653999999999999915e+01
1.921000000000000085e+01
3.647999999999999687e+01
-1.001400000000000006e+02
-2.948999999999999844e+01
1.410200000000000102e+02
1.646500000000000057e+02
-3.313000000000000114e+02
2.075699999999999932e+02
5.253999999999999915e+01
2.037000000000000099e+01
2.223999999999999844e+01
3.158999999999999986e+01
-3.475999999999999801e+01
5.650000000000000355e+00
3.596999999999999886e+01
-6.421999999999999886e+01
-1.133000000000000007e+01
4.052000000000000313e+01
-2.603000000000000114e+01
-7.404999999999999716e+01
4.160999999999999943e+01
-2.492999999999999972e+01
4.899999999999999911e-01
1.892000000000000171e+01
-3.080999999999999872e+01
-2.960999999999999943e+01
1.043999999999999950e+01
6.509000000000000341e+01
-1.409999999999999964e+01
1.610999999999999943e+01
-1.751999999999999957e+01
-2.094999999999999929e+01
2.226999999999999957e+01
-5.025000000000000000e+01
1.264000000000000057e+01
-4.809999999999999609e+00
-6.570000000000000284e+00
2.998000000000000043e+01
2.062999999999999901e+01
-2.189000000000000057e+01
-3.375999999999999801e+01
-4.639999999999999680e+00
3.279999999999999716e+01
-1.531000000000000050e+01
-3.069999999999999840e+00
7.190999999999999659e+01
4.375999999999999801e+01
-1.030300000000000011e+02
4.599999999999999645e+00
-2.485999999999999943e+01
6.245000000000000284e+01
-4.164000000000000057e+01
7.920999999999999375e+01
1.862999999999999901e+01
3.734000000000000341e+01
-6.701999999999999602e+01
-6.221000000000000085e+01
8.809000000000000341e+01
1.484699999999999989e+02
-1.033499999999999943e+02
-8.665999999999999659e+01
-6.152000000000000313e+01
2.087000000000000099e+01
6.654999999999999716e+01
2.657000000000000028e+01
-9.739000000000000057e+01
-7.419999999999999929e+00
1.454499999999999886e+02
3.053999999999999915e+01
-1.108499999999999943e+02
-1.729999999999999982e+00
6.681999999999999318e+01
-2.919999999999999929e+00
8.380000000000000782e+00
-1.291999999999999993e+01
-5.249000000000000199e+01
-1.400000000000000133e-01
5.731000000000000227e+01
3.853999999999999915e+01
-1.305000000000000071e+01
-5.153000000000000114e+01
5.785000000000000142e+01
-2.128000000000000114e+01
-1.273000000000000043e+01
-4.120000000000000284e+01
-1.844000000000000128e+01
-1.717000000000000171e+01
-8.980000000000000426e+00
3.019000000000000128e+01
5.610000000000000320e+00
-1.828999999999999915e+01
9.929999999999999716e+01
-5.460999999999999943e+01
-4.239999999999999858e+01
3.083999999999999986e+01
-3.060000000000000053e+00
5.839000000000000057e+01
2.339999999999999858e+00
3.060000000000000142e+01
-6.601999999999999602e+01
-4.852000000000000313e+01
3.180000000000000160e+00
-5.192000000000000171e+01
3.460999999999999943e+01
-4.239000000000000057e+01
-9.368000000000000682e+01
-1.169099999999999966e+02
4.910999999999999943e+01
5.903000000000000114e+01
-7.280000000000000249e+00
-1.564000000000000057e+01
1.659999999999999920e+00
6.929999999999999716e+00
5.910000000000000142e+00
7.059999999999999609e+00
-1.773999999999999844e+01
-6.070000000000000284e+00
2.000000000000000111e-01
2.050000000000000000e+01
-2.914999999999999858e+01
-2.366000000000000014e+01
5.089999999999999858e+00
1.900000000000000000e+01
-1.433999999999999986e+01
-1.402999999999999936e+01
-4.815999999999999659e+01
-3.499000000000000199e+01
-1.576999999999999957e+01
-8.050000000000000711e+00
-1.785999999999999943e+01
1.679999999999999938e+00
9.329000000000000625e+01
5.611999999999999744e+01
-4.496000000000000085e+01
-4.596000000000000085e+01
2.094999999999999929e+01
9.798999999999999488e+01
-5.853999999999999915e+01
8.795000000000000284e+01
-2.237999999999999901e+01
1.260000000000000009e+00
-2.790000000000000036e+00
-4.559000000000000341e+01
1.377800000000000011e+02
-2.192000000000000171e+01
-1.014000000000000057e+01
-3.777000000000000313e+01
-1.830000000000000071e+01
-4.410000000000000142e+00
1.946999999999999886e+01
2.737000000000000099e+01
-4.221000000000000085e+01
-6.860000000000000320e+00
3.247999999999999687e+01
5.570000000000000284e+00
1.100999999999999979e+01
5.870000000000000107e+00
5.559999999999999609e+00
-2.389000000000000057e+01
1.522000000000000064e+01
2.859999999999999876e+00
-2.860000000000000142e+01
1.484999999999999964e+01
-8.150000000000000355e+00
-1.528999999999999915e+01
4.654999999999999716e+01
-1.120000000000000107e+00
-2.951999999999999957e+01
-3.229999999999999982e+00
2.253999999999999915e+01
-7.809999999999999609e+00
-2.180000000000000071e+01
3.900000000000000133e-01
-1.750000000000000000e+00
-1.308000000000000007e+01
-6.540000000000000036e+00
1.515000000000000036e+01
-6.099999999999999867e-01
-2.262999999999999901e+01
2.566000000000000014e+01
6.429999999999999716e+00
-2.275000000000000000e+01
5.849999999999999645e+00
1.191999999999999993e+01
-3.810000000000000053e+00
-2.344999999999999929e+01
1.591000000000000014e+01
3.560000000000000053e+00
-1.805999999999999872e+01
-4.330000000000000071e+00
-1.025999999999999979e+01
1.767999999999999972e+01
-2.529999999999999805e+00
1.007000000000000028e+01
4.089999999999999858e+00
-1.175999999999999979e+01
1.040000000000000036e+00
2.019000000000000128e+01
7.509999999999999787e+00
-5.519999999999999574e+00
2.582999999999999829e+01
-3.080000000000000071e+00
-3.120000000000000107e+00
-1.567999999999999972e+01
1.265000000000000036e+01
-1.463000000000000078e+01
-5.800000000000000000e+01
6.864000000000000057e+01
1.466500000000000057e+02
-2.284699999999999989e+02
2.196000000000000085e+01
-3.456000000000000227e+01
-2.237999999999999901e+01
5.681000000000000227e+01
7.500000000000000000e+00
-3.717000000000000171e+01
6.700000000000000400e-01
1.790000000000000036e+00
-1.441999999999999993e+01
-4.564999999999999858e+01
-3.599999999999999867e-01
4.029999999999999716e+01
1.484999999999999964e+01
5.179999999999999716e+00
-1.350999999999999979e+01
1.225000000000000000e+01
5.300000000000000266e-01
1.969999999999999973e+00
9.379000000000000625e+01
-6.909999999999999432e+01
-1.498799999999999955e+02
2.555000000000000071e+01
1.295200000000000102e+02
1.887999999999999901e+01
1.283999999999999986e+01
-4.865999999999999659e+01
-1.388000000000000078e+01
5.228999999999999915e+01
-4.107999999999999829e+01
-2.757999999999999829e+01
2.896999999999999886e+01
-2.005999999999999872e+01
-6.346999999999999886e+01
-3.529999999999999805e+00
5.192000000000000171e+01
1.280000000000000027e+00
1.132000000000000028e+01
2.728999999999999915e+01
4.678999999999999915e+01
3.037000000000000099e+01
2.330000000000000071e+00
5.679999999999999716e+00
9.310000000000000497e+00
-1.586999999999999922e+01
-2.870000000000000107e+00
1.926000000000000156e+01
4.957000000000000028e+01
-6.034000000000000341e+01
6.820000000000000284e+00
5.759999999999999787e+00
-1.286999999999999886e+02
-7.950000000000000178e+00
7.080000000000000071e+00
-1.800000000000000044e+00
1.851000000000000156e+01
1.616000000000000014e+01
-3.556000000000000227e+01
-1.221000000000000085e+01
-8.315999999999999659e+01
5.217999999999999972e+01
-5.089999999999999858e+01
1.278900000000000006e+02
5.181000000000000227e+01
2.076999999999999957e+01
-4.375000000000000000e+01
-2.282000000000000028e+01
-1.639999999999999858e+01
-2.596999999999999886e+01
8.846999999999999886e+01
2.609999999999999876e+00
-6.110000000000000320e+00
3.996000000000000085e+01
-2.089000000000000057e+01
-2.799999999999999822e+00
-2.750000000000000000e+00
-1.950000000000000000e+01
-1.150999999999999979e+01
-3.010000000000000142e+01
-3.379999999999999893e+00
3.652000000000000313e+01
-2.123999999999999844e+01
5.182999999999999829e+01
-3.272999999999999687e+01
-1.495900000000000034e+02
7.717000000000000171e+01
3.299999999999999822e+00
-2.789000000000000057e+01
1.673000000000000043e+01
1.639999999999999858e+01
2.730999999999999872e+01
-6.904999999999999716e+01
1.958999999999999986e+01
2.160000000000000142e+00
-1.869999999999999929e+01
1.994999999999999929e+01
2.312000000000000099e+01
-1.760000000000000142e+01
7.940000000000000391e+00
2.096999999999999886e+01
2.094000000000000128e+01
2.137999999999999901e+01
6.525000000000000000e+01
-1.501100000000000136e+02
7.551999999999999602e+01
1.456000000000000050e+01
-6.895000000000000284e+01
-5.606000000000000227e+01
6.000000000000000000e+00
4.110999999999999943e+01
-8.364000000000000057e+01
4.400000000000000022e-01
-2.923000000000000043e+01
7.830000000000000071e+00
-4.115999999999999659e+01
-5.650999999999999801e+01
-6.099000000000000199e+01
5.719999999999999751e+00
4.846999999999999886e+01
-6.556000000000000227e+01
9.331999999999999318e+01
3.235999999999999943e+01
-5.589999999999999858e+01
-1.985000000000000142e+01
-4.643999999999999773e+01
5.924000000000000199e+01
6.165999999999999659e+01
-1.040000000000000036e+01
2.358999999999999986e+01
1.222000000000000064e+01
4.153000000000000114e+01
-3.442999999999999972e+01
5.509999999999999787e+00
-4.120000000000000107e+00
6.049999999999999822e+00
-1.949999999999999956e+00
-4.802000000000000313e+01
6.046000000000000085e+01
-3.504999999999999716e+01
-2.580000000000000071e+00
1.757999999999999829e+01
-1.723999999999999844e+01
5.740000000000000213e+00
3.854999999999999716e+01
-2.535000000000000142e+01
1.780000000000000071e+01
4.914000000000000057e+01
-2.048000000000000043e+01
-3.635999999999999943e+01
-1.707899999999999920e+02
1.267900000000000063e+02
7.790999999999999659e+01
-9.609999999999999432e+01
1.570000000000000062e+00
-2.376000000000000156e+01
-1.932999999999999829e+01
8.289999999999999147e+00
-7.595999999999999375e+01
5.032999999999999829e+01
-4.190999999999999659e+01
1.853000000000000114e+01
2.432000000000000028e+01
1.953999999999999915e+01
-3.055000000000000071e+01
3.009999999999999787e+00
-5.635000000000000142e+01
-6.099999999999999645e+00
-3.631000000000000227e+01
3.943999999999999773e+01
7.993000000000000682e+01
3.300000000000000000e+01
-5.303000000000000114e+01
1.950000000000000000e+01
-5.990000000000000213e+00
-4.642000000000000171e+01
9.359999999999999432e+01
-3.420000000000000284e+01
6.665999999999999659e+01
-4.299999999999999933e-01
-2.464999999999999858e+01
1.766000000000000014e+01
-7.409999999999999432e+01
1.850000000000000089e+00
3.986999999999999744e+01
2.610999999999999943e+01
-9.710000000000000853e+00
-3.286999999999999744e+01
-8.553000000000000114e+01
3.390000000000000124e+00
-5.467999999999999972e+01
-6.059999999999999609e+00
6.410000000000000142e+00
1.878000000000000114e+01
-5.642999999999999972e+01
-4.271999999999999886e+01
-1.090000000000000036e+01
3.080000000000000071e+01
3.100000000000000089e+00
8.226000000000000512e+01
-9.892000000000000171e+01
-8.109999999999999432e+01
2.242000000000000171e+01
6.954000000000000625e+01
-1.958999999999999986e+01
-5.017999999999999972e+01
6.481000000000000227e+01
5.917999999999999972e+01
-4.429999999999999716e+01
-3.865999999999999659e+01
-2.094999999999999929e+01
8.582999999999999829e+01
-1.737999999999999901e+01
2.660000000000000142e+01
1.146000000000000085e+01
-1.753999999999999915e+01
6.570000000000000284e+00
-4.875999999999999801e+01
9.190000000000000568e+01
-6.732999999999999829e+01
-1.281800000000000068e+02
4.075000000000000000e+01
-3.400000000000000244e-01
3.815999999999999659e+01
1.399999999999999911e+00
-7.931000000000000227e+01
1.914999999999999858e+01
3.026000000000000156e+01
1.382000000000000028e+01
1.721999999999999886e+01
1.145000000000000000e+02
5.210999999999999943e+01
3.500999999999999801e+01
-7.934000000000000341e+01
-7.698000000000000398e+01
-3.809000000000000341e+01
-2.101500000000000057e+02
2.509300000000000068e+02
1.240000000000000036e+01
5.784000000000000341e+01
-1.598000000000000043e+01
-1.929999999999999938e+00
-3.246000000000000085e+01
7.751999999999999602e+01
4.469999999999999751e+00
-6.557999999999999829e+01
7.551999999999999602e+01
9.300000000000000711e+00
5.190000000000000391e+00
-2.628999999999999915e+01
-2.740000000000000213e+00
-8.640000000000000568e+00
2.444000000000000128e+01
2.757999999999999829e+01
-2.617999999999999972e+01
-4.489000000000000057e+01
2.514000000000000057e+01
9.206999999999999318e+01
-1.509300000000000068e+02
7.879999999999999893e+00
-4.138000000000000256e+01
2.241000000000000014e+01
-1.048000000000000043e+01
-1.276999999999999957e+01
-2.139999999999999858e+01
-1.000000000000000000e+00
6.459999999999999964e+00
8.570000000000000284e+00
-1.233999999999999986e+01
-2.932999999999999829e+01
-4.299999999999999822e+00
8.740000000000000213e+00
2.339999999999999858e+00
3.272999999999999687e+01
2.219999999999999929e+01
-8.720000000000000639e+00
-3.781000000000000227e+01
1.106000000000000050e+01
3.206000000000000227e+01
4.815999999999999659e+01
1.480000000000000071e+01
-6.335000000000000142e+01
3.506000000000000227e+01
-8.840000000000000568e+01
-9.880000000000000782e+00
4.959000000000000341e+01
9.019999999999999574e+00
3.600000000000000000e+01
-2.275000000000000000e+01
8.820000000000000284e+00
4.028999999999999915e+01
5.090999999999999659e+01
-8.573999999999999488e+01
-2.053199999999999932e+02
7.300000000000000000e+01
4.378000000000000114e+01
-3.628999999999999915e+01
3.764000000000000057e+01
-1.819999999999999929e+01
-5.732999999999999829e+01
-1.953999999999999915e+01
1.332000000000000028e+01
-5.214000000000000057e+01
5.074000000000000199e+01
6.257000000000000028e+01
-4.315999999999999659e+01
-3.101999999999999957e+01
6.784000000000000341e+01
1.903999999999999915e+01
-1.182000000000000028e+02
-3.303999999999999915e+01
-4.846999999999999886e+01
-1.046800000000000068e+02
-3.790000000000000036e+00
3.621000000000000085e+01
-9.651999999999999602e+01
8.498999999999999488e+01
-8.401000000000000512e+01
-1.080600000000000023e+02
-4.825000000000000000e+01
2.451000000000000156e+01
7.519999999999999574e+00
-1.248000000000000043e+01
-1.540000000000000036e+01
3.592000000000000171e+01
-1.925000000000000000e+01
-6.470999999999999375e+01
-3.474000000000000199e+01
7.373000000000000398e+01
8.499999999999999778e-01
-3.420000000000000284e+01
1.191800000000000068e+02
-7.959999999999999964e+00
-4.835000000000000142e+01
7.293000000000000682e+01
-8.334999999999999432e+01
-7.580000000000000071e+00
-3.971000000000000085e+01
6.046999999999999886e+01
5.899999999999999689e-01
-3.839999999999999858e+00
-2.319000000000000128e+01
5.435999999999999943e+01
-2.496999999999999886e+01
-5.360000000000000320e+00
3.917000000000000171e+01
8.150000000000000355e+00
3.235000000000000142e+01
1.925000000000000000e+01
-1.399399999999999977e+02
2.548000000000000043e+01
-2.962000000000000099e+01
2.660000000000000142e+00
2.160000000000000142e+00
-1.259999999999999964e+01
-1.173000000000000043e+01
1.476999999999999957e+01
8.900000000000000355e+00
-8.310000000000000497e+00
1.796999999999999886e+01
9.130000000000000782e+00
1.070000000000000062e+00
2.229999999999999982e+00
7.660000000000000142e+00
3.781000000000000227e+01
-1.755000000000000071e+01
-1.387700000000000102e+02
9.230000000000000426e+00
4.856000000000000227e+01
8.880000000000000782e+00
3.073999999999999844e+01
1.955000000000000071e+01
3.350000000000000089e+00
-5.330000000000000071e+00
-2.476999999999999957e+01
5.221000000000000085e+01
3.098000000000000043e+01
9.070000000000000284e+00
1.493400000000000034e+02
-1.060600000000000023e+02
-2.027800000000000011e+02
-6.177000000000000313e+01
1.268499999999999943e+02
1.309999999999999964e+01
-1.571000000000000085e+01
-1.803000000000000114e+01
1.552400000000000091e+02
-5.768999999999999773e+01
-5.924000000000000199e+01
4.389999999999999680e+00
-8.210000000000000853e+00
-4.599999999999999645e+00
1.096000000000000085e+01
1.841000000000000014e+01
4.567999999999999972e+01
1.115300000000000011e+02
-5.589999999999999858e+01
-4.600000000000000000e+01
-2.012000000000000099e+01
-3.064000000000000057e+01
4.946999999999999886e+01
-4.400999999999999801e+01
-1.873000000000000043e+01
-3.839999999999999858e+00
-2.862999999999999901e+01
-3.101000000000000156e+01
-1.828999999999999915e+01
1.047999999999999972e+02
1.017999999999999972e+01
-4.400000000000000355e+00
-1.146299999999999955e+02
8.520000000000000284e+01
-3.839999999999999858e+00
4.060000000000000142e+01
-3.175000000000000000e+01
-4.495000000000000284e+01
1.419999999999999929e+00
-2.089999999999999858e+00
3.580000000000000071e+00
1.532299999999999898e+02
-1.947700000000000102e+02
-1.551999999999999957e+01
7.612999999999999545e+01
5.670000000000000284e+01
2.107000000000000028e+01
-5.402000000000000313e+01
-2.944000000000000128e+01
3.577000000000000313e+01
2.282999999999999829e+01
-4.240000000000000213e+00
-2.839999999999999858e+01
4.292000000000000171e+01
-9.000000000000000000e+01
8.099999999999999645e+00
7.293000000000000682e+01
-3.049999999999999822e+00
-3.782999999999999829e+01
-6.498000000000000398e+01
3.974000000000000199e+01
-5.967000000000000171e+01
-2.203999999999999915e+01
-2.492999999999999972e+01
-5.860000000000000320e+00
5.714000000000000057e+01
-2.432000000000000028e+01
-4.206000000000000227e+01
-4.769999999999999574e+00
2.382000000000000028e+01
-2.353999999999999915e+01
1.729999999999999982e+00
3.581000000000000227e+01
-9.320000000000000284e+00
-7.231999999999999318e+01
1.100000000000000000e+02
-1.673999999999999844e+01
-6.948999999999999488e+01
7.134999999999999432e+01
-1.139000000000000057e+02
8.473000000000000398e+01
2.569999999999999840e+00
-4.514999999999999858e+01
-1.281800000000000068e+02
2.985999999999999943e+01
2.580500000000000114e+02
6.250999999999999801e+01
-1.803600000000000136e+02
-3.105000000000000071e+01
1.975000000000000000e+01
-6.019999999999999574e+00
-3.092000000000000171e+01
1.841000000000000014e+01
7.570000000000000284e+00
-3.500000000000000000e+00
-6.450000000000000178e+00
2.842999999999999972e+01
1.438000000000000078e+01
-1.960999999999999943e+01
1.467999999999999972e+01
-7.099999999999999645e+00
-6.451000000000000512e+01
-2.064999999999999858e+01
1.480999999999999943e+02
-1.083999999999999986e+01
6.213000000000000256e+01
-2.348999999999999844e+01
-8.446999999999999886e+01
-1.475000000000000000e+01
-1.139000000000000057e+01
-9.709000000000000341e+01
2.396999999999999886e+01
-1.923000000000000043e+01
-2.153999999999999915e+01
-5.459000000000000341e+01
1.758999999999999986e+01
1.446000000000000085e+01
1.250000000000000000e+01
-6.092000000000000171e+01
-3.414000000000000057e+01
1.642800000000000011e+02
-5.393999999999999773e+01
-1.150999999999999979e+01
-7.859000000000000341e+01
1.634900000000000091e+02
-1.744999999999999929e+01
2.067999999999999972e+01
1.425999999999999979e+01
-2.189000000000000057e+01
-1.692000000000000171e+01
1.130000000000000071e+01
-7.303000000000000114e+01
-2.049199999999999875e+02
1.131899999999999977e+02
3.782000000000000028e+01
-2.333999999999999986e+01
-1.676000000000000156e+01
-2.932999999999999829e+01
-2.285000000000000142e+01
7.976000000000000512e+01
5.688000000000000256e+01
-7.370000000000000107e+00
1.053999999999999915e+01
-1.221400000000000006e+02
3.965999999999999659e+01
4.965999999999999659e+01
-6.043999999999999773e+01
-3.173000000000000043e+01
-7.548000000000000398e+01
-2.844000000000000128e+01
2.153000000000000114e+01
-1.053599999999999994e+02
-3.094999999999999929e+01
8.409000000000000341e+01
9.540000000000000568e+01
-1.258599999999999994e+02
3.960000000000000142e+01
-1.314000000000000057e+01
-2.376999999999999957e+01
-1.556000000000000050e+01
1.021000000000000085e+01
8.199999999999999512e-01
-4.628000000000000114e+01
6.732999999999999829e+01
-1.041999999999999993e+01
-8.300000000000000711e+00
8.230000000000000426e+00
1.307000000000000028e+01
-7.570000000000000284e+00
-2.259999999999999787e+00
2.251000000000000156e+01
7.450000000000000178e+00
2.803999999999999915e+01
1.313199999999999932e+02
-2.357299999999999898e+02
-5.825000000000000000e+01
5.059000000000000341e+01
-1.464000000000000057e+01
1.391000000000000014e+01
5.324000000000000199e+01
4.503000000000000114e+01
7.404999999999999716e+01
-8.240000000000000568e+01
-1.207199999999999989e+02
9.793000000000000682e+01
3.125000000000000000e+01
3.236999999999999744e+01
-5.957999999999999829e+01
-1.030000000000000071e+01
4.678000000000000114e+01
-2.037000000000000099e+01
-9.009999999999999787e+00
2.140000000000000124e+00
-1.130000000000000071e+01
7.765999999999999659e+01
-9.871999999999999886e+01
-1.409999999999999964e+01
4.139999999999999858e+01
-4.954999999999999716e+01
-4.740000000000000213e+00
9.080000000000000071e+00
3.563000000000000256e+01
-6.580000000000000071e+00
2.323999999999999844e+01
3.800999999999999801e+01
2.158000000000000114e+02
-4.677000000000000313e+01
-7.748999999999999488e+01
3.214999999999999858e+01
6.280000000000000249e+00
-7.309999999999999432e+01
6.584999999999999432e+01
-9.699999999999999734e-01
-4.964000000000000057e+01
4.389000000000000057e+01
2.053000000000000114e+01
3.810999999999999943e+01
-6.256000000000000227e+01
-1.144099999999999966e+02
8.320999999999999375e+01
-2.469999999999999929e+01
-1.330000000000000071e+00
1.128999999999999915e+01
5.407000000000000028e+01
-2.232500000000000000e+02
-4.761999999999999744e+01
4.085000000000000142e+01
1.400000000000000133e-01
-5.417000000000000171e+01
9.079999999999999716e+01
3.489000000000000057e+01
8.320000000000000284e+00
-3.414000000000000057e+01
-3.023999999999999844e+01
-1.510000000000000009e+00
-2.875000000000000000e+01
4.988000000000000256e+01
5.649000000000000199e+01
-1.021599999999999966e+02
-4.449000000000000199e+01
4.396000000000000085e+01
2.117000000000000171e+01
-3.044000000000000128e+01
2.621000000000000085e+01
3.764000000000000057e+01
1.451999999999999957e+01
-1.925000000000000000e+01
5.480000000000000426e+00
-2.723000000000000043e+01
-7.809999999999999609e+00
8.609999999999999432e+00
4.267999999999999972e+01
1.162099999999999937e+02
-2.746999999999999886e+01
9.990000000000000213e+00
-2.160000000000000142e+00
3.339999999999999858e+00
7.179999999999999716e+00
3.793999999999999773e+01
-5.550000000000000000e+01
5.104999999999999716e+01
-3.324000000000000199e+01
-7.801999999999999602e+01
3.728999999999999915e+01
-5.774000000000000199e+01
4.385000000000000142e+01
-1.921000000000000085e+01
-2.069999999999999929e+01
1.019300000000000068e+02
4.310999999999999943e+01
-2.358999999999999986e+01
-4.595000000000000284e+01
-3.413000000000000256e+01
-3.130000000000000071e+01
-6.431999999999999318e+01
-1.223700000000000045e+02
7.895000000000000284e+01
2.377800000000000011e+02
-6.604000000000000625e+01
-3.931000000000000227e+01
1.386599999999999966e+02
-8.182999999999999829e+01
-7.993999999999999773e+01
1.633999999999999986e+01
-5.500000000000000000e+00
1.121000000000000085e+01
-4.035000000000000142e+01
1.039000000000000057e+01
3.657999999999999829e+01
-7.330000000000000071e+00
-2.119000000000000128e+01
1.783999999999999986e+01
4.219999999999999751e+00
-3.510000000000000142e+01
2.621000000000000085e+01
2.216000000000000014e+01
-2.007000000000000028e+01
-3.331000000000000227e+01
2.560000000000000053e+00
-1.739999999999999991e+00
-6.769999999999999574e+00
-4.780000000000000249e+00
-6.150000000000000355e+00
-3.477000000000000313e+01
3.688000000000000256e+01
1.583000000000000007e+01
-4.440999999999999659e+01
6.919999999999999929e+00
2.160999999999999943e+01
-1.910000000000000142e+01
2.709999999999999964e+00
1.448000000000000043e+01
-9.232999999999999829e+01
-1.603000000000000114e+01
5.364000000000000057e+01
-1.064000000000000057e+01
-5.352000000000000313e+01
9.919999999999999929e+00
1.366000000000000014e+01
-2.525000000000000000e+01
-1.341999999999999993e+01
-2.401999999999999957e+01
-7.450000000000000000e+01
-3.897999999999999687e+01
1.098100000000000023e+02
-7.382999999999999829e+01
-3.459000000000000341e+01
-4.877000000000000313e+01
4.907999999999999829e+01
-2.169999999999999929e+00
-1.719999999999999929e+01
1.662000000000000099e+01
-6.259999999999999787e+00
6.942000000000000171e+01
-2.946000000000000085e+01
-4.835999999999999943e+01
6.122999999999999687e+01
8.320000000000000284e+00
-3.098999999999999844e+01
4.728999999999999915e+01
-2.255999999999999872e+01
-3.882000000000000028e+01
-2.370000000000000107e+00
-1.639999999999999902e+00
-1.191999999999999993e+01
-1.905999999999999872e+01
8.659000000000000341e+01
-6.412000000000000455e+01
-3.892000000000000171e+01
3.725999999999999801e+01
-3.490999999999999659e+01
-6.078000000000000114e+01
4.016499999999999773e+02
-1.192699999999999960e+02
3.740999999999999659e+01
-8.710999999999999943e+01
1.236599999999999966e+02
1.095499999999999972e+02
-2.976000000000000156e+01
6.053999999999999915e+01
-3.185899999999999750e+02
-1.313700000000000045e+02
-1.640800000000000125e+02
-3.810000000000000053e+00
-8.248999999999999488e+01
3.220000000000000284e+01
3.254999999999999716e+01
6.479000000000000625e+01
-1.201999999999999957e+01
-8.548999999999999488e+01
-7.299999999999999822e+00
1.762999999999999901e+01
7.990000000000000213e+00
-3.620000000000000284e+01
3.752000000000000313e+01
2.696999999999999886e+01
-6.657999999999999829e+01
1.186999999999999922e+01
8.057999999999999829e+01
3.221999999999999886e+01
-6.934000000000000341e+01
-4.884000000000000341e+01
2.353000000000000114e+01
3.836999999999999744e+01
4.160000000000000142e+01
-7.030000000000000249e+00
-6.756999999999999318e+01
4.769999999999999574e+00
2.894000000000000128e+01
1.667000000000000171e+01
8.900000000000000133e-01
1.065000000000000036e+01
-4.420000000000000284e+01
3.470000000000000195e+00
4.610000000000000142e+01
1.728999999999999915e+01
-3.325000000000000000e+01
9.710000000000000853e+00
4.382999999999999829e+01
-2.262999999999999901e+01
-4.592999999999999972e+01
6.559999999999999609e+00
1.255900000000000034e+02
-4.299999999999999933e-01
4.435999999999999943e+01
9.835999999999999943e+01
-7.704999999999999716e+01
-6.113000000000000256e+01
5.446999999999999886e+01
-2.520000000000000018e+00
-4.856000000000000227e+01
-1.679999999999999938e+00
2.607999999999999829e+01
-3.919999999999999929e+00
-1.844000000000000128e+01
1.313000000000000078e+01
1.251999999999999957e+01
1.617000000000000171e+01
-3.114000000000000057e+01
1.409999999999999964e+01
1.572000000000000064e+01
-4.669999999999999929e+00
-1.225999999999999979e+01
2.380999999999999872e+01
1.817000000000000171e+01
-1.083000000000000007e+01
3.259999999999999787e+00
2.401999999999999957e+01
-1.429999999999999938e+00
-2.378999999999999915e+01
-7.099999999999999645e-01
4.020000000000000284e+01
-1.075000000000000000e+01
-3.810000000000000142e+01
3.017999999999999972e+01
2.548000000000000043e+01
-2.014999999999999858e+01
1.171000000000000085e+01
1.389000000000000057e+01
-7.660000000000000142e+00
-2.870000000000000107e+00
-1.979999999999999982e+00
2.479999999999999982e+00
-1.172000000000000064e+01
1.449000000000000021e+01
5.820000000000000284e+00
-2.092999999999999972e+01
-2.180000000000000160e+00
1.265000000000000036e+01
-2.950000000000000178e+00
1.108999999999999986e+01
-1.620000000000000107e+00
1.113000000000000078e+01
3.560000000000000053e+00
-3.709999999999999964e+00
4.879999999999999893e+00
-3.392000000000000171e+01
-1.617999999999999972e+01
5.709999999999999964e+00
5.497999999999999687e+01
-3.315999999999999659e+01
-6.659999999999999432e+01
3.795899999999999750e+02
-5.704999999999999716e+01
-2.681000000000000227e+02
1.812000000000000099e+01
-7.780000000000000249e+00
3.819999999999999840e+00
3.246999999999999886e+01
-3.389000000000000057e+01
-9.799999999999999822e-01
2.287999999999999901e+01
-5.682999999999999829e+01
-2.366000000000000014e+01
6.568999999999999773e+01
3.082999999999999829e+01
-6.906000000000000227e+01
1.639000000000000057e+01
-2.971999999999999886e+01
-4.479100000000000250e+02
2.161399999999999864e+02
4.071999999999999886e+01
1.134000000000000057e+02
2.731299999999999955e+02
-1.936800000000000068e+02
-2.144199999999999875e+02
2.371800000000000068e+02
-8.640999999999999659e+01
-3.839999999999999858e+00
1.039000000000000057e+01
-4.764999999999999858e+01
-5.899999999999999689e-01
3.148999999999999844e+01
-1.015000000000000000e+02
-7.854000000000000625e+01
1.063299999999999983e+02
8.798000000000000398e+01
4.718999999999999773e+01
-5.682000000000000028e+01
-3.827000000000000313e+01
1.700000000000000000e+01
-9.093000000000000682e+01
3.663000000000000256e+01
-1.081000000000000050e+01
-6.152000000000000313e+01
3.865999999999999659e+01
-2.028999999999999915e+01
-5.346999999999999886e+01
-9.119999999999999218e+00
4.260000000000000142e+01
-1.090000000000000080e+00
1.885000000000000142e+01
1.080000000000000071e+01
-2.680000000000000071e+01
-1.819999999999999929e+01
-7.221999999999999886e+01
-8.654000000000000625e+01
-3.089000000000000057e+01
3.617999999999999972e+01
1.361800000000000068e+02
1.216000000000000014e+01
-1.757999999999999829e+01
1.138000000000000078e+01
-6.049999999999999822e+00
-2.835999999999999943e+01
6.070000000000000284e+00
1.034999999999999964e+01
2.569999999999999929e+01
-4.870000000000000107e+00
2.971999999999999886e+01
-3.025000000000000000e+01
3.913000000000000256e+01
2.055999999999999872e+01
-2.105000000000000071e+01
-2.418000000000000114e+02
1.318199999999999932e+02
1.915500000000000114e+02
7.625000000000000000e+01
-1.388600000000000136e+02
3.017000000000000171e+01
-2.917999999999999972e+01
-2.046999999999999886e+01
1.841000000000000014e+01
5.057999999999999829e+01
-8.380000000000000782e+00
-1.033000000000000007e+01
1.108499999999999943e+02
-1.335999999999999943e+01
-4.572999999999999687e+01
4.414000000000000057e+01
-3.342999999999999972e+01
-3.746999999999999886e+01
9.899999999999999911e-01
1.996999999999999886e+01
1.540000000000000036e+01
2.000000000000000000e+00
-2.999999999999999889e-02
2.632999999999999829e+01
3.990000000000000213e+00
-5.190000000000000391e+00
1.876000000000000156e+01
-3.781000000000000227e+01
-5.710999999999999943e+01
1.133199999999999932e+02
-8.831999999999999318e+01
1.710999999999999943e+01
4.675000000000000000e+01
-2.516000000000000014e+01
3.507200000000000273e+02
-1.895699999999999932e+02
-1.939399999999999977e+02
3.992999999999999972e+01
9.162999999999999545e+01
1.498000000000000043e+01
-2.389999999999999858e+01
7.675000000000000000e+01
-3.831000000000000227e+01
-1.550000000000000000e+01
-4.699999999999999734e-01
-6.018999999999999773e+01
3.317000000000000171e+01
6.092000000000000171e+01
-2.655999999999999872e+01
-3.910999999999999943e+01
-4.590999999999999659e+01
