1593633083.00
64.000000
-0.00
-0.00
-0.00
-0.00
-0.00
-0.00
-0.00
-0.00
-0.00
-0.00
0.00
0.01
0.01
-0.00
-0.03
-0.05
-0.05
0.00
0.13
0.36
0.66
1.01
1.37
1.72
2.06
2.40
2.79
3.24
3.80
4.42
5.06
5.66
6.20
6.68
7.15
7.68
8.31
9.14
10.09
11.04
11.88
12.56
13.14
13.76
14.65
15.96
17.91
20.32
22.90
25.38
27.58
29.57
31.68
34.32
37.81
42.54
48.15
54.10
59.83
64.97
69.58
74.14
79.34
85.71
93.76
103.00
112.62
121.73
129.77
136.75
143.30
150.75
157.77
166.64
177.95
191.79
206.97
220.57
228.25
225.36
208.53
176.87
132.76
80.04
23.07
-34.93
-92.40
-149.12
-205.21
-260.41
-313.88
-364.13
-410.20
-451.35
-486.97
-516.18
-537.63
-549.60
-550.38
-538.90
-514.90
-479.52
-434.80
-383.33
-327.77
-270.43
-213.15
-157.27
-103.84
-53.62
-7.47
33.89
69.85
100.07
124.52
143.47
157.47
167.20
173.47
176.99
178.37
177.98
175.98
172.35
166.98
159.90
151.39
142.07
132.74
124.16
116.71
110.24
104.05
97.23
89.09
79.60
69.44
59.82
51.92
46.32
42.69
39.93
36.63
31.65
24.54
15.71
6.30
-1.96
-7.14
-7.51
-2.18
8.46
22.64
37.63
50.61
59.49
63.48
63.24
60.58
57.82
56.87
58.36
61.00
61.97
58.42
49.23
36.18
23.23
14.40
11.31
11.99
12.13
7.81
-2.06
-14.97
-26.58
-33.42
-34.90
-33.27
-31.76
-32.48
-35.24
-38.18
-39.23
-37.57
-34.07
-30.58
-28.94
-29.96
-33.23
-37.23
-40.26
-41.11
-39.56
-36.45
-33.49
-32.63
-35.16
-40.93
-47.92
-52.71
-51.65
-42.45
-25.40
-3.57
18.25
35.32
44.73
46.10
41.28
33.32
25.23
19.25
16.60
17.36
20.58
24.63
27.85
29.38
29.90
31.46
36.30
45.93
60.19
77.15
93.63
105.66
109.07
100.39
78.15
44.48
5.89
-28.13
-48.29
-49.63
-33.85
-8.64
16.07
32.72
38.90
37.00
31.22
24.50
17.18
8.10
-3.11
-14.63
-23.02
-25.46
-21.65
-14.52
-8.77
-8.37
-14.57
-25.38
-36.75
-44.69
-46.97
-43.73
-37.04
-29.54
-23.40
-19.65
-18.16
-18.14
-18.59
-18.67
-17.81
-15.67
-12.11
-7.33
-1.99
2.89
6.11
6.89
5.24
2.09
-1.15
-3.28
-3.89
-3.46
-2.94
-3.05
-3.93
-5.17
-6.27
-7.17
-8.29
-10.20
-13.09
-16.43
-19.10
-19.95
-18.39
-14.73
-10.05
-5.74
-2.93
-2.09
-3.01
-5.01
-7.32
-9.34
-10.73
-11.38
-11.23
-10.25
-8.45
-5.89
-2.76
0.71
4.23
7.53
10.60
13.65
17.02
20.93
25.20
29.31
32.46
33.92
33.35
31.09
28.07
25.44
23.95
23.61
23.59
22.55
19.23
13.10
4.62
-4.94
-14.10
-21.92
-28.43
-34.36
-40.60
-47.59
-54.97
-61.64
-66.44
-68.59
-68.09
-65.24
-59.37
-48.54
-30.22
-2.62
33.93
76.39
120.17
160.13
192.18
214.58
227.29
230.27
223.04
205.07
176.50
139.39
96.47
49.79
0.43
-52.29
-110.25
-173.54
-237.61
-292.66
-325.34
-324.82
-287.98
-220.82
-137.88
-58.45
0.04
27.75
19.74
-15.64
-59.90
-99.84
-128.93
-141.22
-133.75
-106.81
-64.18
-12.74
40.22
83.20
107.23
112.44
105.17
92.60
80.10
71.12
67.64
70.45
80.48
94.22
107.82
117.73
122.03
120.95
116.03
108.72
94.04
70.75
39.27
4.81
-30.05
-61.65
-85.71
-99.15
-99.23
-86.70
-65.15
-41.20
-21.82
-12.94
-16.82
-31.36
-50.48
-65.88
-69.91
-57.45
-28.56
12.12
56.74
97.88
130.79
154.30
170.20
181.21
190.22
199.22
210.00
224.30
243.66
267.67
292.55
311.41
316.28
301.81
267.61
218.70
163.28
109.47
62.33
22.75
-11.38
-43.19
-75.10
-108.53
-144.25
-182.78
-224.02
-266.46
-306.78
-340.16
-361.82
-368.73
-360.76
-340.76
-313.25
-282.89
-253.30
-226.87
-205.10
-189.01
-179.05
-174.46
-172.74
-169.79
-161.18
-143.79
-117.22
-83.97
-48.46
-15.23
12.64
34.08
49.57
59.92
65.44
65.87
60.97
51.45
39.33
27.56
19.06
15.58
17.19
22.29
28.36
32.81
33.76
30.46
23.38
13.89
3.76
-5.33
-12.28
-16.76
-19.23
-20.79
-22.83
-26.63
-32.85
-40.85
-48.22
-50.90
-44.16
-24.37
9.21
53.54
102.30
147.75
183.17
204.73
211.99
207.13
193.40
173.99
151.47
128.04
105.86
86.96
72.72
63.10
56.46
50.01
40.95
27.66
10.33
-9.10
-27.85
-43.42
-54.43
-60.82
-63.58
-64.00
-63.05
-61.15
-58.21
-54.02
-48.51
-41.94
-34.80
-27.58
-20.59
-13.90
-7.43
-1.11
4.94
10.34
14.56
17.15
17.89
16.97
14.86
12.24
9.70
7.65
6.24
5.43
5.02
4.72
4.17
2.98
0.78
-2.58
-6.91
-11.65
-15.93
-18.83
-19.71
-18.50
-15.86
-13.06
-11.67
-12.99
-17.55
-24.75
-32.96
-39.93
-43.58
-42.68
-37.23
-28.40
-17.97
-7.72
1.16
8.20
13.52
17.49
20.46
22.60
23.89
24.25
23.53
21.56
18.16
13.28
7.18
0.64
-5.01
-8.13
-7.19
-1.35
9.13
22.80
37.29
49.94
58.51
61.68
59.36
52.55
42.99
32.71
23.50
16.61
12.56
11.09
11.28
11.85
11.50
9.29
4.97
-0.90
-7.19
-12.51
-15.76
-16.50
-15.01
-12.15
-8.95
-6.26
-4.46
-3.54
-3.24
-3.19
-3.10
-2.72
-1.93
-0.67
0.97
2.83
4.63
6.10
7.07
7.53
7.64
7.68
7.95
8.67
9.89
11.47
13.13
14.60
15.68
16.32
16.65
16.87
17.18
17.68
18.32
18.86
18.90
17.98
15.79
12.36
8.19
4.21
1.45
0.77
2.48
6.30
11.48
17.04
22.09
25.88
27.90
27.87
25.77
21.79
16.30
9.81
2.78
-4.49
-11.89
-19.47
-27.25
-35.22
-43.21
-50.89
-57.77
-63.24
-66.96
-68.91
-69.42
-69.02
-68.40
-68.30
-69.60
-73.09
-79.24
-88.05
-98.47
-108.09
-113.31
-110.52
-97.65
-75.26
-46.46
-15.97
11.01
30.05
38.79
37.34
27.86
13.87
-0.46
-10.82
-13.63
-7.70
5.01
20.08
32.22
36.83
31.28
15.42
-8.59
-32.69
-48.17
-50.03
-40.04
-24.96
-11.76
-4.43
-3.46
-6.45
-11.44
-14.43
-13.33
-7.84
1.06
11.35
20.69
27.07
29.56
28.78
25.44
20.47
15.66
12.83
12.53
13.80
14.50
12.40
6.33
-3.59
-16.70
-31.47
-46.69
-62.35
-78.53
-94.38
-107.49
-114.70
-114.00
-106.85
-97.30
-91.35
-95.49
-113.53
-144.79
-184.15
-222.22
-247.12
-255.95
-251.25
-234.88
-210.52
-180.95
-146.81
-107.35
-62.60
-15.91
25.19
52.72
61.84
53.60
36.36
22.75
24.54
48.19
93.25
153.64
221.77
290.17
350.78
395.19
415.07
405.20
367.22
311.63
254.79
213.48
198.11
208.75
236.60
267.89
289.41
292.64
275.91
242.41
198.61
152.41
111.22
81.51
66.53
65.53
74.58
89.29
104.83
117.00
122.87
120.76
111.84
98.43
83.07
68.18
56.73
49.16
43.15
34.92
21.36
3.68
-14.21
-27.62
-43.47
-62.35
-79.92
-91.11
-90.22
-84.01
-77.80
-73.61
-73.71
-76.84
-78.01
-73.29
-62.74
-52.07
-50.12
-62.07
-87.44
-119.76
-148.50
-161.52
-151.09
-111.75
-49.40
18.59
74.43
107.31
117.66
108.79
84.15
47.11
1.06
-50.96
-105.17
-156.44
-201.55
-241.01
-278.64
-318.14
-360.81
-403.94
-441.89
-468.45
-476.20
-460.57
-422.43
-368.19
-306.48
-244.91
-187.82
-128.82
-69.23
-14.13
30.40
61.16
79.94
92.48
104.03
118.78
139.45
163.05
187.93
213.15
237.96
261.02
280.19
292.91
297.19
291.85
276.18
252.46
224.74
197.52
174.26
156.65
144.95
138.73
136.93
137.48
138.83
139.45
137.72
132.26
122.41
108.87
93.84
79.05
64.56
49.01
29.98
5.53
-24.31
-57.32
-89.45
-116.20
-134.98
-145.46
-149.02
-148.12
-145.56
-144.05
-146.18
-153.73
-162.32
-166.98
-163.43
-150.77
-132.05
-112.09
-94.73
-81.76
-72.68
-65.52
-59.10
-53.42
-49.55
-48.98
-54.09
-64.72
-80.01
-98.09
-116.13
-131.18
-140.10
-140.23
-130.24
-110.75
-84.16
-54.42
-25.51
0.10
20.69
35.64
46.47
55.93
66.52
79.32
93.19
105.54
113.50
114.65
107.96
93.57
72.00
43.71
9.20
-30.53
-73.13
-114.46
-149.28
-172.45
-180.65
-173.87
-155.59
-131.50
-107.63
-88.42
-76.06
-70.96
-72.63
-80.38
-93.25
-109.35
-125.38
-137.14
-140.87
-134.63
-119.06
-96.80
-71.05
-44.18
-16.95
11.12
40.74
71.75
102.53
130.39
152.52
167.22
174.56
176.36
175.31
173.78
172.96
172.76
172.43
171.41
169.90
168.59
168.02
167.83
166.64
162.74
155.12
144.02
130.91
117.67
105.65
95.21
86.01
77.66
70.36
64.89
62.13
62.31
64.61
67.45
69.06
68.24
64.84
59.62
53.84
48.73
45.10
43.09
42.29
42.06
41.88
41.76
42.22
43.96
47.30
51.71
55.79
57.70
55.91
49.94
40.54
29.43
18.83
10.81
6.87
7.65
12.68
20.38
28.34
34.09
36.02
34.36
31.27
30.11
33.83
43.13
55.22
64.03
62.16
43.98
8.85
-37.26
-82.83
-114.86
-124.44
-111.06
-82.92
-53.20
-33.58
-29.19
-37.41
-50.83
-62.14
-67.50
-66.91
-62.44
-56.39
-50.92
-48.49
-51.71
-61.47
-74.60
-83.58
-79.18
-55.69
-15.19
31.58
69.51
86.06
76.97
47.18
7.18
-32.27
-63.74
-82.99
-87.99
-77.85
-53.08
-16.33
26.22
65.59
92.54
101.34
92.73
72.00
45.53
17.58
-10.29
-38.18
-65.31
-88.27
-101.23
-97.39
-74.14
-35.66
8.00
45.76
69.63
77.05
70.08
46.76
10.36
-31.52
-71.79
-108.60
-142.80
-175.54
-203.69
-221.82
-225.64
-213.33
-187.54
-150.99
-109.56
-67.62
-26.45
15.37
59.32
104.79
148.70
185.11
206.82
207.92
187.47
149.89
103.42
57.10
18.10
-9.45
-25.64
-33.83
-38.93
-44.28
-50.66
-56.65
-60.20
-59.85
-54.73
-44.61
-29.46
-9.79
13.26
37.04
57.28
68.91
68.17
54.37
30.33
1.26
-27.44
-51.69
-69.74
-81.67
-88.46
-90.92
-89.16
-82.86
-72.11
-58.14
-43.32
-30.33
-21.43
-17.58
-18.00
-20.36
-21.81
-20.37
-15.75
-9.09
-1.39
6.65
14.93
23.80
33.69
44.84
56.38
66.38
72.54
74.17
71.36
65.10
56.90
48.61
42.37
39.52
40.68
46.23
58.17
77.55
103.27
130.86
153.57
165.48
163.40
148.10
116.50
73.08
27.50
-11.27
-41.77
-73.33
-112.86
-161.25
-210.94
-250.80
-268.17
-254.91
-209.11
-137.15
-51.97
31.63
100.39
144.79
160.96
152.13
119.21
70.80
20.81
-19.40
-46.17
-62.69
-74.73
-88.58
-104.47
-121.21
-136.15
-147.04
-152.23
-149.65
-132.12
-97.57
-49.61
3.26
49.47
79.69
89.43
79.55
56.05
27.94
2.83
-14.44
-21.56
-18.35
-5.06
17.27
43.79
67.39
82.54
86.81
82.00
73.02
65.77
65.41
74.64
93.10
114.49
131.00
135.00
122.10
92.97
52.87
7.07
-33.89
-62.79
-78.02
-80.80
-72.80
-54.57
-27.27
4.65
33.82
54.39
64.43
65.78
63.24
60.53
58.61
55.15
45.50
26.44
-0.41
-30.43
-55.69
-69.48
-70.83
-63.09
-55.11
-52.63
-60.05
-79.53
-111.22
-154.10
-199.73
-239.12
-262.68
-252.59
-203.38
-126.23
-42.21
29.27
76.63
96.46
90.17
64.00
28.22
-5.76
-26.79
-26.40
-2.17
38.55
85.69
126.60
151.05
153.69
133.78
95.57
46.03
-1.24
-35.52
-51.90
-52.30
-42.43
-28.72
-16.87
-10.29
-9.77
-13.95
-21.13
-28.36
-31.58
-25.66
-6.85
24.27
61.25
93.41
110.11
104.85
79.16
41.79
5.00
-21.40
-34.06
-36.25
-34.66
-35.26
-41.03
-51.04
-61.63
-68.16
-67.37
-57.61
-39.77
-16.98
6.38
25.87
38.89
44.61
44.92
42.32
38.47
33.60
27.32
19.91
12.78
8.10
7.54
11.16
17.06
22.41
24.85
23.41
19.07
13.96
10.27
9.36
11.49
15.90
21.41
26.65
30.18
30.66
26.95
18.69
6.69
-6.85
-19.34
-28.18
-31.93
-30.60
-25.37
-18.07
-10.26
-3.03
3.02
7.36
9.61
9.70
8.40
7.64
9.76
16.37
27.08
38.97
47.35
47.79
38.25
20.11
-1.38
-20.39
-33.29
-40.23
-44.47
-50.18
-58.88
-69.01
-77.18
-80.25
-77.34
-69.71
-59.37
-47.65
-35.27
-23.28
-13.78
-10.26
-14.30
-24.02
-33.95
-37.43
-30.19
-12.86
9.25
28.94
40.91
44.22
41.72
37.96
35.86
36.40
38.50
40.01
38.86
33.94
25.80
16.18
7.40
1.39
-0.82
0.93
6.48
16.01
29.65
46.34
62.65
72.69
69.92
50.11
14.24
-31.14
-76.04
-110.93
-130.32
-134.14
-126.19
-111.25
-92.76
-71.84
-48.80
-24.59
-1.29
18.60
33.18
41.66
44.03
40.66
32.89
23.11
15.07
13.13
20.51
37.66
61.49
86.90
106.25
115.17
113.79
105.89
96.26
87.90
81.06
74.24
65.93
56.03
46.44
39.10
33.99
28.33
17.95
0.15
-23.78
-48.66
-67.77
-75.48
-70.39
-55.77
-37.68
-21.41
-8.79
2.08
14.02
27.79
41.21
49.49
47.58
32.58
5.16
-31.12
-67.61
-94.88
-108.14
-108.63
-101.17
-90.34
-78.93
-68.07
-58.21
-49.99
-45.11
-45.35
-50.08
-55.68
-55.58
-43.13
-15.55
23.29
63.27
91.56
99.00
86.66
62.64
39.73
29.16
35.40
55.09
80.16
102.17
114.46
115.73
106.86
88.86
62.08
27.41
-12.29
-51.31
-83.47
-106.60
-120.51
-128.07
-132.29
-133.53
-128.37
-111.41
-78.45
-30.55
24.58
74.92
107.58
113.94
92.69
50.28
-2.09
-51.44
-87.03
-102.92
-98.32
-77.46
-47.37
-15.72
11.86
29.02
31.50
17.49
-12.12
-53.50
-100.09
-143.06
-173.28
-183.99
-173.67
-144.89
-102.48
-51.05
6.49
68.21
131.33
190.20
236.68
261.71
260.39
234.33
190.66
139.12
88.42
44.29
8.58
-19.68
-44.12
-67.62
-90.71
-111.65
-126.86
-132.76
-127.00
-109.74
-79.31
-41.01
-3.78
27.00
55.00
86.33
121.62
157.00
182.87
192.89
184.84
162.22
132.46
96.73
59.04
23.47
-7.53
-33.57
-54.08
-68.40
-75.15
-73.43
-65.27
-53.88
-43.57
-38.05
-39.52
-47.53
-59.59
-71.74
-77.42
-71.98
-52.96
-22.19
15.17
52.86
86.36
113.65
132.09
144.45
149.34
143.28
121.98
83.03
28.00
-36.99
-103.51
-159.36
-192.10
-194.25
-164.30
-108.09
-37.48
32.44
86.96
115.23
112.37
79.57
22.09
-51.06
-128.16
-196.21
-242.94
-259.97
-245.34
-204.51
-148.95
-93.33
-50.92
-29.80
-31.51
-51.54
-81.81
-112.58
-134.26
-139.42
-124.72
-91.81
-45.65
8.21
65.95
124.58
182.25
236.85
284.42
318.79
332.25
321.10
288.82
245.65
201.50
163.63
135.62
118.01
109.88
107.91
109.71
114.31
121.34
124.75
117.22
94.44
56.98
8.95
-48.18
-113.52
-183.99
-252.26
-313.52
-362.31
-392.84
-400.77
-365.86
-285.00
-177.15
-81.18
-1.39
64.78
117.42
150.18
156.10
131.85
77.29
0.12
-82.67
-149.07
-186.00
-189.24
-162.43
-114.62
-57.21
0.60
45.35
68.80
73.95
67.19
55.60
44.59
34.68
25.39
15.34
3.86
-7.25
-14.80
-19.96
-25.33
-33.69
-46.13
-60.43
-71.81
-74.63
-63.54
-36.41
2.86
49.04
96.82
141.85
181.73
215.11
240.07
254.53
257.02
236.98
193.98
139.99
91.00
55.76
32.31
12.79
-8.33
-30.78
-49.77
-58.40
-54.49
-42.61
-30.85
-26.30
-32.77
-49.21
-70.29
-88.68
-96.70
-87.80
-63.62
-35.21
-11.60
1.39
2.03
-8.73
-27.93
-50.50
-71.34
-86.98
-95.37
-95.58
-89.25
-80.29
-73.92
-73.49
-78.09
-83.05
-82.16
-69.94
-43.27
-2.75
47.79
102.56
155.49
200.98
233.74
249.61
247.11
228.81
200.55
169.02
139.07
112.99
90.44
69.13
46.59
21.44
-6.29
-35.82
-67.07
-100.80
-136.67
-172.63
-205.90
-233.49
-252.62
-260.48
-253.93
-230.99
-192.34
-141.03
-83.40
-29.27
10.53
27.23
14.56
-22.39
-67.91
-110.49
-144.20
-163.04
-163.53
-145.30
-111.05
-65.33
-12.92
41.02
91.45
135.24
170.26
194.43
205.70
203.34
189.70
170.30
150.98
135.38
124.84
117.74
110.76
100.39
84.83
65.73
47.59
34.76
29.48
32.15
40.93
53.82
69.24
82.40
90.33
92.95
91.82
87.81
85.24
80.81
71.25
55.11
32.87
4.94
-25.74
-56.59
-86.15
-113.54
-136.50
-150.85
-154.25
-148.52
-137.60
-124.75
-111.56
-98.32
-84.68
-71.53
-60.12
-52.04
-48.57
-49.43
-52.75
-56.46
-58.58
-57.37
-52.10
-42.43
-28.65
-12.16
4.78
19.43
29.10
32.64
31.55
29.63
30.09
34.84
43.26
52.60
59.59
62.02
58.68
52.17
45.43
40.08
35.99
31.77
26.45
20.36
15.10
12.57
13.69
17.62
22.30
25.43
25.66
23.13
19.19
15.75
14.50
16.30
20.86
26.79
32.05
34.32
31.71
23.34
10.09
-5.61
-20.71
-32.92
-41.35
-46.59
-49.42
-50.19
-48.85
-45.51
-40.96
-37.07
-35.89
-38.62
-44.71
-52.90
-61.75
-70.23
-77.69
-81.95
-80.07
-69.09
-48.03
-19.22
11.97
39.36
58.74
69.68
74.94
77.86
79.96
79.76
74.18
61.30
42.30
21.30
3.27
-8.59
-14.29
-16.25
-17.51
-20.00
-23.80
-27.77
-30.74
-32.26
-32.67
-32.44
-31.53
-29.56
-26.45
-23.03
-20.96
-22.19
-28.08
-38.78
-52.78
-66.93
-77.12
-79.44
-71.42
-52.92
-26.11
5.27
36.22
61.38
77.05
82.40
79.30
71.20
61.81
53.76
47.97
43.66
39.33
33.97
28.25
23.88
22.65
25.47
31.88
40.10
47.47
51.35
50.27
44.90
36.90
27.85
18.88
10.70
3.89
-1.01
-3.51
-2.89
2.59
14.29
32.06
53.91
76.49
95.77
107.74
109.31
94.15
62.05
20.27
-20.70
-52.82
-72.61
-79.43
-73.89
-58.33
-37.00
-15.57
-0.51
2.38
-8.18
-27.65
-47.55
-58.04
-52.94
-31.25
3.24
44.12
84.03
117.04
139.24
151.21
155.33
151.40
140.31
120.95
95.09
66.03
39.09
16.49
-1.66
-16.94
-33.52
-54.95
-83.47
-115.68
-150.12
-185.29
-223.95
-269.34
-309.35
-332.41
-329.39
-295.76
-231.64
-155.92
-73.26
6.85
72.22
113.05
123.31
102.47
58.17
3.58
-48.56
-87.44
-110.54
-120.21
-120.74
-117.95
-115.80
-114.81
-112.09
-103.39
-83.26
-51.15
-11.16
28.72
57.89
67.91
55.89
24.89
-18.44
-65.91
-112.29
-154.21
-188.43
-211.15
-217.94
-205.59
-174.63
-130.38
-80.61
-33.12
8.10
44.09
78.79
115.90
155.80
194.45
224.95
240.80
238.63
219.73
189.56
155.40
123.70
98.26
79.82
66.92
57.45
49.88
43.89
40.05
39.04
40.87
44.52
48.29
50.54
50.47
48.36
45.12
41.48
37.39
32.11
24.94
16.12
7.18
0.44
-2.12
-0.05
5.10
10.15
11.63
7.24
-3.07
-16.80
-29.67
-37.17
-36.14
-25.83
-8.11
13.22
33.29
46.76
48.23
33.08
-1.05
-52.43
-114.23
-175.48
-224.06
-250.81
-252.56
-232.62
-198.47
-158.06
-116.70
-76.31
-36.77
1.87
38.09
69.30
93.26
109.55
119.72
126.22
130.81
133.58
133.19
127.83
116.81
101.32
84.17
68.80
58.02
53.17
54.05
59.14
66.12
72.28
75.03
72.59
64.55
52.18
38.05
25.08
15.39
9.62
7.08
6.59
7.37
9.50
13.49
19.49
26.66
33.23
37.24
37.52
34.28
29.05
23.96
20.86
20.57
22.59
25.42
27.20
26.56
23.13
17.63
11.49
6.06
2.04
-0.91
-3.87
-8.14
-14.45
-22.52
-30.95
-37.52
-39.88
-36.18
-25.74
-9.39
10.52
30.54
46.96
56.83
58.73
53.17
42.26
28.99
16.25
6.09
-0.53
-3.60
-3.73
-1.74
1.46
4.90
7.63
8.84
8.02
5.16
0.74
-4.38
-9.35
-13.51
-16.61
-18.80
-20.46
-22.02
-23.79
-25.87
-28.19
-30.56
-32.82
-34.90
-36.84
-38.73
-40.70
-42.78
-44.91
-46.94
-48.57
-49.43
-49.13
-47.31
-43.78
-38.57
-31.96
-24.37
-16.36
-8.44
-1.04
5.57
11.22
15.89
19.65
22.65
25.18
27.59
30.22
33.25
36.66
40.19
43.46
46.19
48.32
50.00
51.41
52.54
53.07
52.46
50.25
46.39
41.27
35.47
29.41
23.02
15.82
7.32
-2.53
-13.12
-23.29
-31.68
-37.38
-40.26
-40.81
-39.79
-37.76
-35.01
-31.74
-28.28
-25.12
-22.92
-22.28
-23.46
-26.08
-29.17
-31.52
-32.24
-31.08
-28.29
-24.71
-21.53
-19.73
-19.61
-20.69
-22.08
-23.02
-23.31
-22.53
-21.07
-20.04
-20.90
-24.45
-30.12
-35.89
-38.81
-35.58
-21.75
4.73
41.74
83.09
120.98
149.08
164.64
168.91
166.09
164.21
169.04
181.60
198.54
215.39
229.45
240.43
249.14
256.20
265.26
278.20
294.25
310.75
325.26
336.82
344.91
348.15
319.38
244.28
128.91
-1.54
-119.79
-210.18
-269.80
-303.23
-318.04
-321.57
-315.95
-302.93
-285.66
-268.96
-256.67
-249.02
-242.47
-231.68
-212.90
-181.08
-136.20
-83.92
-33.34
7.26
34.34
49.58
55.17
57.55
62.51
70.41
76.20
72.72
55.22
24.93
-11.51
-45.34
-69.19
-81.30
-83.05
-78.14
-70.37
-62.12
-53.26
-42.78
-30.57
-17.99
-7.47
-0.97
1.04
-0.13
-2.72
-4.61
-4.86
-4.32
-5.01
-9.92
-21.82
-42.94
-69.45
-98.51
-126.87
-151.26
-168.82
-177.34
-175.86
-164.57
-144.72
-118.51
-89.57
-61.38
-36.95
-18.38
-6.70
-2.05
-3.62
-9.69
-17.94
-26.54
-33.89
-39.10
-42.33
-44.78
-48.16
-54.01
-62.46
-72.87
-84.64
-97.61
-112.29
-129.43
-149.46
-172.07
-196.01
-217.91
-234.63
-244.93
-250.17
-253.28
-256.74
-261.26
-265.32
-265.74
-256.02
-231.18
-190.79
-140.08
-87.50
-40.94
-5.00
19.74
36.17
53.74
81.25
122.23
172.84
224.64
269.63
303.34
325.93
341.57
362.78
401.28
462.23
541.64
629.91
717.08
795.40
859.11
866.07
786.48
621.06
408.06
199.97
35.85
-69.50
-122.22
-142.01
-152.94
-168.47
-191.28
-215.54
-232.66
-235.45
-222.10
-198.06
-175.13
-166.23
-173.72
-190.15
-202.49
-199.51
-176.90
-139.37
-97.01
-61.13
-39.34
-29.80
-25.60
-20.76
-17.12
-17.87
-27.48
-47.04
-72.39
-95.34
-106.18
-99.52
-77.39
-48.12
-21.60
-5.57
-2.86
-11.28
-25.57
-39.27
-47.50
-48.22
-42.33
-32.33
-21.55
-12.56
-6.68
-3.87
-3.16
-3.24
-2.98
-1.73
0.63
3.54
6.30
8.62
10.75
13.42
17.62
23.52
30.99
39.35
47.29
53.33
56.30
55.67
51.82
45.82
38.99
32.42
26.46
20.68
14.14
6.08
-3.78
-15.14
-27.18
-38.47
-46.63
-48.69
-42.48
-28.43
-10.68
3.93
8.83
1.25
-16.01
-35.77
-50.41
-55.94
-53.89
-49.71
-49.03
-54.26
-63.52
-72.42
-76.89
-75.17
-67.58
-55.28
-38.82
-18.12
6.33
32.51
56.87
75.70
86.84
90.89
90.90
90.85
93.63
99.47
105.83
108.54
103.77
89.91
68.37
43.08
18.96
0.05
-11.74
-16.73
-16.79
-14.10
-10.27
-6.16
-2.21
0.98
2.46
1.22
-3.01
-9.48
-16.67
-22.74
-26.38
-27.28
-26.14
-24.21
-22.66
-22.08
-22.25
-22.40
-21.49
-18.75
-14.06
-8.00
-1.67
3.73
7.37
8.96
8.75
7.29
5.13
2.65
0.10
-2.29
-4.13
-4.90
-4.16
-1.80
1.81
5.90
9.58
12.15
13.30
13.19
12.21
10.79
9.16
7.40
5.55
3.71
2.06
0.68
-0.62
-2.38
-5.30
-9.83
-15.80
-22.41
-28.46
-32.78
-34.69
-34.19
-31.71
-27.83
-22.98
-17.35
-11.09
-4.51
1.80
7.02
10.42
11.63
10.73
8.11
4.19
-0.78
-6.73
-13.54
-20.76
-27.53
-32.73
-35.46
-35.46
-33.23
-29.80
-26.27
-23.36
-21.31
-19.95
-18.99
-18.21
-17.46
-16.59
-15.43
-13.80
-11.58
-8.71
-5.13
-0.78
4.37
10.14
16.05
21.32
25.08
26.81
26.42
24.34
21.19
17.48
13.50
9.32
5.05
1.05
-2.14
-3.99
-4.24
-3.10
-1.18
0.76
2.07
2.42
1.86
0.64
-0.90
-2.54
-4.15
-5.77
-7.40
-8.95
-10.25
-11.14
-11.58
-11.65
-11.58
-11.61
-11.89
-12.42
-13.13
-13.86
-14.43
-14.68
-14.37
-13.28
-11.17
-7.91
-3.47
2.00
8.23
14.82
21.31
27.21
32.07
35.56
37.58
38.27
37.96
37.01
35.72
34.24
32.61
30.82
28.92
27.02
25.27
23.75
22.44
21.18
19.83
18.24
16.36
14.23
11.97
9.70
7.62
5.92
4.79
4.24
4.05
3.72
2.65
0.37
-3.15
-7.34
-11.24
-13.87
-14.70
-13.84
-12.01
-10.24
-9.39
-9.87
-11.57
-13.88
-15.80
-16.04
-13.42
-7.35
1.57
11.50
19.87
24.41
24.21
20.04
14.00
8.32
4.35
2.08
0.62
-0.95
-2.85
-4.46
-4.90
-3.79
-1.68
0.13
0.34
-1.74
-5.77
-10.57
-14.52
-16.46
-16.12
-14.24
-12.36
-12.19
-15.00
-21.06
-29.31
-37.57
-43.20
-43.85
-38.13
-26.10
-9.30
9.38
26.28
37.84
41.63
37.18
26.29
12.44
-0.57
-9.90
-14.65
-15.60
-14.42
-12.51
-10.43
-8.03
-5.17
-2.33
-0.48
-0.57
-2.89
-6.77
-10.96
-14.18
-15.71
-15.77
-15.17
-14.98
-15.95
-18.24
-21.37
-24.53
-26.96
-28.33
-28.85
-29.22
-30.17
-32.12
-34.91
-37.79
-39.75
-39.96
-38.13
-34.65
-30.39
-26.42
-23.60
-22.41
-22.90
-24.83
-27.74
-30.83
-33.01
-33.03
-29.96
-23.67
-15.07
-5.92
1.91
7.19
9.80
10.55
10.64
10.93
11.64
12.46
13.01
13.21
13.30
13.64
14.35
15.17
15.66
15.43
14.42
12.99
11.83
11.66
12.92
15.61
19.25
22.98
25.91
27.34
26.96
24.94
21.81
18.26
14.95
12.33
10.55
9.54
9.09
8.96
8.95
8.95
8.87
8.65
8.21
7.45
6.32
4.84
3.15
1.41
-0.16
-1.36
-2.10
-2.41
-2.41
-2.31
-2.40
-2.91
-3.98
-5.56
-7.32
-8.69
-9.08
-8.13
-6.09
-3.82
-2.54
-3.28
-6.31
-10.76
-14.89
-16.69
-14.76
-9.00
-0.74
7.80
14.40
17.77
18.07
16.66
15.51
16.05
18.55
22.00
24.54
24.23
19.79
11.26
0.20
-10.36
-16.30
-13.46
0.49
24.59
53.77
79.62
92.81
86.43
58.84
14.67
-36.65
-84.10
-118.69
-135.95
-136.39
-124.14
-104.67
-82.82
-61.76
-43.12
-27.60
-15.72
-7.90
-4.21
-4.04
-5.91
-7.86
-8.27
-6.52
-3.16
0.43
2.65
2.47
0.00
-3.78
-7.43
-9.81
-10.51
-9.99
-9.26
-9.33
-10.66
-13.04
-15.66
-17.49
-17.78
-16.32
-13.53
-10.25
-7.46
-5.89
-5.84
-7.11
-9.20
-11.48
-13.42
-14.70
-15.15
-14.71
-13.36
-11.07
-7.91
-4.02
0.36
4.96
9.53
13.87
17.87
21.49
24.76
27.72
30.34
32.48
33.92
34.41
33.79
32.07
29.51
26.46
23.31
20.32
17.62
15.17
12.87
10.59
8.27
5.87
3.41
0.96
-1.43
-3.66
-5.66
-7.37
-8.77
-9.82
-10.58
-11.13
-11.62
-12.20
-12.94
-13.82
-14.72
-15.40
-15.57
-14.91
-13.18
-10.23
-6.12
-1.09
4.47
10.13
15.49
20.24
24.14
27.01
28.74
29.26
28.59
26.86
24.27
21.13
17.73
14.42
11.51
9.25
7.72
6.80
6.21
5.56
4.59
3.20
1.53
-0.20
-1.78
-3.11
-4.22
-5.24
-6.32
-7.60
-9.17
-11.02
-13.00
-14.85
-16.19
-16.64
-15.90
-13.88
-10.68
-6.56
-1.84
3.16
8.15
12.90
17.15
20.74
23.56
25.61
26.96
27.67
27.76
27.18
25.87
23.84
21.30
18.57
16.04
14.01
12.53
11.42
10.35
9.03
7.31
5.27
3.11
1.08
-0.67
-2.18
-3.57
-5.01
-6.60
-8.35
-10.20
-12.07
-13.90
-15.61
-17.05
-18.00
-18.15
-17.19
-14.92
-11.37
-6.81
-1.68
3.45
8.11
11.93
14.71
16.44
17.21
17.25
16.79
16.03
15.08
13.91
12.40
10.40
7.86
4.86
1.64
-1.53
-4.47
-7.15
-9.72
-12.41
-15.42
-18.84
-22.57
-26.46
-30.33
-34.03
-37.54
-40.96
-44.47
-48.38
-52.92
-58.17
-63.75
-68.73
-71.67
-70.96
-65.37
-54.58
-39.40
-21.67
-3.77
12.11
24.50
32.90
37.69
39.79
40.27
40.05
39.79
39.82
40.23
40.97
41.90
42.97
44.30
46.31
49.68
55.31
63.97
75.92
90.53
106.26
120.86
132.01
137.99
138.14
132.89
123.37
110.69
95.66
78.70
60.21
40.77
21.29
2.89
-13.39
-26.69
-36.40
-42.22
-44.09
-42.34
-37.76
-31.42
-24.37
-17.28
-10.33
-3.36
3.90
11.64
19.97
28.88
38.45
48.81
59.94
71.33
81.99
90.87
97.38
101.77
104.62
106.73
108.93
111.78
115.32
119.09
122.42
124.60
125.21
123.42
118.68
111.23
102.18
92.98
84.90
78.54
73.55
68.68
61.05
47.71
26.80
-1.80
-36.52
-74.48
-112.25
-147.54
-174.92
-190.04
-192.44
-186.00
-176.04
-166.40
-158.41
-151.12
-144.99
-138.17
-130.97
-125.15
-123.71
-130.29
-148.09
-178.23
-218.91
-260.48
-292.28
-304.86
-291.10
-248.87
-182.57
-102.32
-21.35
47.67
95.44
117.27
109.75
77.36
33.54
-7.21
-37.72
-58.47
-71.87
-77.20
-70.63
-48.37
-10.09
38.77
88.58
130.47
158.47
171.36
171.40
161.47
143.47
119.05
90.57
61.06
33.99
12.61
-1.90
-8.81
-8.57
-3.51
3.45
10.84
18.17
25.48
33.08
41.42
49.97
55.74
55.80
45.58
23.73
-6.02
-35.46
-55.45
-60.07
-49.67
-30.47
-10.39
5.48
16.92
27.92
43.73
66.72
94.57
120.74
137.96
142.04
132.74
112.88
86.24
55.15
20.30
-17.41
-56.05
-91.94
-120.26
-137.53
-142.76
-137.60
-125.58
-110.70
-95.39
-81.68
-71.52
-67.03
-68.01
-75.30
-88.72
-105.04
-122.05
-132.00
-128.49
-109.60
-73.73
-26.00
24.87
70.18
102.22
114.70
108.81
91.66
71.57
54.41
42.28
35.43
33.71
36.64
43.06
51.60
60.52
66.60
67.46
62.25
52.17
39.82
27.98
18.83
13.96
13.30
15.02
17.11
18.06
17.26
14.86
11.54
8.41
6.91
8.05
11.16
15.18
19.19
22.76
25.84
28.68
32.21
37.69
46.48
57.83
71.00
85.90
103.08
122.23
141.56
158.27
168.49
169.16
156.22
128.53
88.65
41.79
-7.40
-56.18
-103.02
-148.19
-191.76
-236.48
-283.48
-331.35
-376.42
-415.79
-448.33
-473.79
-493.63
-484.85
-432.97
-338.76
-217.67
-88.14
33.92
131.99
202.33
240.47
244.45
215.84
163.79
100.23
42.10
2.84
-11.66
-2.36
27.28
67.33
103.33
125.65
133.39
132.24
128.13
125.04
125.60
132.30
143.06
153.27
158.29
154.47
140.39
115.97
82.98
42.12
1.07
-32.75
-55.88
-68.79
-73.64
-72.05
-65.91
-57.44
-49.07
-43.30
-43.57
-51.90
-67.17
-85.85
-100.62
-104.76
-94.31
-69.14
-33.23
5.61
39.37
61.70
70.12
68.20
61.94
56.26
53.51
53.62
54.49
53.98
50.75
44.54
35.88
26.21
15.76
5.49
-3.00
-8.51
-10.68
-10.00
-7.39
-3.82
-0.46
1.44
1.16
-1.46
-6.12
-11.96
-17.83
-22.50
-25.10
-25.66
-25.04
-24.34
-24.50
-25.88
-28.06
-30.04
-30.53
-28.45
-23.41
-15.95
-7.18
1.52
8.96
14.48
18.07
20.20
21.55
22.68
23.82
24.96
25.95
26.67
27.07
27.18
27.09
26.82
26.35
25.61
24.47
22.87
20.75
18.12
15.04
11.63
8.05
4.42
0.81
-2.81
-6.51
-10.36
-14.31
-18.19
-21.64
-24.20
-25.45
-25.05
-22.87
-18.98
-13.68
-7.42
-0.74
5.82
11.75
16.73
20.58
23.32
25.04
25.87
25.89
25.10
23.53
21.28
18.56
15.65
12.81
10.22
7.86
5.58
3.17
0.43
-2.68
-6.13
-9.76
-13.42
-16.97
-20.32
-23.39
-26.17
-28.70
-31.06
-33.32
-35.48
-37.38
-38.76
-39.20
-38.35
-36.03
-32.28
-27.44
-21.99
-16.40
-11.03
-6.04
-1.49
2.61
6.20
9.15
11.31
12.61
13.09
12.87
12.18
11.24
10.24
9.33
8.60
8.08
7.77
7.62
7.53
7.38
7.04
6.38
5.28
3.66
1.51
-1.10
-4.04
-7.16
-10.30
-13.29
-15.93
-18.00
-19.28
-19.65
-19.09
-17.68
-15.55
-12.80
-9.50
-5.72
-1.59
2.57
6.31
9.08
10.44
10.23
8.66
6.32
3.93
2.13
1.12
0.64
0.01
-1.53
-4.43
-8.55
-13.15
-17.25
-20.07
-21.37
-21.64
-21.80
-22.78
-25.26
-29.42
-34.92
-40.96
-46.22
-49.01
-47.63
-41.02
-29.30
-14.10
1.92
16.06
26.80
34.43
40.88
48.56
58.94
71.58
84.11
93.31
96.58
93.09
84.01
71.80
59.07
47.50
37.53
28.69
20.46
12.71
5.95
0.82
-2.40
-4.16
-5.38
-7.05
-9.73
-13.25
-16.91
-19.82
-21.34
-21.39
-20.46
-19.33
-18.83
-19.39
-20.89
-22.80
-24.35
-24.98
-24.52
-23.28
-21.84
-20.74
-20.27
-20.30
-20.44
-20.19
-19.11
-17.04
-14.02
-10.35
-6.46
-2.84
0.10
2.08
3.09
3.31
3.13
2.92
3.00
3.51
4.48
5.82
7.42
9.17
10.97
12.65
14.06
15.01
15.41
15.31
14.85
14.24
13.61
12.93
12.03
10.69
8.76
6.26
3.41
0.46
-2.37
-5.03
-7.57
-10.06
-12.42
-14.40
-15.63
-15.75
-14.56
-12.12
-8.76
-4.90
-0.93
2.91
6.50
9.77
12.59
14.77
16.11
16.51
16.11
15.24
14.31
13.66
13.41
13.44
13.46
13.21
12.49
11.26
9.58
7.53
5.17
2.55
-0.23
-3.00
-5.52
-7.55
-8.97
-9.82
-10.31
-10.77
-11.45
-12.45
-13.67
-14.87
-15.80
-16.24
-16.12
-15.45
-14.26
-12.59
-10.47
-8.00
-5.37
-2.90
-0.96
0.14
0.29
-0.45
-1.85
-3.65
-5.66
-7.81
-10.12
-12.58
-15.04
-17.21
-18.68
-19.10
-18.29
-16.40
-13.82
-11.08
-8.71
-7.06
-6.25
-6.17
-6.55
-7.07
-7.44
-7.51
-7.20
-6.57
-5.68
-4.61
-3.47
-2.38
-1.49
-0.87
-0.48
-0.05
0.81
2.52
5.32
9.18
13.74
18.52
23.03
26.95
30.11
32.45
33.95
34.55
34.25
33.16
31.55
29.80
28.24
27.09
26.36
25.88
25.48
25.01
24.46
23.86
23.23
22.48
21.43
19.90
17.75
14.96
11.61
7.84
3.71
-0.77
-5.50
-10.26
-14.66
-18.32
-20.93
-22.41
-22.85
-22.39
-21.17
-19.24
-16.64
-13.47
-9.98
-6.53
-3.30
-0.36
2.35
4.85
7.06
8.83
9.97
10.39
10.14
9.69
9.60
10.21
11.51
13.23
15.06
16.70
17.86
18.31
18.41
18.73
19.71
21.43
23.64
25.99
27.93
28.66
27.38
24.46
20.97
18.19
16.98
17.57
19.87
23.29
26.76
29.11
30.61
32.58
37.04
46.04
61.03
82.80
110.32
140.08
159.08
155.34
124.01
70.73
7.56
-52.97
-100.10
-126.77
-130.82
-112.40
-74.33
-23.60
29.27
72.76
96.10
94.00
69.92
34.46
1.25
-17.86
-17.15
1.18
28.37
53.15
66.48
63.73
43.28
5.74
-46.55
-109.00
-174.59
-234.03
-276.52
-291.65
-273.21
-224.08
-156.40
-87.99
-35.82
-10.76
-15.17
-43.31
-84.23
-119.60
-133.70
-121.26
-90.51
-54.88
-23.64
0.27
17.68
29.64
35.83
32.48
19.63
1.29
-13.82
-15.91
0.39
32.64
71.14
103.12
117.22
106.93
72.45
21.05
-37.39
-94.89
-147.00
-191.06
-223.66
-240.30
-236.32
-209.14
-159.79
-93.83
-20.58
48.92
104.84
140.93
155.95
153.97
142.96
132.09
128.06
132.64
142.59
151.86
154.35
146.10
126.33
97.50
64.59
34.31
14.25
11.41
29.85
68.22
118.85
169.52
207.45
223.26
213.81
182.84
138.84
91.36
47.65
11.03
-18.49
-42.02
-61.19
-77.91
-93.92
-110.56
-128.58
-147.95
-167.55
-185.38
-198.58
-205.72
-208.18
-208.68
-209.25
-209.83
-207.99
-199.36
-178.67
-140.50
-83.35
-12.04
63.55
131.31
180.27
203.50
199.95
167.51
114.69
59.14
16.42
-8.95
-21.46
-27.65
-31.69
-34.76
-36.87
-37.34
-37.39
-41.38
-51.57
-67.90
-87.78
-106.93
-120.56
-124.49
-115.20
-92.26
-58.75
-18.92
24.37
70.71
118.44
165.07
207.08
240.80
262.54
269.80
263.15
246.22
223.73
198.08
168.62
133.39
92.44
48.59
6.83
-27.29
-49.72
-59.48
-59.73
-56.11
-54.15
-57.53
-68.26
-87.04
-113.02
-143.93
-170.33
-182.21
-175.79
-156.67
-133.88
-113.45
-97.16
-84.90
-76.95
-76.32
-84.56
-101.40
-122.41
-139.21
-142.88
-127.71
-93.16
-43.07
17.74
79.70
132.92
169.89
186.49
181.36
155.31
111.35
54.96
-6.11
-63.61
-109.66
-137.85
-144.28
-128.42
-93.08
-43.16
15.92
78.81
139.65
191.54
226.18
235.47
214.91
167.09
102.91
38.51
-10.91
-37.54
-43.19
-36.96
-29.33
-26.61
-29.02
-32.84
-34.68
-34.61
-35.93
-41.89
-52.58
-63.98
-70.19
-67.53
-57.45
-46.28
-41.89
-49.40
-68.12
-91.52
-109.73
-113.71
-98.84
-66.78
-24.96
15.95
45.60
57.46
50.99
31.84
9.71
-5.25
-6.26
7.94
33.25
62.66
89.35
109.00
120.47
124.76
123.64
118.71
111.15
101.76
91.01
79.13
65.89
50.77
33.44
14.23
-5.83
-25.63
-44.61
-63.32
-82.89
-104.05
-126.00
-146.05
-159.85
-162.54
-150.43
-122.59
-81.87
-34.70
10.35
44.98
63.70
65.54
54.22
36.62
20.20
10.45
9.47
16.12
27.39
40.04
51.66
60.86
66.54
67.40
61.71
48.11
26.64
-0.47
-28.88
-53.23
-68.70
-72.21
-62.89
-42.12
-13.07
19.65
50.65
74.55
87.11
86.27
72.81
50.20
23.59
-1.52
-20.41
-29.90
-28.60
-17.21
1.49
22.93
41.65
52.83
53.84
45.04
29.35
10.96
-6.42
-20.74
-31.61
-39.36
-43.95
-44.34
-38.88
-26.49
-7.90
13.83
33.93
47.52
51.44
45.52
32.47
16.61
1.98
-9.23
-16.87
-21.98
-25.30
-26.35
-23.57
-15.59
-2.62
12.95
27.26
36.77
39.91
37.81
33.48
30.21
29.82
31.90
34.35
34.74
31.80
26.16
19.95
15.72
15.12
18.07
22.94
27.41
29.61
28.87
25.84
21.92
18.50
16.36
15.50
15.35
15.15
14.34
12.62
9.95
6.42
2.13
-2.84
-8.40
-14.41
-20.56
-26.37
-31.25
-34.58
-35.97
-35.34
-33.00
-29.58
-25.89
-22.64
-20.29
-18.87
-18.09
-17.48
-16.65
-15.41
-13.79
-12.00
-10.28
-8.77
-7.53
-6.51
-5.66
-4.94
-4.39
-4.08
-4.03
-4.25
-4.63
-5.03
-5.32
-5.51
-5.74
-6.27
-7.34
-9.06
-11.32
-13.79
-16.09
-17.83
-18.68
-18.43
-16.90
-14.08
-10.06
-5.09
0.42
6.04
11.39
16.27
20.58
24.30
27.35
29.63
30.93
31.10
30.07
27.95
25.01
21.64
18.21
14.97
11.99
9.09
5.92
2.12
-2.43
-7.41
-12.12
-15.70
-17.48
-17.32
-15.63
-13.20
-10.90
-9.39
-9.04
-9.80
-11.28
-12.84
-13.70
-13.20
-11.03
-7.49
-3.43
0.13
2.50
3.70
4.35
5.26
6.89
9.18
11.75
14.30
16.90
19.88
23.32
26.71
28.93
28.69
25.27
18.96
11.03
3.22
-3.00
-6.96
-8.75
-8.97
-8.23
-6.97
-5.46
-3.96
-2.94
-2.93
-4.30
-7.00
-10.52
-14.13
-17.21
-19.53
-21.29
-22.84
-24.37
-25.69
-26.25
-25.47
-22.96
-18.73
-13.12
-6.72
-0.21
5.63
10.06
12.52
12.85
11.36
8.79
6.00
3.69
2.20
1.52
1.48
1.83
2.35
2.78
2.81
2.13
0.56
-1.84
-4.71
-7.57
-10.02
-11.91
-13.31
-14.47
-15.67
-17.09
-18.85
-20.93
-23.14
-25.11
-26.25
-25.93
-23.64
-19.30
-13.24
-6.22
0.94
7.54
13.29
18.17
22.39
26.06
29.14
31.45
32.76
33.00
32.28
30.90
29.24
27.60
26.09
24.65
23.16
21.58
20.02
18.71
17.80
17.16
16.26
14.35
10.82
5.56
-0.86
-7.42
-13.09
-17.25
-19.98
-21.83
-23.40
-24.95
-26.25
-26.82
-26.24
-24.48
-21.92
-19.05
-16.21
-13.43
-10.48
-7.13
-3.39
0.44
3.90
6.61
8.41
9.45
10.02
10.40
10.66
10.74
10.47
9.81
8.87
7.90
7.15
6.74
6.60
6.49
6.08
5.13
3.52
1.29
-1.36
-4.23
-7.12
-9.97
-12.87
-16.03
-19.72
-24.04
-28.87
-33.78
-38.09
-41.09
-42.15
-40.96
-37.53
-32.31
-26.01
-19.53
-13.76
-9.42
-6.83
-5.91
-6.13
-6.76
-7.07
-6.53
-4.95
-2.48
0.58
3.91
7.24
10.40
13.18
15.35
16.68
17.10
16.73
15.89
14.92
13.93
12.77
11.03
8.40
4.81
0.61
-3.56
-6.96
-9.05
-9.67
-9.07
-7.80
-6.56
-5.89
-6.08
-7.00
-8.22
-9.14
-9.18
-7.95
-5.32
-1.50
3.08
7.78
11.92
14.96
16.65
17.08
16.64
15.77
14.87
14.14
13.64
13.40
13.48
13.91
14.64
15.44
15.96
15.95
15.31
14.21
12.94
11.74
10.66
9.54
8.12
6.26
4.04
1.75
-0.26
-1.72
-2.64
-3.23
-3.77
-4.43
-5.19
-5.89
-6.38
-6.64
-6.78
-6.91
-7.00
-6.78
-5.83
-3.82
-0.64
3.48
8.08
12.68
16.92
20.53
23.29
24.93
25.13
23.70
20.74
16.70
12.29
8.19
4.83
2.31
0.46
-0.96
-2.08
-2.88
-3.27
-3.22
-2.84
-2.39
-2.15
-2.39
-3.23
-4.66
-6.58
-8.84
-11.31
-13.86
-16.41
-18.92
-21.38
-23.80
-26.18
-28.55
-30.89
-33.12
-35.08
-36.48
-37.01
-36.38
-34.37
-30.98
-26.37
-20.88
-14.97
-9.08
-3.61
1.19
5.19
8.38
10.76
12.34
13.09
13.00
12.18
10.87
9.41
8.14
7.23
6.62
6.12
5.48
4.57
3.46
2.27
1.18
0.23
-0.61
-1.43
-2.21
-2.85
-3.28
-3.51
-3.72
-4.17
-5.05
-6.30
-7.65
-8.68
-9.09
-8.77
-7.83
-6.38
-4.44
-1.90
1.37
5.31
9.58
13.68
17.16
19.95
22.31
24.70
27.40
30.26
32.70
34.04
33.98
32.78
31.17
29.98
29.64
29.96
30.41
30.46
29.90
28.68
26.64
23.20
17.67
9.90
0.96
-6.84
-10.73
-8.97
-1.89
7.83
16.25
19.92
17.33
9.22
-2.32
-15.34
-29.08
-43.89
-60.03
-76.53
-90.74
-99.17
-99.15
-90.31
-75.00
-57.36
-41.51
-29.88
-22.59
-17.81
-13.32
-7.86
-1.65
3.93
7.38
7.98
6.18
3.39
1.20
0.47
0.83
1.09
0.08
-2.53
-5.99
-8.87
-9.93
-8.67
-5.89
-3.46
-3.20
-5.96
-11.27
-17.71
-23.76
-28.56
-31.38
-32.43
-32.59
-32.55
-32.18
-30.61
-27.03
-21.23
-13.88
-4.61
6.10
16.63
24.92
29.38
29.10
23.55
12.70
-2.43
-16.55
-23.87
-20.16
-3.72
24.48
60.85
99.92
136.43
167.43
196.42
227.07
259.38
289.03
309.97
317.69
311.43
294.67
253.28
186.74
107.52
31.75
-32.64
-85.65
-128.27
-158.90
-174.74
-174.91
-158.83
-130.88
-99.39
-72.90
-56.09
-48.80
-47.86
-49.03
-50.41
-49.10
-44.54
-38.64
-33.98
-31.67
-30.96
-30.30
-28.75
-26.45
-22.76
-18.15
-14.32
-13.34
-16.49
-24.02
-34.57
-46.05
-55.42
-57.95
-49.38
-28.15
3.31
38.67
69.14
86.13
83.95
61.83
24.37
-20.66
-65.14
-102.52
-128.67
-141.76
-141.70
-129.95
-109.20
-83.08
-55.72
-30.84
-10.64
4.68
16.65
27.62
39.65
53.68
69.40
85.51
100.41
113.20
124.11
134.28
144.81
155.87
166.04
172.47
171.77
160.94
139.10
108.08
71.49
33.18
-3.94
-38.16
-68.69
-95.11
-117.86
-137.05
-152.16
-162.61
-168.76
-171.87
-173.55
-175.24
-177.98
-183.63
-192.96
-204.72
-216.36
-225.16
-228.34
-222.82
-205.75
-176.07
-137.87
-98.17
-64.19
-41.24
-31.30
-31.90
-36.51
-37.21
-18.28
23.82
76.80
122.99
153.21
168.41
173.93
174.19
170.82
163.22
148.87
127.83
104.30
84.45
72.76
70.25
74.91
82.97
91.17
95.77
95.13
90.79
86.01
83.26
83.31
85.85
91.03
99.95
113.24
130.80
151.00
170.05
182.82
185.29
175.69
157.56
138.22
124.90
122.30
131.41
149.90
173.45
196.96
215.34
223.96
218.94
198.03
162.09
115.47
64.41
14.72
-29.89
-68.32
-100.89
-128.24
-150.69
-168.28
-181.47
-191.61
-200.89
-211.70
-226.04
-244.84
-267.79
-293.50
-319.69
-343.63
-362.56
-374.24
-377.33
-371.75
-358.30
-338.38
-313.89
-287.06
-260.14
-234.70
-211.45
-190.11
-170.11
-151.15
-133.38
-117.31
-103.14
-90.13
-76.50
-60.53
-41.61
-21.46
-2.85
12.52
25.41
39.13
58.21
86.31
123.84
167.60
210.04
243.66
264.62
274.21
277.59
280.67
287.76
298.38
308.66
310.27
298.04
274.23
247.93
230.56
230.13
249.37
282.73
320.63
347.04
349.88
326.03
280.52
222.14
158.47
95.98
35.79
-22.14
-86.17
-162.03
-248.23
-337.82
-422.90
-499.74
-566.54
-627.21
-641.68
-587.04
-471.20
-328.43
-192.55
-78.91
-4.29
45.70
80.03
103.14
106.91
83.40
39.92
-14.30
-69.84
-121.44
-165.51
-204.24
-220.36
-209.68
-177.45
-134.66
-91.77
-53.61
-21.22
8.13
35.13
60.93
80.31
89.19
87.49
78.29
66.17
54.54
46.51
42.64
43.18
44.21
42.35
36.49
27.35
16.65
5.20
-6.69
-19.67
-32.92
-45.35
-53.30
-51.63
-36.76
-9.32
24.96
57.72
81.28
92.31
91.97
84.96
76.69
70.34
66.04
61.92
56.38
49.36
42.67
38.62
39.03
44.77
55.68
71.22
90.65
112.50
133.80
150.09
156.52
149.17
129.21
101.88
74.46
53.23
40.82
35.55
33.22
29.85
23.73
15.78
7.56
-0.33
-9.11
-20.88
-37.32
-58.60
-83.55
-110.42
-137.19
-161.12
-180.02
-190.58
-189.31
-174.35
-146.94
-111.76
-75.42
-44.15
-20.59
-4.77
5.45
12.57
17.99
21.85
23.73
23.72
22.92
22.78
23.99
26.28
28.45
29.18
27.84
24.76
21.10
18.34
17.52
18.79
21.50
24.55
26.88
28.28
28.81
28.87
28.97
29.30
29.84
30.50
31.29
32.45
35.07
39.74
46.61
55.38
65.01
74.61
83.64
92.21
97.56
101.26
104.93
109.20
113.61
116.60
116.76
113.29
106.43
97.45
89.00
83.60
83.37
91.29
104.68
118.59
126.24
120.88
98.34
59.62
10.86
-38.20
-77.28
-99.72
-103.70
-92.04
-70.10
-43.25
-14.97
13.30
39.87
64.32
86.69
107.62
127.31
144.83
158.25
164.09
159.65
144.89
123.39
100.94
83.63
75.19
76.05
83.26
91.95
98.24
100.32
98.13
91.70
79.98
60.53
34.95
4.81
-29.13
-64.81
-98.93
-127.81
-148.87
-161.59
-167.38
-168.42
-167.14
-168.20
-174.29
-185.27
-198.63
-211.44
-222.38
-232.14
-242.53
-255.73
-277.14
-309.81
-353.19
-403.56
-456.40
-508.93
-560.79
-612.93
-639.31
-623.86
-565.70
-480.38
-388.58
-303.64
-227.80
-155.82
-81.22
-1.30
76.65
142.07
186.46
207.73
210.24
201.67
189.41
178.11
169.22
158.89
143.88
124.09
103.10
85.45
73.91
68.72
68.06
69.27
68.39
63.20
53.84
42.87
33.03
25.80
20.93
16.95
12.21
4.64
-6.63
-21.15
-36.82
-51.62
-64.33
-74.67
-83.00
-89.64
-94.59
-96.75
-97.74
-96.97
-93.56
-86.96
-77.21
-64.91
-50.97
-36.23
-21.27
-6.44
8.71
24.36
40.33
56.02
70.39
82.33
91.01
96.20
98.35
98.97
99.60
101.48
105.18
110.57
117.10
124.14
131.45
139.31
148.76
161.10
177.66
199.56
227.12
259.23
292.86
323.30
345.12
354.03
348.31
329.42
301.50
269.68
238.24
209.54
183.88
160.42
138.36
117.34
97.62
79.61
63.35
48.44
34.27
20.43
6.97
-5.48
-16.28
-25.07
-32.15
-38.46
-45.13
-52.80
-61.11
-68.77
-73.97
-75.80
-74.54
-71.91
-70.29
-71.64
-76.49
-83.80
-91.54
-97.51
-101.65
-105.19
-110.62
-120.27
-134.59
-150.81
-163.03
-163.69
-145.28
-104.85
-42.75
36.47
124.69
211.55
285.94
337.78
360.55
355.16
327.66
292.24
264.86
256.78
269.44
293.80
314.60
317.45
296.54
251.67
191.42
125.20
58.25
-9.87
-83.07
-164.53
-262.51
-357.09
-440.39
-501.33
-532.97
-534.95
-513.26
-477.09
-434.82
-390.83
-343.80
-293.57
-236.42
-171.78
-103.07
-36.17
23.90
75.70
121.78
167.95
216.88
273.74
340.69
416.08
494.64
568.76
630.49
673.40
694.44
672.35
597.51
474.16
321.13
163.82
22.97
-91.06
-177.11
-238.38
-280.30
-304.66
-313.36
-309.73
-299.14
-287.59
-279.10
-273.89
-268.44
-258.28
-238.51
-209.21
-176.25
-148.54
-133.08
-130.70
-135.71
-139.90
-137.77
-128.07
-114.77
-103.64
-98.50
-99.31
-103.20
-106.97
-109.08
-109.64
-108.00
-102.04
-88.99
-67.13
-36.92
-2.06
31.79
59.18
76.76
84.27
84.04
79.43
73.63
68.79
65.70
64.04
62.51
59.59
53.55
43.16
28.27
9.76
-10.58
-30.45
-47.44
-59.53
-65.55
-65.90
-62.57
-58.43
-56.04
-56.42
-58.75
-60.81
-60.19
-55.35
-46.52
-35.39
-24.29
-15.17
-8.92
-5.38
-3.60
-2.90
-1.95
0.77
6.49
15.67
27.73
41.64
55.90
68.80
78.83
85.07
87.18
85.36
80.26
72.58
63.04
51.44
36.63
17.80
-4.17
-26.30
-44.60
-55.22
-55.77
-45.75
-27.35
-5.40
13.67
23.28
18.13
-4.26
-41.65
-86.13
-124.99
-145.24
-138.46
-103.54
-46.44
22.43
91.34
146.46
173.24
165.27
128.05
74.00
15.47
-38.51
-81.72
-112.56
-129.72
-132.67
-122.12
-100.98
-74.40
-46.96
-23.42
-6.35
4.06
9.80
13.79
18.96
26.67
35.96
44.49
49.84
50.91
48.05
42.64
36.34
30.58
25.88
21.61
16.62
9.86
1.15
-9.07
-20.00
-30.79
-40.70
-49.22
-56.22
-61.80
-66.12
-69.15
-70.73
-70.60
-68.52
-64.32
-58.10
-50.44
-42.39
-35.19
-29.76
-26.36
-24.37
-22.45
-19.07
-13.12
-4.49
5.80
15.99
24.26
29.53
31.85
32.25
32.14
32.64
34.02
35.72
36.61
35.56
31.76
24.83
15.01
3.59
-6.76
-12.33
-9.51
3.51
25.41
51.61
75.71
91.88
96.95
91.35
78.31
62.22
46.82
34.38
25.70
20.75
19.18
20.48
23.86
28.14
31.90
33.90
33.28
29.89
24.37
17.95
12.00
7.56
4.97
3.77
3.05
1.75
-0.87
-4.96
-10.20
-15.94
-21.54
-26.61
-31.03
-34.98
-38.78
-42.66
-46.63
-50.41
-53.50
-55.37
-55.66
-54.25
-51.30
-47.11
-41.95
-35.94
-29.07
-21.30
-12.70
-3.51
5.83
14.78
22.79
29.47
34.61
38.17
40.25
41.04
40.75
39.59
37.81
35.63
33.29
30.99
28.82
26.78
24.74
22.54
20.04
17.31
14.65
12.52
11.34
11.24
11.97
12.94
13.45
13.00
11.50
9.18
6.50
3.82
1.23
-1.46
-4.57
-8.30
-12.60
-17.09
-21.27
-24.59
-26.68
-27.38
-26.66
-24.60
-21.27
-16.82
-11.48
-5.72
-0.10
4.69
8.13
9.95
10.24
9.39
7.94
6.40
5.08
4.00
3.04
1.98
0.75
-0.57
-1.76
-2.66
-3.23
-3.63
-4.16
-5.18
-6.94
-9.54
-12.89
-16.74
-20.75
-24.59
-28.05
-30.98
-33.37
-35.23
-36.53
-37.19
-37.13
-36.32
-34.85
-32.94
-30.85
-28.77
-26.82
-25.07
-23.66
-22.75
-22.43
-22.56
-22.62
-21.80
-19.24
-14.42
-7.44
0.89
9.33
16.59
21.79
24.62
25.42
24.80
23.43
21.78
20.02
18.11
15.98
13.61
11.03
8.37
5.75
3.23
0.91
-1.08
-2.62
-3.68
-4.45
-5.39
-7.05
-9.85
-13.76
-18.15
-21.93
-23.86
-23.05
-19.27
-13.01
-5.31
2.64
9.89
15.90
20.59
24.17
26.96
29.18
30.98
32.37
33.30
33.69
33.46
32.55
30.98
28.86
26.41
24.02
22.09
20.99
20.77
21.07
21.03
19.56
15.74
9.24
0.59
-8.96
-17.89
-25.03
-29.95
-32.93
-34.69
-35.81
-36.55
-36.89
-36.74
-36.22
-35.67
-35.51
-36.06
-37.42
-39.41
-41.64
-43.36
-43.31
-39.96
-31.89
-18.60
-0.88
19.11
38.53
54.62
65.39
69.90
68.16
60.96
49.77
36.66
24.05
14.23
8.70
7.68
10.21
14.59
19.17
22.89
25.36
26.56
26.56
25.36
22.94
19.46
15.26
10.91
6.96
3.85
1.73
0.50
-0.12
-0.49
-0.86
-1.32
-1.71
-1.72
-1.06
0.34
2.34
4.61
6.78
8.60
10.03
11.12
11.89
12.19
11.70
10.07
7.17
3.27
-0.84
-3.95
-4.61
-1.37
6.90
20.69
39.34
60.78
81.71
98.14
106.33
103.73
89.58
64.99
32.46
-4.91
-44.03
-82.23
-117.37
-147.75
-172.02
-189.16
-198.66
-200.93
-197.56
-191.03
-183.80
-177.11
-169.99
-159.34
-141.09
-111.89
-70.59
-18.61
40.39
101.14
157.60
203.57
233.65
244.47
235.95
211.78
178.60
143.80
113.11
89.10
71.30
57.59
45.78
34.58
23.55
12.61
1.62
-9.35
-19.32
-26.33
-28.14
-23.54
-13.51
-1.19
9.45
15.61
17.03
15.99
15.71
18.33
23.68
29.50
33.01
32.52
28.25
21.73
14.61
7.61
0.51
-7.03
-14.49
-20.24
-22.01
-18.04
-8.13
5.98
21.02
33.44
40.55
41.39
36.78
28.69
19.40
10.68
3.49
-2.08
-6.42
-10.16
-13.95
-18.34
-23.65
-29.77
-36.04
-41.23
-43.97
-43.32
-39.38
-33.38
-27.32
-23.22
-22.22
-24.27
-28.23
-32.48
-35.62
-36.91
-36.25
-33.86
-29.92
-24.44
-17.36
-8.79
0.85
10.87
20.56
29.42
37.22
43.89
49.36
53.31
55.22
54.45
50.63
43.83
34.71
24.43
14.35
5.71
-0.67
-4.51
-6.00
-5.71
-4.31
-2.45
-0.67
0.63
1.04
0.13
-2.55
-7.27
-13.87
-21.58
-29.10
-34.99
-38.09
-38.01
-35.17
-30.49
-24.90
-18.94
-12.72
-6.26
0.14
5.64
9.13
9.73
7.27
2.48
-3.15
-7.98
-10.84
-11.28
-9.59
-6.61
-3.26
-0.26
2.04
3.73
5.13
6.59
8.37
10.57
13.08
15.62
17.79
19.13
19.30
18.10
15.45
11.47
6.40
0.56
-5.73
-12.12
-18.21
-23.31
-26.83
-28.68
-29.28
-29.35
-29.50
-29.92
-30.19
-29.39
-25.89
-18.58
-7.46
6.31
21.12
35.35
47.92
58.43
67.23
76.04
86.33
98.28
110.50
120.68
126.30
125.68
118.68
107.12
95.29
87.10
83.99
84.32
84.60
81.13
71.76
56.57
30.91
-4.83
-45.30
-83.17
-113.89
-136.77
-153.15
-164.19
-170.47
-172.43
-169.17
-159.53
-142.88
-121.41
-97.06
-73.27
-54.15
-42.90
-40.31
-43.44
-47.98
-50.80
-51.54
-51.74
-53.04
-55.20
-55.52
-50.55
-36.91
-13.12
19.32
56.71
92.33
118.55
130.76
129.90
121.13
110.35
100.93
92.28
81.01
63.45
38.44
8.58
-20.92
-44.52
-60.00
-67.42
-68.94
-67.60
-65.80
-64.10
-61.52
-56.75
-49.40
-40.38
-31.16
-23.34
-17.71
-14.61
-13.42
-13.01
-12.43
-11.29
-9.77
-8.24
-7.32
-7.59
-9.34
-12.21
-15.45
-18.42
-20.69
-22.02
-22.10
-20.67
-17.36
-11.56
-2.54
9.59
22.43
31.19
31.24
21.57
5.68
-10.75
-22.90
-28.52
-28.21
-23.77
-16.26
-5.14
11.16
32.82
57.19
79.30
94.14
98.57
92.80
80.12
65.15
51.68
41.13
32.87
24.15
14.17
3.71
-5.28
-10.69
-11.42
-7.98
-2.48
2.37
4.33
2.54
-2.44
-8.70
-13.63
-15.03
-11.90
-5.10
3.03
9.64
12.35
10.05
3.78
-3.95
-10.61
-14.25
-14.66
-12.83
-10.55
-10.36
-15.02
-26.10
-43.35
-64.72
-85.83
-101.23
-105.31
-94.59
-70.22
-38.49
-8.26
12.00
16.56
5.00
-19.02
-48.34
-73.02
-86.96
-92.72
-96.51
-99.32
-98.40
-82.89
-46.09
10.44
77.03
139.97
185.21
204.44
198.12
173.33
140.51
108.94
85.47
73.76
73.29
79.49
85.57
84.24
69.39
38.41
-7.61
-63.29
-120.08
-168.50
-200.20
-209.11
-193.38
-156.71
-107.27
-55.15
-8.12
31.37
65.53
96.44
123.05
140.73
144.63
134.42
115.20
94.88
79.78
71.29
65.79
58.06
44.89
27.14
8.84
-5.14
-11.44
-9.59
-1.98
7.33
14.87
19.20
21.22
23.51
28.95
39.58
55.74
77.19
101.09
123.20
138.91
144.62
138.92
123.10
100.56
75.29
50.27
26.27
2.45
-22.32
-48.10
-73.43
-96.02
-114.04
-127.02
-135.71
-141.33
-144.21
-143.56
-138.04
-126.92
-110.94
-92.31
-73.89
-58.17
-46.64
-39.39
-35.51
-33.56
-32.11
-29.95
-26.36
-21.13
-14.52
-7.24
-0.17
5.73
9.52
10.42
7.99
2.30
-5.95
-15.37
-24.40
-31.71
-36.68
-39.54
-41.19
-42.68
-44.79
-47.66
-50.77
-53.36
-54.85
-55.15
-54.56
-53.55
-52.47
-51.49
-50.68
-50.10
-49.94
-50.49
-51.89
-53.84
-55.58
-56.17
-55.07
-52.56
-49.47
-47.23
-47.35
-50.81
-57.69
-67.08
-77.55
-87.81
-97.06
-104.28
-108.71
-110.02
-108.86
-106.85
-106.14
-108.51
-114.25
-121.49
-125.38
-120.58
-103.57
-74.12
-34.87
10.14
56.76
101.57
141.68
176.08
204.53
227.47
245.79
260.93
274.30
285.91
294.19
286.92
254.48
196.02
122.39
49.88
-7.55
-41.71
-50.57
-38.68
-12.53
21.85
58.06
90.19
113.41
124.97
124.77
110.80
85.33
52.79
19.42
-9.03
-28.66
-38.49
-40.16
-36.75
-31.75
-27.77
-26.83
-29.44
-34.91
-41.62
-47.68
-51.65
-53.15
-53.29
-53.66
-55.85
-59.99
-64.51
-66.82
-64.63
-56.95
-44.39
-28.99
-13.10
0.88
11.27
17.53
20.23
20.88
21.10
21.81
22.69
22.76
21.29
18.98
18.29
22.37
33.22
50.16
69.69
87.00
98.13
101.47
97.93
89.81
79.32
67.65
55.04
41.60
28.04
15.84
6.65
1.43
-0.19
-0.08
-0.89
-5.07
-13.74
-26.09
-39.57
-50.70
-56.25
-54.17
-44.28
-28.24
-9.21
8.97
22.73
29.87
30.20
25.47
18.27
10.55
2.60
-6.86
-19.46
-35.59
-53.63
-70.40
-82.68
-88.73
-88.91
-85.02
-79.13
-72.66
-66.25
-60.35
-55.58
-52.56
-51.22
-50.39
-48.14
-42.80
-34.23
-24.03
-14.81
-8.69
-6.08
-5.43
-4.30
-0.83
5.27
12.79
20.10
26.27
31.53
36.70
42.29
47.85
52.25
54.50
54.56
53.51
52.98
54.17
57.16
60.84
63.54
63.93
61.51
56.72
50.59
44.14
37.89
31.80
25.38
18.15
10.04
1.64
-6.02
-11.86
-15.31
-16.54
-16.38
-15.82
-15.57
-15.83
-16.39
-16.96
-17.43
-17.98
-18.92
-20.50
-22.77
-25.56
-28.53
-31.35
-33.70
-35.41
-36.40
-36.63
-36.11
-34.85
-32.87
-30.18
-26.90
-23.20
-19.36
-15.68
-12.46
-9.82
-7.74
-6.07
-4.59
-3.19
-1.88
-0.84
-0.29
-0.33
-0.86
-1.59
-2.16
-2.34
-2.12
-1.68
-1.31
-1.22
-1.49
-2.05
-2.76
-3.50
-4.24
-5.01
-5.88
-6.91
-8.10
-9.45
-10.96
-12.58
-14.29
-15.99
-17.57
-18.83
-19.52
-19.46
-18.54
-16.85
-14.58
-12.01
-9.34
-6.66
-3.93
-1.10
1.75
4.41
6.55
7.89
8.34
7.99
7.12
6.04
4.99
4.13
3.52
3.15
2.99
2.98
3.04
3.03
2.81
2.23
1.19
-0.32
-2.19
-4.16
-5.93
-7.27
-8.09
-8.56
-9.02
-9.88
-11.37
-13.44
-15.71
-17.58
-18.43
-17.86
-15.79
-12.50
-8.48
-4.35
-0.66
2.16
3.84
4.37
3.98
3.12
2.34
2.13
2.75
4.15
5.97
7.77
9.17
10.01
10.36
10.45
10.54
10.77
11.10
11.38
11.43
11.14
10.54
9.79
9.01
8.23
7.35
6.15
4.49
2.35
-0.12
-2.70
-5.17
-7.37
-9.21
-10.62
-11.55
-11.92
-11.62
-10.58
-8.75
-6.17
-3.03
0.29
3.37
5.83
7.56
8.71
9.62
10.59
11.68
12.65
13.12
12.81
11.75
10.27
8.86
7.90
7.50
7.47
7.50
7.34
6.93
6.32
5.58
4.69
3.49
1.85
-0.28
-2.72
-5.16
-7.24
-8.76
-9.75
-10.47
-11.27
-12.36
-13.70
-14.93
-15.49
-14.87
-12.76
-9.26
-4.85
-0.18
4.12
7.70
10.45
12.54
14.20
15.56
16.65
17.41
17.81
17.91
17.88
17.91
18.10
18.44
18.74
18.78
18.37
17.46
16.17
14.73
13.33
12.00
10.62
8.91
6.67
3.86
0.68
-2.53
-5.44
-7.93
-10.12
-12.30
-14.68
-17.25
-19.74
-21.64
-22.48
-21.94
-19.95
-16.69
-12.43
-7.50
-2.15
3.31
8.55
13.16
16.74
18.96
19.76
19.37
18.32
17.22
16.53
16.44
16.70
16.81
16.20
14.45
11.52
7.69
3.52
-0.41
-3.66
-6.04
-7.61
-8.61
-9.31
-9.99
-10.76
-11.62
-12.50
-13.33
-14.12
-15.00
-16.14
-17.70
-19.70
-21.85
-23.62
-24.35
-23.42
-20.58
-16.04
-10.42
-4.59
0.68
4.97
8.21
10.61
12.47
13.96
15.11
15.83
16.01
15.58
14.59
13.15
11.50
9.88
8.52
7.58
7.07
6.85
6.71
6.44
5.92
5.18
4.34
3.52
2.77
2.07
1.36
0.56
-0.40
-1.59
-3.15
-5.23
-7.97
-11.26
-14.66
-17.46
-18.87
-18.33
-15.79
-11.79
-7.22
-3.03
0.20
2.39
3.89
5.21
6.68
8.34
9.98
11.35
12.31
12.89
13.23
13.46
13.64
13.76
13.79
13.81
13.89
14.07
14.28
14.36
14.12
13.45
12.43
11.32
10.45
10.11
10.36
10.96
11.35
10.81
8.70
4.79
-0.54
-6.32
-11.30
-14.34
-14.87
-13.05
-9.62
-5.63
-1.98
0.84
2.78
4.10
5.19
6.33
7.59
8.84
9.78
10.14
9.79
8.84
7.57
6.41
5.67
5.49
5.69
5.90
5.76
5.08
3.89
2.39
0.80
-0.80
-2.50
-4.43
-6.56
-8.66
-10.29
-11.07
-10.88
-9.97
-8.92
-8.46
-9.19
-11.34
-14.70
-18.64
-22.26
-24.61
-24.95
-22.94
-18.71
-12.87
-6.28
0.14
5.59
9.54
11.82
12.58
12.27
11.47
10.74
10.39
10.43
10.62
10.64
10.27
9.53
8.56
7.45
6.16
4.48
2.25
-0.46
-3.25
-5.58
-7.00
-7.37
-6.96
-6.27
-5.83
-5.97
-6.84
-8.41
-10.58
-13.23
-16.04
-18.56
-20.23
-20.51
-19.11
-16.10
-11.85
-6.91
-1.79
3.18
7.87
12.32
16.59
20.61
24.19
26.96
28.55
28.79
27.80
25.97
23.81
21.67
19.71
17.87
16.09
14.46
13.18
12.48
12.41
12.80
13.33
13.73
13.86
13.71
13.27
12.45
11.13
9.29
7.18
5.28
4.07
3.82
4.38
5.25
5.87
5.92
5.51
5.14
5.45
6.91
9.59
13.20
17.30
21.54
25.81
30.25
35.04
40.21
45.48
50.34
54.15
56.37
56.78
55.47
52.74
48.97
44.44
39.29
33.51
27.14
20.29
13.22
6.29
-0.22
-6.20
-11.71
-16.91
-21.91
-26.66
-30.96
-34.53
-37.13
-38.70
-39.34
-39.34
-39.04
-38.74
-38.57
-38.58
-38.65
-38.62
-38.32
-37.67
-36.62
-35.19
-33.37
-31.12
-28.43
-25.31
-21.84
-18.21
-14.69
-11.54
-8.96
-7.02
-5.68
-4.82
-4.27
-3.84
-3.37
-2.70
-1.71
-0.42
1.04
2.43
3.49
4.00
3.87
3.10
1.72
-0.21
-2.63
-5.43
-8.41
-11.31
-13.90
-16.01
-17.69
-19.10
-20.46
-21.86
-23.26
-24.41
-25.00
-24.77
-23.62
-21.63
-19.07
-16.26
-13.41
-10.59
-7.70
-4.61
-1.27
2.21
5.56
8.49
10.78
12.40
13.45
14.13
14.59
14.90
15.01
14.84
14.29
13.30
11.85
10.05
8.09
6.23
4.75
3.77
3.27
3.08
2.97
2.77
2.44
2.02
1.52
0.90
0.03
-1.20
-2.78
-4.62
-6.58
-8.59
-10.63
-12.71
-14.71
-16.39
-17.42
-17.60
-16.90
-15.52
-13.72
-11.71
-9.54
-7.17
-4.53
-1.70
1.10
3.63
5.68
7.15
8.08
8.56
8.70
8.59
8.34
8.05
7.85
7.77
7.76
7.74
7.58
7.23
6.73
6.14
5.47
4.69
3.72
2.49
1.08
-0.34
-1.56
-2.39
-2.86
-3.13
-3.43
-3.97
-4.81
-5.92
-7.18
-8.45
-9.60
-10.44
-10.78
-10.39
-9.11
-6.93
-4.05
-0.80
2.40
5.20
7.42
9.05
10.19
10.92
11.31
11.38
11.11
10.56
9.82
9.01
8.21
7.48
6.79
6.10
5.37
4.59
3.76
2.88
1.96
1.01
0.07
-0.85
-1.73
-2.56
-3.37
-4.19
-5.04
-5.91
-6.83
-7.81
-8.89
-10.15
-11.65
-13.39
-15.28
-17.14
-18.74
-19.88
-20.39
-20.27
-19.59
-18.49
-17.16
-15.78
-14.47
-13.36
-12.56
-12.17
-12.29
-12.96
-14.14
-15.71
-17.48
-19.19
-20.57
-21.36
-21.38
-20.53
-18.77
-16.15
-12.71
-8.57
-3.87
1.14
6.12
10.70
14.52
17.36
19.15
19.97
19.98
19.41
18.40
17.09
15.51
13.65
11.47
8.97
6.26
3.57
1.27
-0.32
-1.01
-0.82
-0.01
1.08
2.18
3.17
4.11
5.10
6.18
7.31
8.37
9.20
9.71
9.91
9.83
9.55
9.08
8.40
7.51
6.46
5.31
4.18
3.20
2.48
2.12
2.11
2.37
2.68
2.83
2.58
1.86
0.76
-0.47
-1.53
-2.21
-2.49
-2.52
-2.60
-3.00
-3.87
-5.15
-6.65
-8.08
-9.15
-9.60
-9.31
-8.23
-6.50
-4.38
-2.21
-0.31
1.12
2.08
2.75
3.34
4.03
4.81
5.52
5.95
5.98
5.65
5.10
4.53
4.05
3.60
3.05
2.28
1.30
0.22
-0.74
-1.46
-1.92
-2.28
-2.74
-3.39
-4.25
-5.14
-5.93
-6.54
-7.03
-7.57
-8.34
-9.43
-10.73
-12.07
-13.20
-13.90
-14.07
-13.65
-12.69
-11.30
-9.61
-7.74
-5.83
-3.93
-2.08
-0.29
1.45
3.11
4.67
6.08
7.29
8.24
8.85
9.11
9.02
8.67
8.18
7.64
7.09
6.53
5.88
5.13
4.30
3.46
2.66
1.91
1.16
0.36
-0.48
-1.33
-2.15
-2.93
-3.77
-4.77
-6.05
-7.56
-9.13
-10.48
-11.29
-11.30
-10.40
-8.67
-6.28
-3.50
-0.59
2.27
4.96
7.44
9.66
11.52
12.93
13.80
14.11
13.94
13.45
12.85
12.24
11.70
11.19
10.64
10.01
9.30
8.57
7.85
7.15
6.37
5.44
4.31
3.02
1.69
0.48
-0.55
-1.44
-2.32
-3.34
-4.56
-5.96
-7.45
-8.88
-10.11
-10.94
-11.21
-10.73
-9.45
-7.43
-4.93
-2.25
0.30
2.56
4.49
6.16
7.63
8.89
9.89
10.57
10.90
10.93
10.72
10.31
9.70
8.88
7.83
6.60
5.30
4.05
2.93
2.01
1.26
0.63
0.04
-0.58
-1.29
-2.11
-2.98
-3.87
-4.71
-5.52
-6.35
-7.33
-8.51
-9.81
-11.03
-11.88
-12.13
-11.66
-10.52
-8.84
-6.79
-4.51
-2.11
0.32
2.67
4.83
6.69
8.18
9.27
9.94
10.27
10.35
10.30
10.24
10.21
10.19
10.09
9.78
9.16
8.19
6.92
5.43
3.84
2.25
0.78
-0.52
-1.60
-2.47
-3.18
-3.80
-4.45
-5.22
-6.20
-7.42
-8.83
-10.27
-11.47
-12.11
-11.92
-10.79
-8.81
-6.24
-3.42
-0.66
1.84
4.04
5.95
7.63
9.09
10.24
10.95
11.11
10.69
9.75
8.45
7.00
5.58
4.32
3.25
2.28
1.34
0.36
-0.64
-1.59
-2.37
-2.92
-3.26
-3.44
-3.56
-3.71
-3.97
-4.36
-4.95
-5.77
-6.87
-8.21
-9.70
-11.11
-12.20
-12.72
-12.51
-11.53
-9.83
-7.60
-5.03
-2.30
0.40
2.90
5.05
6.68
7.72
8.21
8.37
8.43
8.60
8.90
9.15
9.09
8.60
7.75
6.79
6.01
5.53
5.32
5.15
4.84
4.34
3.72
3.13
2.63
2.17
1.64
0.91
-0.02
-1.10
-2.25
-3.40
-4.55
-5.67
-6.70
-7.50
-7.89
-7.70
-6.84
-5.33
-3.29
-0.94
1.45
3.68
5.60
7.16
8.40
9.28
9.73
9.61
8.78
7.25
5.21
2.98
0.90
-0.81
-2.17
-3.32
-4.44
-5.60
-6.73
-7.68
-8.33
-8.69
-8.84
-8.88
-8.87
-8.79
-8.59
-8.25
-7.85
-7.53
-7.48
-7.80
-8.51
-9.48
-10.48
-11.19
-11.33
-10.75
-9.43
-7.51
-5.23
-2.86
-0.57
1.53
3.42
5.12
6.60
7.83
8.80
9.55
10.15
10.66
11.09
11.37
11.38
11.04
10.35
9.38
8.27
7.17
6.10
5.05
3.96
2.81
1.61
0.42
-0.67
-1.66
-2.55
-3.43
-4.36
-5.45
-6.76
-8.30
-10.01
-11.70
-13.11
-13.97
-14.07
-13.35
-11.90
-9.98
-7.83
-5.66
-3.53
-1.41
0.75
2.96
5.15
7.13
8.74
9.85
10.46
10.66
10.60
10.41
10.12
9.71
9.07
8.13
6.89
5.46
4.02
2.75
1.76
1.04
0.48
-0.08
-0.76
-1.62
-2.60
-3.61
-4.59
-5.51
-6.40
-7.30
-8.18
-8.98
-9.61
-9.95
-9.93
-9.46
-8.46
-6.87
-4.74
-2.24
0.34
2.67
4.51
5.77
6.53
6.96
7.18
7.28
7.27
7.14
6.93
6.66
6.36
5.95
5.31
4.34
3.02
1.46
-0.15
-1.62
-2.83
-3.73
-4.36
-4.79
-5.11
-5.39
-5.74
-6.24
-6.97
-7.96
-9.18
-10.55
-11.94
-13.15
-14.03
-14.40
-14.16
-13.26
-11.75
-9.74
-7.41
-4.90
-2.34
0.22
2.77
5.29
7.72
9.96
11.87
13.31
14.23
14.66
14.73
14.60
14.40
14.14
13.78
13.24
12.45
11.45
10.29
9.06
7.82
6.60
5.41
4.28
3.23
2.29
1.43
0.61
-0.25
-1.21
-2.28
-3.52
-4.95
-6.58
-8.30
-9.91
-11.05
-11.40
-10.75
-9.09
-6.66
-3.78
-0.77
2.17
4.92
7.41
9.53
11.15
12.16
12.54
12.44
12.02
11.51
10.98
10.43
9.79
8.97
7.99
6.91
5.82
4.79
3.80
2.82
1.75
0.54
-0.86
-2.44
-4.12
-5.79
-7.31
-8.54
-9.43
-10.05
-10.56
-11.17
-12.06
-13.27
-14.67
-15.99
-16.86
-16.97
-16.19
-14.56
-12.38
-10.03
-7.82
-5.93
-4.30
-2.78
-1.21
0.43
2.05
3.49
4.62
5.34
5.58
5.34
4.62
3.50
2.20
1.05
0.36
0.34
0.93
1.87
2.77
3.28
3.24
2.63
1.63
0.44
-0.75
-1.81
-2.74
-3.58
-4.46
-5.54
-6.93
-8.57
-10.28
-11.75
-12.61
-12.59
-11.59
-9.70
-7.18
-4.35
-1.48
1.21
3.63
5.72
7.44
8.82
9.88
10.70
11.32
11.77
12.00
11.95
11.54
10.80
9.82
8.75
7.71
6.76
5.90
5.09
4.27
3.41
2.48
1.47
0.39
-0.70
-1.76
-2.68
-3.44
-4.10
-4.83
-5.84
-7.27
-9.13
-11.16
-12.96
-14.09
-14.20
-13.16
-11.07
-8.26
-5.13
-2.04
0.76
3.18
5.25
6.99
8.46
9.67
10.59
11.28
11.77
12.14
12.43
12.59
12.52
12.12
11.41
10.48
9.54
8.78
8.31
8.10
7.93
7.55
6.70
5.27
3.36
1.22
-0.86
-2.59
-3.86
-4.71
-5.32
-5.94
-6.75
-7.84
-9.16
-10.53
-11.67
-12.32
-12.26
-11.43
-9.88
-7.78
-5.37
-2.83
-0.32
2.06
4.17
5.89
7.14
7.86
8.14
8.16
8.12
8.20
8.49
8.88
9.18
9.21
8.87
8.29
7.73
7.50
7.72
8.26
8.83
9.10
8.89
8.29
7.56
6.93
6.49
6.17
5.86
5.49
5.12
4.84
4.66
4.43
3.96
3.08
1.87
0.56
-0.49
-0.98
-0.72
0.34
2.10
4.40
7.05
9.76
12.25
14.23
15.48
15.94
15.70
14.99
14.08
13.26
12.72
12.50
12.48
12.42
12.08
11.29
10.05
8.54
6.96
5.54
4.55
4.15
4.35
5.02
5.95
6.99
8.10
9.27
10.45
11.62
12.60
13.11
12.86
11.67
9.70
7.46
5.37
3.95
3.68
4.91
7.57
11.13
14.83
18.03
20.51
21.92
22.48
23.12
24.99
28.60
33.45
38.34
42.04
43.94
42.86
38.64
32.69
27.03
22.78
19.09
13.40
2.60
-15.51
-43.13
-78.85
-116.01
-144.54
-155.13
-143.56
-112.90
-72.90
-36.98
-20.90
-34.51
-77.00
-138.02
-202.89
-258.61
-297.30
-316.96
-303.16
-251.76
-174.38
-93.65
-29.51
9.85
26.63
29.14
28.74
36.90
57.49
85.87
116.53
142.28
156.51
156.20
143.76
123.50
104.82
90.63
77.17
59.37
35.88
10.93
-8.34
-16.56
-13.59
-4.14
3.51
4.07
-0.81
-4.56
-0.58
13.30
33.25
51.61
61.04
56.80
39.43
14.54
-10.55
-30.08
-41.68
-45.90
-44.33
-38.10
-27.08
-11.08
9.59
33.32
57.17
77.26
89.68
91.20
80.51
58.70
29.54
-0.73
-24.99
-37.52
-36.01
-22.02
-1.43
18.81
33.66
41.41
43.46
42.59
41.18
40.31
39.95
39.39
38.05
35.40
30.72
23.24
12.57
-0.74
-15.01
-27.91
-37.28
-41.66
-40.68
-35.00
-26.08
-15.82
-6.34
0.25
2.40
-0.43
-7.28
-15.95
-23.87
-29.03
-30.62
-29.16
-26.02
-22.81
-20.91
-21.30
-24.54
-30.17
-36.68
-41.53
-41.87
-35.88
-23.94
-8.82
5.39
15.12
18.87
17.78
14.63
12.26
12.13
13.96
16.36
18.01
18.44
18.09
17.77
17.99
18.68
19.24
18.85
16.94
13.51
9.22
5.04
1.92
0.35
0.14
0.64
1.01
0.72
-0.29
-1.69
-2.95
-3.71
-3.89
-3.75
-3.69
-4.05
-4.92
-6.08
-7.14
-7.74
-7.74
-7.30
-6.81
-6.68
-7.14
-8.11
-9.28
-10.27
-10.77
-10.70
-10.06
-8.94
-7.44
-5.58
-3.40
-0.95
1.64
4.18
6.43
8.19
9.35
9.95
10.12
10.06
9.97
9.89
9.78
9.47
8.81
7.77
6.38
4.84
3.36
2.11
1.16
0.48
-0.06
-0.53
-0.99
-1.39
-1.68
-1.86
-2.01
-2.35
-3.10
-4.43
-6.33
-8.57
-10.77
-12.52
-13.52
-13.62
-12.82
-11.25
-9.13
-6.69
-4.18
-1.77
0.43
2.42
4.27
6.08
7.90
9.67
11.27
12.50
13.24
13.42
13.14
12.57
11.95
11.49
11.28
11.28
11.34
11.26
10.88
10.11
9.02
7.71
6.33
4.96
3.54
1.89
-0.25
-3.10
-6.70
-10.87
-15.15
-18.96
-21.73
-23.10
-23.03
-21.74
-19.62
-17.03
-14.26
-11.45
-8.70
-6.15
-3.96
-2.27
-1.16
-0.58
-0.40
-0.47
-0.67
-0.96
-1.38
-1.99
-2.86
-4.00
-5.38
-6.87
-8.29
-9.43
-10.18
-10.49
-10.47
-10.27
-10.08
-10.05
-10.30
-10.85
-11.70
-12.78
-13.94
-14.95
-15.53
-15.44
-14.56
-12.87
-10.51
-7.70
-4.67
-1.61
1.31
4.02
6.40
8.33
9.68
10.37
10.39
9.90
9.14
8.38
7.84
7.62
7.65
7.80
7.88
7.74
7.33
6.61
5.70
4.72
3.84
3.18
2.78
2.56
2.36
1.99
1.33
0.32
-1.04
-2.69
-4.46
-6.12
-7.31
-7.68
-6.96
-5.12
-2.37
0.92
4.30
7.45
10.17
12.42
14.22
15.62
16.67
17.41
17.90
18.19
18.30
18.25
18.04
17.71
17.31
16.91
16.55
16.23
15.88
15.42
14.76
13.87
12.82
11.72
10.69
9.84
9.12
8.40
7.44
6.01
3.92
1.08
-2.43
-6.39
-10.45
-14.13
-16.94
-18.56
-18.87
-18.08
-16.58
-14.81
-13.13
-11.66
-10.39
-9.18
-7.95
-6.69
-5.48
-4.41
-3.56
-2.98
-2.73
-2.85
-3.32
-4.07
-4.90
-5.56
-5.85
-5.70
-5.21
-4.60
-4.13
-3.96
-4.11
-4.50
-5.02
-5.57
-6.10
-6.58
-6.98
-7.32
-7.62
-7.93
-8.28
-8.63
-8.84
-8.73
-8.10
-6.88
-5.13
-2.99
-0.65
1.74
4.06
6.23
8.14
9.69
10.80
11.47
11.76
11.79
11.69
11.51
11.22
10.77
10.17
9.50
8.94
8.72
9.00
9.83
11.11
12.63
14.15
15.42
16.21
16.36
15.78
14.50
12.66
10.48
8.22
6.11
4.29
2.84
1.80
1.19
1.12
1.69
3.03
5.10
7.70
10.42
12.83
14.62
15.76
16.54
17.44
18.86
20.91
23.38
25.80
27.76
28.99
29.46
29.30
28.65
27.59
26.19
24.52
22.72
20.94
19.29
17.80
16.39
14.90
13.28
11.52
9.78
8.22
7.05
6.37
6.19
6.35
6.61
6.66
6.25
5.25
3.72
1.86
-0.03
-1.62
-2.66
-2.99
-2.63
-1.77
-0.73
0.12
0.44
0.06
-0.96
-2.44
-4.13
-5.90
-7.72
-9.71
-11.94
-14.38
-16.84
-19.03
-20.63
-21.45
-21.40
-20.54
-19.04
-17.14
-15.19
-13.57
-12.62
-12.52
-13.22
-14.42
-15.68
-16.54
-16.70
-16.04
-14.70
-12.97
-11.28
-10.01
-9.46
-9.76
-10.72
-11.99
-13.10
-13.61
-13.30
-12.12
-10.26
-7.98
-5.60
-3.41
-1.60
-0.21
0.80
1.55
2.12
2.53
2.79
2.81
2.59
2.15
1.50
0.63
-0.51
-1.99
-3.77
-5.74
-7.73
-9.59
-11.30
-12.89
-14.43
-15.96
-17.48
-19.01
-20.66
-22.60
-25.04
-28.04
-31.45
-34.92
-37.94
-40.02
-40.76
-39.89
-37.33
-33.23
-27.99
-22.23
-16.66
-11.88
-8.10
-5.19
-2.67
-0.05
2.91
6.14
9.25
11.83
13.56
14.42
14.52
14.07
13.22
12.08
10.68
9.07
7.38
5.74
4.29
3.11
2.16
1.34
0.44
-0.68
-2.11
-3.82
-5.76
-7.87
-10.14
-12.59
-15.28
-18.18
-21.13
-23.87
-26.03
-27.26
-27.35
-26.24
-24.09
-21.19
-17.87
-14.41
-11.01
-7.80
-4.89
-2.43
-0.52
0.83
1.83
2.84
4.18
6.00
8.13
10.13
11.48
11.82
11.13
9.71
7.98
6.28
4.77
3.37
1.93
0.40
-1.11
-2.36
-3.13
-3.36
-3.23
-3.13
-3.44
-4.42
-6.03
-7.96
-9.81
-11.18
-11.79
-11.51
-10.35
-8.41
-5.89
-3.10
-0.37
2.02
3.96
5.54
7.02
8.60
10.35
12.16
13.76
14.92
15.56
15.77
15.78
15.81
16.01
16.36
16.70
16.85
16.67
16.15
15.38
14.51
13.68
12.97
12.35
11.71
10.92
9.87
8.50
6.79
4.74
2.45
0.06
-2.19
-4.01
-5.12
-5.31
-4.57
-3.04
-1.06
0.98
2.75
4.08
4.97
5.56
6.06
6.61
7.27
8.01
8.74
9.40
9.97
10.48
11.00
11.56
12.13
12.65
13.00
13.15
13.10
12.98
12.88
12.87
12.91
12.92
12.83
12.65
12.47
12.34
12.23
11.96
11.28
10.02
8.26
6.35
4.83
4.25
4.94
6.93
9.93
13.48
17.13
20.56
23.56
25.98
27.62
28.27
27.85
26.54
24.72
22.87
21.35
20.29
19.50
18.70
17.64
16.35
15.10
14.13
13.52
13.09
12.45
11.28
9.40
7.03
4.80
3.58
3.95
6.03
9.40
13.21
16.64
18.94
20.04
20.75
22.45
26.25
32.56
40.96
50.38
59.82
68.17
75.02
80.85
86.71
93.19
100.60
109.09
118.73
129.54
139.68
145.60
142.75
126.79
95.01
48.42
-7.80
-65.61
-116.33
-155.02
-180.81
-195.86
-199.10
-189.66
-168.66
-140.20
-113.93
-92.10
-74.75
-60.65
-46.79
-31.50
-15.09
0.20
10.87
13.29
5.52
-13.24
-41.15
-73.58
-104.26
-127.38
-139.09
-138.31
-126.56
-106.57
-82.29
-56.78
-31.89
-8.48
12.60
29.97
41.74
45.77
40.64
25.75
2.44
-25.45
-52.17
-71.49
-78.78
-72.28
-53.61
-26.97
2.18
29.03
50.55
65.78
75.08
78.85
76.61
66.85
48.25
21.36
-10.23
-40.02
-60.91
-68.01
-61.25
-45.20
-26.84
-12.26
-3.93
-0.36
1.99
5.65
9.88
10.60
3.12
-14.21
-37.64
-58.86
-68.86
-62.61
-41.96
-15.02
8.11
20.44
21.22
15.30
9.49
8.36
12.17
17.84
21.79
22.61
21.65
21.61
24.38
29.88
36.28
41.02
42.34
39.88
34.75
28.79
23.58
19.89
17.54
15.76
13.82
11.51
9.21
7.69
7.66
9.35
12.39
15.99
19.20
21.23
21.75
20.84
18.97
16.70
14.53
12.79
11.57
10.77
10.14
9.47
8.61
7.56
6.43
5.40
4.72
4.59
5.07
5.93
6.80
7.26
6.99
6.00
4.62
3.40
2.88
3.29
4.33
5.49
6.24
6.26
5.62
4.86
4.82
6.29
9.70
14.58
20.12
25.36
29.29
31.38
31.81
31.46
31.56
33.19
36.28
40.00
42.53
41.05
32.71
15.70
-9.82
-41.46
-75.04
-106.18
-130.41
-144.22
-146.26
-137.21
-119.69
-97.81
-76.53
-57.12
-42.99
-36.17
-35.49
-37.99
-40.72
-42.20
-41.79
-38.52
-30.70
-17.06
1.79
25.12
49.76
71.63
87.36
95.73
97.83
96.03
92.28
88.07
84.53
80.45
75.88
71.25
66.99
62.96
58.09
50.30
37.59
18.95
-5.29
-32.68
-59.07
-79.50
-89.66
-87.44
-73.99
-53.25
-30.58
-11.11
2.21
8.93
10.50
9.03
6.00
1.81
-3.72
-10.51
-17.72
-23.64
-26.55
-25.54
-21.08
-14.88
-9.16
-5.69
-5.08
-6.66
-8.82
-9.86
-8.73
-5.45
-0.89
3.56
6.66
7.61
6.27
3.13
-0.88
-4.57
-6.77
-6.48
-3.11
3.47
12.69
23.45
34.41
44.38
52.63
59.01
63.92
67.95
71.54
74.41
75.70
74.42
70.05
62.90
54.07
45.30
38.48
34.81
33.40
31.44
25.00
10.74
-12.50
-43.08
-76.69
-107.57
-130.19
-141.80
-142.27
-133.25
-116.79
-94.68
-69.04
-42.58
-18.40
0.77
12.18
14.46
7.99
-5.51
-24.14
-47.49
-76.34
-111.30
-143.81
-163.61
-163.57
-144.70
-114.29
-80.45
-49.68
-26.02
-11.01
-3.75
-2.55
-4.01
-3.15
4.50
23.98
56.04
95.72
134.63
164.75
180.40
180.90
169.58
152.32
134.92
120.44
108.49
95.74
81.20
64.75
47.31
29.13
10.26
-9.38
-30.22
-53.42
-78.70
-103.48
-124.37
-138.22
-144.70
-145.42
-142.74
-131.96
-111.29
-82.72
-51.00
-24.23
-2.96
12.21
20.95
23.53
21.61
16.98
11.65
7.31
4.83
4.90
7.16
11.57
18.24
26.78
34.98
40.22
40.61
35.71
26.85
15.50
3.43
-7.57
-15.99
-21.17
-22.67
-20.18
-13.69
-3.76
7.81
18.99
28.32
35.49
41.05
46.25
52.26
59.46
67.31
74.34
79.33
82.10
83.73
86.02
90.69
98.60
109.26
120.88
130.93
137.03
137.49
131.46
118.61
98.68
71.36
36.68
-4.19
-48.30
-91.11
-127.52
-153.46
-167.18
-169.76
-164.33
-154.73
-144.04
-133.40
-122.18
-108.99
-93.06
-74.72
-55.30
-36.32
-18.55
-1.86
14.08
28.32
37.87
38.62
27.89
6.85
-18.86
-41.23
-53.55
-53.26
-42.92
-28.18
-14.28
-3.00
7.81
21.88
40.60
60.76
76.28
82.40
78.83
69.58
60.18
54.62
53.39
54.77
53.79
46.80
32.99
14.42
-5.32
-22.79
-36.33
-46.77
-56.88
-69.02
-84.14
-100.95
-116.27
-126.53
-129.55
-125.61
-117.32
-108.09
-100.50
-94.97
-90.04
-83.71
-74.67
-62.81
-48.57
-32.01
-12.36
11.38
39.33
69.69
98.75
121.93
135.56
138.29
131.55
118.81
104.11
90.71
80.31
73.10
68.27
64.63
61.19
57.22
52.26
46.07
38.63
30.24
21.58
13.63
7.37
3.54
2.30
3.17
5.09
6.79
7.18
5.68
2.38
-2.00
-6.39
-9.74
-11.35
-11.05
-9.19
-6.44
-3.43
-0.62
1.90
4.24
6.56
8.94
11.28
13.33
14.82
15.59
15.66
15.24
14.70
14.41
14.68
15.65
17.24
19.17
21.06
22.56
23.46
23.68
23.25
22.19
20.44
17.92
14.56
10.44
5.78
0.85
-4.13
-9.11
-14.18
-19.44
-24.90
-30.39
-35.59
-40.16
-43.85
-46.56
-48.22
-48.82
-48.33
-46.71
-44.07
-40.61
-36.70
-32.71
-28.97
-25.62
-22.72
-20.23
-18.10
-16.31
-14.82
-13.54
-12.36
-11.13
-9.76
-8.26
-6.77
-5.47
-4.51
-3.93
-3.65
-3.53
-3.45
-3.38
-3.38
-3.51
-3.84
-4.37
-5.06
-5.87
-6.75
-7.64
-8.47
-9.19
-9.78
-10.27
-10.74
-11.30
-11.97
-12.69
-13.30
-13.52
-13.09
-11.77
-9.47
-6.26
-2.43
1.68
5.65
9.17
12.05
14.25
15.81
16.83
17.40
17.66
17.77
17.91
18.21
18.69
19.22
19.55
19.40
18.55
17.02
15.00
12.88
11.01
9.62
8.71
8.05
7.35
6.32
4.85
3.02
1.06
-0.77
-2.23
-3.26
-3.93
-4.45
-5.05
-5.88
-6.99
-8.22
-9.32
-9.97
-9.95
-9.16
-7.68
-5.64
-3.23
-0.61
2.08
4.70
7.13
9.24
10.91
12.09
12.80
13.10
13.11
12.97
12.80
12.65
12.51
12.31
11.98
11.47
10.85
10.21
9.65
9.16
8.61
7.82
6.67
5.18
3.58
2.13
1.01
0.22
-0.48
-1.38
-2.71
-4.53
-6.73
-9.11
-11.48
-13.68
-15.54
-16.87
-17.44
-17.10
-15.85
-13.91
-11.64
-9.44
-7.55
-5.99
-4.61
-3.20
-1.65
-0.01
1.54
2.80
3.67
4.13
4.25
4.09
3.71
3.09
2.31
1.42
0.57
-0.19
-0.87
-1.55
-2.36
-3.37
-4.59
-5.91
-7.24
-8.53
-9.78
-11.07
-12.44
-13.91
-15.41
-16.85
-18.18
-19.35
-20.40
-21.28
-21.90
-22.05
-21.51
-20.12
-17.90
-15.02
-11.78
-8.48
-5.33
-2.46
0.10
2.34
4.25
5.78
6.91
7.63
8.00
8.13
8.11
8.08
8.07
8.11
8.15
8.12
7.95
7.62
7.13
6.56
5.97
5.36
4.72
3.99
3.12
2.17
1.19
0.27
-0.57
-1.38
-2.28
-3.38
-4.71
-6.16
-7.53
-8.57
-9.07
-8.91
-8.10
-6.73
-4.97
-2.98
-0.84
1.41
3.77
6.25
8.74
11.04
12.94
14.30
15.08
15.37
15.28
14.94
14.39
13.66
12.75
11.70
10.56
9.36
8.07
6.65
5.04
3.28
1.49
-0.21
-1.70
-3.01
-4.20
-5.44
-6.83
-8.45
-10.29
-12.29
-14.35
-16.37
-18.24
-19.81
-20.96
-21.53
-21.41
-20.54
-18.94
-16.69
-13.91
-10.73
-7.25
-3.63
-0.01
3.41
6.45
8.92
10.73
11.89
12.55
12.93
13.26
13.67
14.16
14.61
14.82
14.65
14.11
13.29
12.36
11.45
10.57
9.70
8.76
7.73
6.62
5.46
4.24
2.93
1.48
-0.09
-1.72
-3.31
-4.79
-6.16
-7.39
-8.43
-9.11
-9.16
-8.36
-6.64
-4.15
-1.20
1.85
4.72
7.31
9.65
11.77
13.67
15.26
16.44
17.16
17.46
17.40
17.05
16.39
15.43
14.18
12.73
11.24
9.88
8.76
7.86
7.12
6.41
5.61
4.68
3.58
2.33
0.96
-0.45
-1.83
-3.11
-4.28
-5.38
-6.52
-7.81
-9.32
-10.96
-12.48
-13.52
-13.73
-12.92
-11.09
-8.53
-5.60
-2.65
0.06
2.38
4.27
5.69
6.62
7.08
7.15
6.94
6.61
6.28
5.99
5.72
5.42
5.05
4.61
4.15
3.74
3.42
3.19
3.01
2.77
2.40
1.86
1.15
0.34
-0.53
-1.46
-2.48
-3.63
-4.95
-6.41
-7.93
-9.38
-10.56
-11.23
-11.18
-10.30
-8.62
-6.31
-3.64
-0.88
1.82
4.41
6.90
9.22
11.25
12.80
13.72
14.07
14.02
13.81
13.58
13.36
13.02
12.44
11.52
10.34
9.03
7.78
6.74
5.94
5.31
4.71
3.97
2.93
1.55
-0.12
-1.91
-3.60
-5.05
-6.23
-7.27
-8.35
-9.58
-10.93
-12.20
-13.06
-13.24
-12.56
-11.02
-8.79
-6.10
-3.20
-0.29
2.45
4.85
6.76
8.13
8.96
9.43
9.71
9.98
10.29
10.51
10.47
10.02
9.16
8.02
6.82
5.74
4.87
4.18
3.58
3.01
2.39
1.70
0.87
-0.17
-1.49
-3.09
-4.86
-6.65
-8.31
-9.78
-11.04
-12.15
-13.06
-13.69
-13.84
-13.31
-11.99
-9.89
-7.20
-4.17
-1.11
1.77
4.37
6.64
8.59
10.20
11.43
12.20
12.47
12.25
11.66
10.85
9.97
9.13
8.37
7.71
7.10
6.53
5.96
5.35
4.68
3.89
2.98
1.93
0.77
-0.46
-1.66
-2.75
-3.67
-4.42
-5.11
-5.91
-6.94
-8.24
-9.62
-10.76
-11.27
-10.86
-9.42
-7.13
-4.29
-1.29
1.55
4.02
6.02
7.54
8.60
9.23
9.45
9.32
8.91
8.33
7.69
7.09
6.53
5.96
5.24
4.30
3.13
1.86
0.64
-0.38
-1.19
-1.87
-2.56
-3.40
-4.42
-5.54
-6.64
-7.60
-8.34
-8.87
-9.28
-9.72
-10.29
-11.03
-11.83
-12.48
-12.75
-12.43
-11.47
-9.92
-7.96
-5.76
-3.47
-1.23
0.86
2.69
4.18
5.32
6.16
6.79
7.32
7.78
8.13
8.29
8.16
7.70
6.94
5.96
4.90
3.89
3.00
2.24
1.56
0.88
0.09
-0.87
-2.03
-3.38
-4.91
-6.57
-8.31
-10.10
-11.91
-13.76
-15.68
-17.68
-19.64
-21.38
-22.58
-22.97
-22.38
-20.79
-18.35
-15.31
-11.93
-8.48
-5.16
-2.08
0.67
3.09
5.19
6.97
8.40
9.43
10.06
10.35
10.41
10.37
10.29
10.15
9.85
9.32
8.54
7.55
6.46
5.37
4.32
3.33
2.35
1.36
0.34
-0.77
-1.97
-3.29
-4.72
-6.23
-7.71
-9.08
-10.23
-11.05
-11.46
-11.35
-10.65
-9.34
-7.45
-5.16
-2.66
-0.22
1.99
3.84
5.33
6.51
7.43
8.12
8.55
8.68
8.52
8.19
7.82
7.52
7.34
7.20
6.99
6.63
6.15
5.66
5.25
4.92
4.58
4.06
3.26
2.20
1.05
-0.01
-0.90
-1.65
-2.42
-3.37
-4.55
-5.86
-7.04
-7.76
-7.79
-7.07
-5.67
-3.78
-1.64
0.59
2.78
4.87
6.78
8.46
9.82
10.75
11.22
11.20
10.78
10.04
9.08
8.01
6.89
5.77
4.69
3.65
2.69
1.79
0.92
0.06
-0.87
-1.93
-3.17
-4.59
-6.18
-7.83
-9.43
-10.84
-12.03
-13.04
-14.02
-15.15
-16.47
-17.88
-19.06
-19.59
-19.17
-17.70
-15.36
-12.53
-9.59
-6.80
-4.26
-1.92
0.25
2.21
3.88
5.14
5.99
6.55
6.96
7.30
7.56
7.59
7.24
6.49
5.42
4.26
3.22
2.44
1.92
1.57
1.28
0.94
0.49
-0.10
-0.86
-1.78
-2.85
-4.05
-5.30
-6.58
-7.82
-8.96
-9.93
-10.62
-10.89
-10.65
-9.85
-8.49
-6.67
-4.50
-2.13
0.29
2.66
4.86
6.80
8.43
9.69
10.58
11.10
11.30
11.22
10.91
10.38
9.65
8.78
7.83
6.94
6.23
5.78
5.56
5.42
5.16
4.65
3.85
2.87
1.83
0.91
0.15
-0.50
-1.13
-1.87
-2.79
-3.90
-5.17
-6.55
-7.96
-9.23
-10.12
-10.43
-9.98
-8.75
-6.88
-4.58
-2.08
0.42
2.79
4.96
6.88
8.50
9.77
10.69
11.27
11.55
11.55
11.30
10.85
10.26
9.60
8.94
8.35
7.83
7.37
6.92
6.45
5.92
5.33
4.67
3.87
2.92
1.79
0.57
-0.61
-1.61
-2.36
-2.92
-3.51
-4.36
-5.59
-7.09
-8.50
-9.37
-9.36
-8.37
-6.63
-4.50
-2.35
-0.37
1.43
3.17
4.92
6.65
8.18
9.31
9.90
9.98
9.67
9.18
8.63
8.04
7.36
6.46
5.30
3.90
2.43
1.09
0.05
-0.64
-1.07
-1.43
-1.94
-2.73
-3.78
-4.94
-6.02
-6.89
-7.55
-8.16
-8.91
-9.98
-11.37
-12.91
-14.29
-15.16
-15.21
-14.32
-12.53
-10.03
-7.16
-4.26
-1.61
0.60
2.32
3.63
4.63
5.48
6.24
6.93
7.47
7.79
7.81
7.53
7.01
6.35
5.66
4.99
4.34
3.65
2.87
1.93
0.83
-0.37
-1.61
-2.82
-3.92
-4.89
-5.70
-6.34
-6.83
-7.20
-7.51
-7.84
-8.23
-8.71
-9.19
-9.56
-9.64
-9.26
-8.32
-6.84
-4.92
-2.77
-0.60
1.42
3.17
4.61
5.72
6.52
7.02
7.26
7.29
7.20
7.08
6.98
6.88
6.71
6.39
5.88
5.19
4.39
3.56
2.73
1.86
0.90
-0.15
-1.24
-2.20
-2.89
-3.28
-3.52
-3.88
-4.63
-5.90
-7.56
-9.33
-10.82
-11.72
-11.91
-11.41
-10.37
-8.94
-7.26
-5.40
-3.45
-1.50
0.34
1.99
3.42
4.66
5.78
6.82
7.74
8.43
8.73
8.54
7.92
7.05
6.15
5.42
4.91
4.52
4.14
3.66
3.06
2.41
1.79
1.26
0.83
0.44
0.01
-0.52
-1.23
-2.15
-3.29
-4.63
-6.09
-7.58
-8.95
-9.97
-10.43
-10.09
-8.87
-6.87
-4.37
-1.74
0.71
2.82
4.60
6.18
7.66
9.08
10.35
11.34
11.95
12.14
11.96
11.51
10.89
10.19
9.45
8.70
7.93
7.13
6.25
5.27
4.16
2.96
1.72
0.49
-0.64
-1.60
-2.35
-2.89
-3.30
-3.73
-4.36
-5.35
-6.76
-8.50
-10.29
-11.77
-12.56
-12.44
-11.38
-9.60
-7.46
-5.32
-3.45
-1.92
-0.67
0.48
1.66
2.93
4.22
5.38
6.25
6.69
6.64
6.16
5.42
4.62
4.01
3.69
3.66
3.76
3.78
3.56
3.08
2.48
1.99
1.79
1.92
2.25
2.51
2.45
1.90
0.92
-0.29
-1.37
-2.05
-2.11
-1.55
-0.52
0.80
2.27
3.93
6.02
8.84
12.60
17.20
22.19
26.89
30.71
33.44
35.45
37.53
40.56
44.99
50.56
56.34
61.16
64.20
65.47
65.86
66.75
69.42
74.46
81.58
89.82
97.92
104.52
108.23
107.64
101.63
89.92
73.76
55.98
40.35
29.99
25.91
26.09
26.17
21.48
9.46
-9.07
-30.57
-51.18
-69.12
-85.58
-103.43
-124.62
-148.06
-169.65
-184.36
-189.08
-184.47
-174.40
-163.48
-154.35
-146.46
-136.95
-122.92
-103.45
-80.06
-55.71
-33.12
-13.74
2.48
16.38
28.88
40.55
51.71
62.69
73.88
85.56
97.49
108.90
118.71
126.09
130.94
133.98
136.18
137.98
138.61
135.77
126.26
107.19
77.59
39.63
-1.20
-37.41
-61.85
-70.11
-61.93
-40.86
-12.55
17.45
45.32
69.29
89.11
104.89
116.43
122.99
123.55
117.25
103.74
83.13
55.87
22.73
-15.00
-55.16
-94.53
-129.00
-154.38
-167.60
-167.75
-156.46
-137.37
-114.82
-92.59
-73.21
-58.05
-47.71
-42.34
-41.42
-43.30
-45.12
-43.35
-35.11
-19.58
1.39
23.61
41.81
51.40
49.97
38.06
19.00
-2.21
-20.33
-31.35
-33.47
-27.24
-15.11
-0.52
13.00
22.51
26.01
22.61
12.66
-2.33
-19.99
-37.52
-52.39
-62.94
-68.76
-70.60
-70.00
-68.75
-68.12
-68.96
-71.65
-76.11
-81.86
-88.17
-94.28
-99.73
-104.47
-108.70
-112.94
-117.70
-123.07
-128.63
-133.57
-137.18
-139.48
-141.17
-143.00
-145.93
-150.79
-157.65
-165.92
-174.74
-183.31
-191.65
-199.76
-205.85
-208.03
-204.91
-195.22
-178.29
-154.39
-124.52
-91.33
-57.29
-21.86
14.72
50.07
81.61
106.86
123.97
132.34
131.14
121.77
112.04
109.43
118.04
139.39
171.14
206.36
235.08
244.68
226.11
181.10
114.63
31.88
-59.35
-149.16
-226.68
-264.72
-241.68
-181.55
-102.38
-9.99
82.26
162.49
224.47
267.68
295.94
311.97
318.23
319.83
317.12
306.10
284.28
252.17
211.60
165.05
108.44
46.44
-6.28
-38.38
-48.54
-44.86
-33.06
-16.92
0.88
17.66
32.79
47.33
60.27
68.47
68.76
59.57
40.27
11.86
-23.28
-59.57
-87.42
-100.19
-98.27
-87.78
-74.79
-62.88
-52.80
-43.95
-35.12
-25.59
-17.50
-10.71
-5.18
0.03
5.92
13.30
22.44
33.42
45.86
58.53
70.65
79.64
82.49
76.61
60.81
35.50
2.76
-34.24
-72.56
-102.30
-114.65
-107.80
-88.14
-64.16
-41.39
-22.02
-6.51
2.02
5.43
4.23
-0.49
-5.99
-8.59
-5.60
2.92
17.66
34.88
50.57
60.58
63.02
59.01
51.76
44.64
39.64
37.13
35.88
35.06
33.22
29.31
23.08
15.13
6.43
-2.07
-9.57
-15.96
-20.88
-24.64
-27.80
-30.77
-33.75
-36.75
-39.76
-42.61
-45.15
-46.72
-46.72
-44.77
-40.93
-35.75
-30.18
-25.24
-21.53
-19.25
-18.02
-17.30
-16.72
-16.29
-16.22
-16.69
-17.60
-18.34
-18.08
-15.96
-11.49
-4.95
2.55
9.29
13.45
13.70
9.68
2.14
-7.27
-16.67
-24.58
-30.34
-33.97
-35.71
-35.57
-33.11
-27.80
-19.46
-8.80
2.50
12.34
18.86
21.20
19.70
15.61
10.48
5.69
2.02
-0.43
-2.12
-3.86
-6.36
-10.12
-15.38
-21.98
-29.35
-36.62
-42.87
-47.39
-49.83
-50.00
-48.05
-44.68
-40.90
-37.59
-35.16
-33.50
-32.16
-30.62
-28.19
-24.69
-20.64
-16.95
-14.12
-11.88
-9.45
-6.06
-1.29
5.35
13.90
23.85
34.29
44.56
54.63
65.03
76.71
86.68
92.45
93.85
92.50
89.17
83.52
75.60
66.57
58.17
51.61
47.37
44.47
41.25
36.39
29.94
23.40
18.73
17.20
19.02
24.75
33.72
44.89
56.26
64.60
65.92
56.79
36.34
7.49
-23.17
-48.29
-62.60
-64.92
-57.89
-46.07
-34.01
-25.00
-21.11
-24.11
-36.71
-61.37
-98.53
-144.78
-192.31
-230.44
-248.56
-239.45
-202.08
-142.95
-73.57
-6.11
50.63
93.13
122.41
141.61
153.64
159.36
157.06
144.85
123.14
95.11
65.23
37.42
14.06
-5.93
-20.34
-26.50
-24.30
-15.93
-3.78
10.77
26.83
40.87
50.51
54.03
50.03
38.81
23.32
8.26
-1.81
-4.01
2.23
16.26
35.11
53.73
67.05
71.86
67.13
53.82
34.54
9.31
-14.92
-29.13
-29.54
-19.22
-4.21
10.39
22.04
30.51
36.72
42.02
45.55
44.03
34.12
14.87
-11.29
-39.27
-63.52
-80.45
-90.17
-95.37
-99.79
-105.54
-111.60
-114.73
-111.64
-101.16
-85.02
-66.75
-50.51
-39.42
-34.12
-32.85
-32.67
-31.04
-26.84
-20.33
-12.37
-3.83
4.55
12.72
21.18
30.47
40.55
50.62
59.43
65.82
69.21
69.62
67.72
64.47
60.66
56.72
52.73
48.76
45.06
42.14
40.44
40.05
40.51
40.91
40.20
37.60
32.89
26.50
19.19
11.83
5.07
-0.76
-5.59
-9.54
-12.78
-15.58
-18.22
-21.03
-24.28
-28.06
-32.14
-36.02
-39.03
-40.56
-40.32
-38.49
-35.61
-32.36
-29.27
-26.52
-23.98
-21.35
-18.45
-15.30
-12.19
-9.45
-7.40
-6.14
-5.64
-5.77
-6.38
-7.35
-8.53
-9.78
-10.96
-11.94
-12.66
-13.15
-13.50
-13.83
-14.24
-14.81
-15.57
-16.55
-17.79
-19.30
-21.08
-23.04
-25.07
-27.10
-29.03
-30.75
-32.06
-32.70
-32.35
-30.81
-28.08
-24.37
-20.08
-15.56
-11.04
-6.58
-2.11
2.44
7.08
11.76
16.43
21.04
25.56
29.94
34.01
37.58
40.40
42.29
43.21
43.26
42.69
41.75
40.71
39.67
38.60
37.39
35.86
33.88
31.41
28.48
25.17
21.59
17.82
13.95
10.08
6.31
2.72
-0.68
-3.92
-7.07
-10.09
-12.84
-15.06
-16.44
-16.72
-15.80
-13.71
-10.65
-6.87
-2.66
1.65
5.73
9.25
11.97
13.80
14.74
14.94
14.57
13.76
12.63
11.30
9.87
8.46
7.21
6.21
5.50
5.06
4.85
4.76
4.66
4.38
3.73
2.54
0.74
-1.62
-4.34
-7.16
-9.84
-12.26
-14.46
-16.57
-18.73
-20.96
-23.05
-24.64
-25.34
-24.90
-23.30
-20.74
-17.54
-13.97
-10.18
-6.21
-2.08
2.13
6.26
10.06
13.32
15.87
17.67
18.74
19.17
19.03
18.36
17.21
15.67
13.86
11.95
10.05
8.24
6.45
4.63
2.71
0.69
-1.36
-3.30
-5.01
-6.44
-7.56
-8.47
-9.29
-10.23
-11.51
-13.30
-15.57
-18.11
-20.49
-22.21
-22.88
-22.30
-20.59
-17.99
-14.85
-11.43
-7.89
-4.36
-0.92
2.28
5.09
7.40
9.19
10.52
11.51
12.24
12.76
13.07
13.15
13.00
12.65
12.14
11.55
10.91
10.21
9.45
8.56
7.49
6.23
4.78
3.24
1.74
0.39
-0.74
-1.69
-2.58
-3.61
-4.96
-6.74
-8.93
-11.35
-13.62
-15.29
-15.87
-15.09
-12.90
-9.57
-5.55
-1.34
2.62
6.03
8.70
10.56
11.64
12.03
11.93
11.55
11.10
10.64
10.11
9.40
8.43
7.27
6.08
5.09
4.42
4.04
3.77
3.41
2.87
2.11
1.23
0.28
-0.75
-1.93
-3.30
-4.86
-6.51
-8.17
-9.79
-11.37
-12.88
-14.23
-15.16
-15.40
-14.71
-13.03
-10.53
-7.48
-4.19
-0.92
2.17
5.01
7.54
9.73
11.54
12.95
13.91
14.43
14.52
14.23
13.63
12.85
11.97
11.07
10.21
9.37
8.53
7.62
6.59
5.39
4.02
2.50
0.89
-0.72
-2.25
-3.64
-4.87
-5.98
-7.04
-8.13
-9.30
-10.55
-11.79
-12.86
-13.54
-13.68
-13.13
-11.91
-10.12
-8.00
-5.82
-3.79
-2.00
-0.40
1.12
2.63
4.14
5.49
6.52
7.08
7.13
6.77
6.15
5.47
4.89
4.52
4.40
4.51
4.70
4.83
4.71
4.21
3.29
1.99
0.44
-1.19
-2.69
-3.88
-4.70
-5.24
-5.71
-6.42
-7.59
-9.23
-11.10
-12.82
-13.98
-14.37
-13.97
-12.93
-11.43
-9.65
-7.66
-5.53
-3.33
-1.22
0.68
2.26
3.50
4.44
5.12
5.53
5.66
5.46
4.97
4.28
3.55
2.95
2.57
2.38
2.28
2.10
1.69
0.96
-0.09
-1.39
-2.81
-4.23
-5.55
-6.73
-7.82
-8.94
-10.17
-11.55
-13.05
-14.55
-15.86
-16.81
-17.22
-16.98
-16.04
-14.46
-12.38
-10.02
-7.56
-5.13
-2.74
-0.36
2.03
4.34
6.41
8.06
9.14
9.66
9.71
9.47
9.09
8.66
8.25
7.86
7.49
7.11
6.66
6.04
5.17
4.02
2.65
1.18
-0.26
-1.62
-2.89
-4.20
-5.63
-7.29
-9.18
-11.26
-13.42
-15.46
-17.10
-18.03
-17.95
-16.71
-14.41
-11.40
-8.15
-5.08
-2.41
-0.13
1.91
3.89
5.87
7.78
9.48
10.80
11.68
12.15
12.28
12.17
11.92
11.57
11.18
10.74
10.22
9.54
8.61
7.41
5.96
4.38
2.83
1.45
0.32
-0.60
-1.38
-2.16
-3.07
-4.20
-5.58
-7.23
-9.03
-10.80
-12.23
-12.97
-12.73
-11.46
-9.31
-6.64
-3.83
-1.14
1.37
3.77
6.11
8.37
10.40
11.98
12.99
13.43
13.45
13.24
12.95
12.63
12.30
11.92
11.50
11.09
10.73
10.47
10.26
9.99
9.54
8.82
7.80
6.53
5.10
3.58
2.00
0.32
-1.51
-3.51
-5.61
-7.68
-9.53
-10.94
-11.73
-11.74
-10.87
-9.16
-6.74
-3.90
-0.95
1.83
4.30
6.45
8.36
10.11
11.69
12.98
13.88
14.32
14.36
14.15
13.79
13.35
12.82
12.14
11.31
10.32
9.20
7.96
6.59
5.09
3.51
1.94
0.47
-0.83
-1.98
-3.07
-4.21
-5.46
-6.87
-8.36
-9.84
-11.15
-12.11
-12.58
-12.46
-11.75
-10.50
-8.82
-6.83
-4.60
-2.18
0.38
3.02
5.57
7.89
9.78
11.15
11.94
12.23
12.13
11.75
11.21
10.55
9.81
9.00
8.16
7.34
6.56
5.83
5.14
4.43
3.65
2.80
1.86
0.86
-0.19
-1.32
-2.58
-4.07
-5.88
-7.99
-10.25
-12.36
-13.95
-14.67
-14.37
-13.10
-11.09
-8.66
-6.05
-3.38
-0.67
2.10
4.86
7.47
9.70
11.41
12.55
13.21
13.55
13.72
13.78
13.71
13.40
12.81
11.95
10.94
9.91
8.95
8.04
7.07
5.92
4.58
3.15
1.82
0.74
-0.08
-0.80
-1.68
-2.92
-4.61
-6.65
-8.80
-10.75
-12.21
-12.96
-12.85
-11.87
-10.13
-7.80
-5.14
-2.39
0.27
2.73
4.92
6.86
8.61
10.21
11.70
12.98
13.93
14.42
14.39
13.91
13.19
12.48
11.91
11.47
11.01
10.35
9.38
8.10
6.63
5.07
3.52
2.01
0.57
-0.78
-2.03
-3.22
-4.42
-5.72
-7.19
-8.80
-10.40
-11.72
-12.49
-12.49
-11.63
-9.96
-7.71
-5.14
-2.54
-0.13
1.98
3.79
5.39
6.89
8.35
9.76
11.02
11.99
12.49
12.44
11.83
10.74
9.38
7.98
6.77
5.90
5.42
5.27
5.29
5.28
5.09
4.61
3.83
2.81
1.64
0.35
-1.02
-2.46
-3.95
-5.42
-6.79
-7.97
-8.89
-9.49
-9.68
-9.41
-8.66
-7.49
-5.99
-4.33
-2.62
-0.90
0.84
2.62
4.39
6.05
7.44
8.44
9.05
9.32
9.40
9.39
9.36
9.31
9.21
9.03
8.72
8.23
7.54
6.65
5.58
4.45
3.37
2.45
1.78
1.36
1.22
1.29
1.54
1.84
2.05
2.03
1.77
1.45
1.41
2.12
3.92
6.90
10.82
15.17
19.37
22.98
25.94
28.53
31.29
34.74
39.16
44.32
49.61
54.22
57.51
59.44
60.64
62.34
65.79
71.70
79.71
88.33
95.43
99.27
99.47
97.67
97.06
100.96
110.98
125.51
139.60
146.43
139.70
115.80
74.81
20.19
-42.19
-105.19
-161.28
-203.39
-226.20
-227.49
-209.18
-177.05
-139.24
-103.47
-74.84
-54.79
-41.77
-33.15
-27.38
-25.20
-29.30
-42.33
-64.55
-92.33
-118.69
-135.74
-138.04
-125.11
-101.44
-74.07
-49.15
-29.24
-13.03
2.40
18.42
32.58
39.46
33.75
14.17
-14.59
-43.26
-62.00
-65.08
-53.20
-32.98
-13.18
-0.19
4.59
4.26
3.82
6.87
13.47
20.14
21.82
14.71
-1.45
-22.60
-41.33
-49.97
-44.18
-25.65
-1.55
18.54
27.47
23.93
12.56
0.95
-4.86
-3.37
2.44
7.74
9.21
6.85
3.35
1.80
3.74
8.25
12.66
14.27
11.98
6.52
-0.02
-5.25
-7.74
-7.54
-5.96
-4.81
-5.43
-8.09
-11.93
-15.45
-17.26
-16.72
-14.11
-10.45
-6.93
-4.38
-2.99
-2.36
-1.82
-0.76
1.04
3.42
5.97
8.24
9.96
11.10
11.80
12.27
12.65
13.00
13.32
13.57
13.69
13.68
13.49
13.05
12.23
10.93
9.10
6.81
4.27
1.75
-0.47
-2.17
-3.23
-3.70
-3.70
-3.48
-3.33
-3.50
-4.17
-5.26
-6.51
-7.42
-7.47
-6.27
-3.78
-0.31
3.55
7.17
10.10
12.22
13.73
14.99
16.28
17.68
19.02
19.93
20.12
19.48
18.19
16.74
15.67
15.43
16.10
17.41
18.74
19.44
19.20
18.18
16.91
16.11
16.34
17.85
20.73
25.06
30.75
37.00
41.89
42.58
36.50
22.92
4.03
-15.39
-29.80
-35.22
-30.67
-18.03
-0.42
19.63
41.01
63.35
85.62
105.28
118.92
123.90
120.00
109.77
97.23
85.76
76.67
68.98
60.59
50.11
38.26
27.92
22.87
25.75
36.38
51.27
64.55
70.09
63.46
43.02
9.84
-32.79
-80.07
-126.03
-164.00
-187.90
-194.00
-182.72
-159.22
-132.13
-110.65
-101.25
-105.49
-120.04
-138.49
-153.68
-159.90
-153.92
-135.28
-105.98
-69.94
-32.36
1.14
25.53
37.15
34.22
17.29
-10.63
-44.50
-78.21
-105.90
-123.42
-129.33
-124.98
-113.87
-100.36
-88.19
-79.34
-73.66
-69.43
-64.41
-57.09
-47.44
-36.71
-26.50
-17.73
-10.09
-2.46
5.90
14.44
21.27
24.07
21.63
14.82
6.35
-0.53
-3.57
-2.32
2.27
8.89
16.72
25.59
35.39
45.49
54.63
61.47
65.46
67.14
67.75
68.44
69.57
70.68
70.96
69.86
67.41
63.95
59.72
54.57
48.20
40.64
32.51
24.84
18.64
14.34
11.59
9.42
6.78
2.97
-2.05
-7.81
-13.64
-18.98
-23.66
-27.81
-31.66
-35.30
-38.75
-42.00
-45.27
-49.06
-53.99
-60.43
-67.95
-75.08
-79.38
-77.87
-67.83
-47.68
-17.87
18.62
56.35
88.69
109.81
117.01
111.96
100.15
88.52
82.43
83.28
88.63
93.89
94.51
87.49
71.61
47.19
16.02
-17.96
-48.37
-67.43
-68.78
-50.64
-17.45
21.19
54.25
73.61
76.71
66.36
48.30
28.15
9.58
-5.91
-17.93
-26.28
-30.53
-30.36
-26.12
-19.06
-11.38
-5.52
-3.25
-5.23
-10.59
-17.25
-22.69
-24.88
-22.94
-17.36
-9.57
-1.16
6.73
13.54
18.93
22.16
22.03
17.39
8.16
-3.98
-15.79
-23.75
-25.67
-21.88
-15.10
-9.09
-6.87
-9.43
-15.63
-23.10
-29.67
-34.24
-37.03
-38.98
-40.93
-43.05
-44.67
-44.82
-42.74
-38.55
-33.19
-28.01
-24.06
-21.63
-20.19
-18.93
-17.37
-15.63
-14.26
-13.69
-13.74
-13.60
-12.30
-9.20
-4.31
1.85
8.58
15.35
21.90
28.17
34.31
40.61
47.57
55.58
64.53
73.45
80.74
84.79
84.87
81.62
76.76
72.26
69.51
68.97
70.53
74.06
79.92
88.83
101.46
117.85
137.31
158.51
179.72
199.02
214.54
224.57
227.75
223.44
211.59
192.55
166.74
134.37
95.60
51.13
2.79
-46.48
-92.89
-133.05
-164.98
-187.91
-202.09
-207.89
-205.53
-195.67
-181.35
-168.65
-166.14
-181.63
-217.34
-267.49
-319.21
-356.98
-368.40
-348.97
-302.36
-238.36
-168.68
-102.90
-48.07
-9.23
10.15
11.43
-2.03
-21.78
-37.78
-44.27
-41.06
-32.61
-23.78
-16.35
-8.33
4.15
24.54
53.06
86.30
120.17
151.79
179.07
201.31
218.61
230.84
237.70
238.76
228.80
210.80
189.19
167.45
147.17
128.15
109.20
89.42
68.51
46.67
25.88
7.45
-6.66
-14.32
-14.02
-6.03
7.25
21.79
33.22
39.65
41.25
40.32
39.78
41.38
44.50
46.22
43.69
33.95
16.14
-8.80
-37.91
-66.95
-91.49
-108.07
-115.26
-114.17
-108.22
-101.35
-96.87
-95.99
-97.69
-99.71
-99.92
-97.34
-92.30
-86.01
-79.46
-73.21
-67.46
-62.37
-58.31
-55.51
-53.82
-52.53
-50.89
-48.57
-46.11
-44.77
-45.87
-49.81
-55.59
-60.91
-63.03
-59.91
-51.10
-37.90
-22.73
-8.05
4.59
14.85
23.09
29.72
34.64
37.48
38.15
37.38
36.70
37.77
41.37
46.88
52.49
56.17
56.79
54.65
51.22
48.17
46.38
45.51
44.32
41.58
36.85
30.82
24.84
20.08
16.82
14.21
10.80
5.46
-1.79
-9.56
-15.62
-18.08
-16.25
-11.04
-4.40
1.60
5.72
7.80
8.47
8.50
8.29
7.78
6.65
4.69
1.98
-1.08
-3.94
-5.96
-6.60
-5.63
-3.39
-0.79
0.92
0.78
-1.24
-4.09
-5.97
-5.25
-1.32
5.03
11.96
17.46
20.31
20.49
18.99
17.08
15.72
15.25
15.63
16.80
18.75
21.17
22.87
21.70
15.38
2.97
-13.88
-30.89
-42.76
-45.65
-39.18
-26.82
-14.30
-6.96
-7.39
-14.69
-25.33
-35.10
-40.86
-41.33
-36.89
-28.76
-18.36
-7.08
3.52
11.66
15.53
13.98
7.16
-3.19
-14.11
-22.44
-25.95
-24.18
-18.52
-11.51
-5.70
-2.69
-2.70
-4.79
-7.52
-9.56
-10.16
-9.15
-6.84
-3.75
-0.45
2.56
4.90
6.38
7.05
7.20
7.25
7.61
8.49
9.80
11.33
12.90
14.49
16.12
17.64
18.74
19.21
19.21
19.42
20.74
23.67
27.78
31.65
33.33
31.31
25.19
15.90
5.22
-5.11
-14.07
-21.61
-28.23
-34.24
-39.34
-42.55
-42.80
-39.57
-33.34
-25.41
-17.45
-10.68
-5.42
-1.16
2.99
7.61
12.66
17.51
21.41
23.95
25.20
25.67
25.90
26.22
26.65
26.91
26.63
25.49
23.27
19.95
15.68
10.73
5.48
0.40
-4.00
-7.30
-9.23
-9.79
-9.28
-8.17
-7.10
-6.65
-7.26
-9.12
-12.14
-15.92
-19.83
-23.08
-24.96
-24.96
-23.05
-19.67
-15.52
-11.29
-7.46
-4.16
-1.38
0.94
2.69
3.69
3.84
3.23
2.21
1.19
0.50
0.24
0.27
0.29
-0.06
-1.07
-2.86
-5.36
-8.37
-11.61
-14.85
-17.95
-21.00
-24.21
-27.77
-31.64
-35.55
-39.13
-42.12
-44.54
-46.57
-48.61
-51.06
-54.07
-57.50
-60.92
-63.80
-65.66
-66.11
-64.70
-61.64
-57.90
-54.99
-54.48
-57.28
-62.96
-69.33
-72.86
-69.19
-55.44
-31.11
2.16
41.58
83.70
124.68
160.47
187.44
204.31
211.68
212.23
210.11
209.39
211.83
216.10
218.77
216.68
209.75
199.12
185.64
168.92
147.47
119.57
85.04
46.56
2.41
-41.09
-74.54
-91.85
-93.89
-86.48
-75.85
-65.83
-58.08
-53.61
-52.67
-56.14
-62.56
-69.83
-73.66
-69.75
-56.36
-35.71
-12.86
7.65
22.73
27.45
22.61
12.23
-0.07
-12.67
-25.23
-37.32
-47.15
-53.29
-55.65
-55.37
-54.26
-53.92
-55.01
-57.07
-58.88
-58.84
-56.16
-51.07
-44.30
-37.13
-31.03
-27.12
-25.51
-25.74
-26.72
-27.31
-26.81
-24.77
-21.34
-17.01
-12.29
-7.52
-2.88
1.58
5.75
9.47
12.70
15.43
17.62
19.33
20.65
21.68
22.52
23.19
23.66
23.96
24.10
24.16
24.17
24.18
24.14
23.99
23.71
23.35
23.07
23.04
23.37
23.98
24.65
25.11
25.20
24.91
24.39
23.82
23.32
22.88
22.43
21.86
21.04
19.77
17.94
15.48
12.51
9.37
6.53
4.38
3.05
2.23
1.36
-0.18
-2.76
-6.32
-10.47
-14.61
-18.21
-20.95
-22.76
-23.80
-24.34
-24.69
-25.09
-25.61
-26.13
-26.45
-26.37
-25.83
-24.95
-23.98
-23.13
-22.54
-22.31
-22.57
-23.49
-25.30
-28.07
-31.70
-35.88
-40.20
-44.28
-47.86
-50.70
-52.49
-52.82
-51.17
-47.20
-40.92
-32.84
-23.93
-15.28
-7.81
-1.95
2.56
6.50
10.86
16.39
23.12
30.34
36.82
41.38
43.39
43.12
41.60
40.07
39.54
40.28
41.91
43.70
44.93
45.08
43.85
40.99
36.29
29.56
20.81
10.39
-1.12
-13.14
-25.24
-37.10
-48.20
-57.43
-62.99
-62.93
-55.94
-42.22
-23.71
-3.60
14.87
29.53
39.85
46.69
51.43
55.11
58.01
59.83
60.31
59.62
58.44
57.60
57.68
58.71
60.29
61.78
62.61
62.34
60.50
56.54
49.84
39.90
26.61
10.44
-7.55
-25.91
-43.10
-57.81
-69.21
-77.07
-81.75
-84.05
-84.93
-85.19
-85.17
-84.74
-83.43
-80.84
-76.95
-72.21
-67.47
-63.94
-63.09
-66.33
-74.35
-86.29
-98.97
-107.32
-105.73
-90.26
-60.45
-19.82
25.21
67.53
101.32
123.05
131.31
126.15
108.66
81.16
47.57
13.25
-16.16
-36.35
-45.71
-45.64
-39.80
-32.68
-28.03
-28.03
-32.96
-41.55
-51.42
-59.68
-63.65
-61.42
-52.46
-37.77
-19.58
-0.68
16.46
30.24
40.21
46.83
51.01
53.69
55.57
56.94
57.73
57.67
56.36
53.41
48.58
41.92
33.93
25.47
17.66
11.56
7.97
7.17
8.76
11.75
14.92
17.26
18.36
18.60
18.91
20.38
23.65
28.42
33.45
37.17
38.44
37.20
34.61
32.31
31.87
33.87
37.32
40.09
40.22
37.02
31.67
26.72
24.48
26.45
32.22
39.11
43.00
40.43
29.72
11.63
-11.05
-34.74
-54.76
-66.81
-68.59
-61.01
-47.73
-34.76
-28.93
-35.61
-56.91
-88.43
-120.24
-140.67
-141.34
-119.87
-81.21
-35.61
10.97
48.25
69.46
75.37
73.90
69.08
61.20
48.06
28.19
2.78
-24.99
-50.18
-68.08
-76.44
-76.75
-72.04
-65.31
-58.41
-52.02
-46.83
-43.51
-42.13
-42.22
-43.48
-44.76
-44.55
-41.30
-34.37
-21.36
-4.52
11.12
20.65
20.81
11.68
-3.88
-19.56
-27.07
-19.14
6.68
45.36
89.76
129.39
154.43
159.01
144.71
119.24
91.87
68.45
50.36
35.32
18.83
-3.20
-34.15
-73.43
-116.52
-156.16
-184.74
-195.52
-183.92
-150.39
-93.08
-23.28
40.38
83.36
103.07
106.07
101.94
98.29
99.38
102.64
102.09
92.54
70.78
36.41
-8.82
-60.88
-109.06
-146.99
-171.53
-181.29
-169.99
-134.02
-75.07
-2.01
70.38
126.24
153.79
150.94
126.03
93.86
68.36
55.72
52.76
51.36
45.68
36.00
28.89
33.06
53.55
88.56
126.98
152.88
154.09
131.71
98.20
67.33
48.80
37.66
25.16
3.96
-28.54
-69.98
-113.14
-150.30
-174.19
-181.06
-172.34
-153.96
-134.70
-121.81
-117.92
-122.23
-125.65
-120.35
-102.62
-73.11
-35.12
6.87
50.47
88.19
113.58
125.47
127.17
123.42
117.55
110.75
102.61
92.49
80.20
67.22
55.75
47.78
41.87
36.17
29.44
21.45
12.84
4.58
-1.50
-3.69
-2.00
1.59
4.30
3.59
-1.51
-10.56
-22.00
-33.29
-42.03
-47.09
-48.89
-48.53
-47.29
-46.13
-45.64
-46.19
-47.69
-49.94
-52.98
-57.27
-63.28
-71.29
-80.98
-91.27
-100.37
-106.18
-107.05
-102.58
-93.81
-82.79
-71.79
-62.51
-55.62
-50.89
-47.65
-45.34
-43.82
-43.23
-43.57
-44.32
-44.32
-42.05
-36.13
-25.81
-11.16
7.08
27.77
49.70
71.63
92.18
109.66
122.20
128.15
126.75
118.53
105.41
90.17
75.71
64.21
56.59
52.58
51.10
50.88
50.93
50.71
50.10
49.11
47.72
45.79
43.20
39.87
35.84
31.15
25.90
20.21
14.27
8.43
3.06
-1.46
-4.95
-7.36
-8.78
-9.30
-8.94
-7.67
-5.59
-3.00
-0.42
1.59
2.69
2.91
2.73
2.94
4.47
8.01
13.81
21.58
30.54
39.67
47.95
54.59
59.20
62.03
63.73
65.08
66.70
68.71
70.49
70.78
68.03
60.84
48.75
32.36
13.07
-6.91
-24.90
-38.32
-45.53
-46.70
-44.10
-41.58
-44.11
-56.34
-80.52
-114.78
-152.91
-185.83
-204.46
-202.66
-178.68
-136.34
-83.81
-30.54
15.87
51.52
76.04
91.40
100.50
106.98
113.34
120.32
127.13
132.00
132.56
126.42
111.61
82.91
41.19
-6.16
-49.27
-81.47
-101.35
-110.83
-112.66
-109.30
-102.89
-94.66
-85.87
-78.42
-73.56
-71.45
-71.39
-72.73
-75.07
-77.68
-78.22
-73.66
-62.34
-44.32
-21.76
2.07
24.35
43.84
61.00
77.06
93.27
107.09
115.37
116.24
110.35
100.73
91.23
84.63
80.34
78.14
75.72
71.12
63.35
52.75
40.76
29.05
18.80
10.26
2.76
-5.54
-16.04
-29.02
-43.28
-57.03
-68.43
-76.79
-82.74
-87.27
-90.96
-92.76
-90.65
-83.08
-70.40
-55.33
-41.87
-33.32
-30.23
-30.24
-29.12
-23.36
-12.19
1.99
15.13
24.00
27.66
27.60
26.03
23.88
19.74
10.87
-4.45
-24.88
-45.75
-61.30
-67.46
-63.76
-52.99
-39.28
-25.48
-10.70
7.37
31.41
61.21
92.07
117.04
130.83
132.21
123.25
107.20
86.72
63.47
38.56
13.48
-9.62
-28.54
-41.87
-49.55
-53.16
-53.98
-52.96
-50.84
-48.09
-44.83
-40.99
-36.39
-31.03
-25.12
-19.05
-13.29
-8.40
-4.74
-2.26
-0.79
0.12
0.89
1.82
3.00
4.33
5.59
6.57
7.30
7.87
8.44
9.03
9.52
9.80
9.82
9.61
9.29
8.93
8.49
7.83
6.76
5.13
2.96
0.35
-2.50
-5.39
-8.03
-10.07
-11.09
-10.79
-9.07
-6.19
-2.66
0.89
3.99
6.35
7.93
8.77
8.97
8.60
7.80
6.80
5.89
5.31
5.20
5.48
5.94
6.33
6.45
6.20
5.59
4.68
3.53
2.21
0.75
-0.80
-2.39
-3.90
-5.18
-6.11
-6.60
-6.69
-6.55
-6.44
-6.63
-7.32
-8.58
-10.27
-12.06
-13.54
-14.27
-13.98
-12.63
-10.40
-7.65
-4.78
-2.17
-0.03
1.58
2.69
3.46
4.05
4.68
5.51
6.65
8.11
9.79
11.48
12.90
13.80
14.00
13.49
12.39
10.91
9.24
7.51
5.78
4.06
2.40
0.83
-0.59
-1.98
-3.56
-5.67
-8.64
-12.63
-17.52
-22.82
-27.79
-31.57
-33.43
-33.03
-30.51
-26.47
-21.72
-16.97
-12.56
-8.34
-3.87
1.27
7.21
13.59
19.75
25.00
28.98
31.73
33.68
35.49
37.80
41.06
45.29
49.99
53.92
55.12
51.33
40.87
23.55
1.18
-22.69
-43.74
-58.27
-64.22
-61.49
-51.53
-36.49
-18.55
0.42
18.72
34.75
47.15
54.95
57.75
55.69
49.28
39.29
26.75
13.12
0.18
-10.40
-17.55
-21.12
-21.94
-21.49
-21.44
-23.20
-27.80
-35.77
-46.99
-60.45
-74.07
-84.99
-90.47
-88.80
-80.03
-65.89
-49.13
-32.52
-18.09
-6.80
1.28
6.61
9.92
12.00
13.62
15.38
17.57
20.06
22.36
23.80
23.91
22.61
20.25
17.47
14.92
13.05
12.04
11.79
12.07
12.67
13.50
14.57
15.90
17.47
19.09
20.49
21.42
21.72
21.39
20.53
19.21
17.49
15.42
13.08
10.67
8.42
6.50
4.99
3.80
2.79
1.87
1.04
0.34
-0.21
-0.74
-1.50
-2.76
-4.66
-7.11
-9.81
-12.35
-14.31
-15.40
-15.48
-14.53
-12.63
-9.95
-6.72
-3.21
0.32
3.65
6.66
9.34
11.76
13.96
15.91
17.55
18.80
19.62
20.00
19.94
19.44
18.52
17.27
15.81
14.25
12.61
10.78
8.58
5.91
2.90
-0.02
-2.32
-3.56
-3.63
-2.82
-1.64
-0.58
0.08
0.29
0.16
-0.24
-0.92
-2.00
-3.53
-5.40
-7.37
-9.08
-10.21
-10.58
-10.16
-9.06
-7.51
-5.74
-3.99
-2.40
-1.05
0.05
0.96
1.71
2.28
2.65
2.75
2.59
2.18
1.52
0.64
-0.51
-1.92
-3.53
-5.21
-6.74
-7.92
-8.61
-8.76
-8.42
-7.71
-6.82
-5.94
-5.33
-5.17
-5.60
-6.56
-7.84
-9.09
-9.93
-10.12
-9.65
-8.75
-7.80
-7.14
-6.90
-6.92
-6.87
-6.42
-5.40
-3.83
-1.96
-0.08
1.60
2.94
3.93
4.56
4.89
4.95
4.88
4.79
4.73
4.71
4.63
4.39
3.98
3.52
3.17
3.06
3.20
3.51
3.84
4.08
4.10
3.85
3.24
2.26
0.97
-0.46
-1.68
-2.28
-1.90
-0.35
2.32
5.91
10.10
14.60
19.12
23.45
27.48
31.13
34.34
37.06
39.26
40.96
42.21
43.06
43.58
43.86
43.85
43.30
41.69
38.39
32.74
24.32
13.14
-0.27
-14.81
-29.34
-43.03
-55.41
-66.13
-74.62
-80.09
-81.71
-78.91
-71.39
-59.89
-46.20
-32.61
-20.94
-11.91
-5.22
0.13
5.26
11.59
19.63
28.76
37.72
45.67
52.57
59.01
65.60
72.63
80.78
90.14
99.91
108.69
114.85
116.51
111.36
97.07
67.76
23.86
-26.63
-71.81
-102.95
-118.11
-120.79
-116.62
-110.57
-105.44
-100.94
-95.78
-89.38
-82.43
-76.00
-71.01
-67.85
-66.29
-65.67
-64.99
-64.21
-64.43
-66.36
-68.38
-66.26
-55.02
-31.72
2.21
41.33
78.59
107.47
124.98
132.59
133.87
131.24
124.17
109.95
86.68
55.35
20.18
-12.99
-39.01
-55.41
-62.24
-60.60
-51.35
-34.55
-10.88
16.85
41.63
56.40
57.01
43.97
21.96
-2.53
-23.75
-38.62
-47.12
-50.18
-48.83
-44.13
-37.27
-29.63
-22.68
-17.36
-13.85
-11.73
-10.18
-8.33
-5.55
-1.40
4.52
11.98
20.60
29.81
38.50
45.11
48.13
46.66
40.76
31.31
19.72
7.78
-2.78
-10.62
-15.01
-16.00
-14.68
-11.99
-8.89
-6.15
-4.03
-2.41
-1.00
0.43
2.02
3.83
5.96
8.44
11.22
14.21
17.26
20.38
23.55
26.92
30.75
35.36
40.65
45.97
50.22
52.30
51.63
48.65
44.81
42.00
41.67
43.97
47.41
49.27
46.41
36.38
18.44
-5.89
-33.00
-57.95
-76.02
-84.22
-82.38
-73.21
-61.26
-51.13
-45.82
-45.95
-50.18
-56.40
-62.90
-68.99
-74.74
-80.53
-86.60
-93.04
-99.86
-106.99
-113.98
-119.65
-122.07
-119.01
-108.84
-91.33
-67.96
-41.54
-15.37
7.54
25.15
36.41
41.26
40.42
35.22
27.44
19.07
11.94
7.40
6.08
7.78
11.58
16.17
20.29
23.10
24.36
24.45
23.96
23.38
22.84
22.13
20.91
18.94
16.31
13.29
10.31
7.73
5.81
4.74
4.66
5.65
7.70
10.64
14.09
17.60
20.77
23.49
25.91
28.32
30.94
33.73
36.45
38.67
40.07
40.50
40.13
39.26
38.19
37.04
35.80
34.42
32.87
31.20
29.60
28.36
27.76
27.82
28.35
29.01
29.49
29.57
29.20
28.57
28.13
28.44
29.63
31.46
33.43
35.19
36.49
37.31
37.94
38.87
40.77
43.71
47.33
51.12
54.91
58.50
61.55
63.41
62.94
58.69
48.53
30.83
5.38
-25.87
-60.01
-94.31
-127.19
-158.81
-185.39
-202.49
-206.82
-198.43
-180.24
-156.84
-132.95
-112.23
-96.56
-84.93
-74.49
-61.56
-44.91
-23.11
2.56
28.85
52.47
71.07
84.03
91.36
93.17
89.49
80.78
67.99
51.22
33.12
16.99
5.50
-0.70
-2.90
-3.40
-4.04
-5.67
-7.84
-9.12
-8.43
-5.61
-1.69
1.72
3.37
3.14
1.78
0.44
0.20
1.25
3.06
4.77
5.69
5.54
4.27
1.68
-2.60
-8.65
-15.98
-23.12
-27.89
-28.09
-22.49
-11.48
2.85
17.37
29.03
35.74
37.08
34.16
29.06
23.84
19.87
17.54
16.44
15.91
15.38
14.63
13.64
12.47
11.14
9.63
8.03
6.51
5.25
4.26
3.29
1.91
-0.36
-3.80
-8.47
-14.12
-20.37
-26.72
-32.65
-37.68
-41.50
-44.03
-45.40
-46.00
-46.31
-46.78
-47.70
-49.03
-50.36
-51.03
-50.31
-47.73
-43.30
-37.56
-31.39
-25.64
-20.85
-17.13
-14.15
-11.42
-8.39
-4.63
0.14
5.88
12.27
18.65
24.19
28.19
30.29
30.66
29.84
28.48
27.06
25.79
24.65
23.55
22.52
21.68
21.12
20.80
20.50
19.93
18.83
17.12
14.89
12.31
9.55
6.77
4.07
1.55
-0.67
-2.41
-3.54
-3.95
-3.64
-2.70
-1.27
0.47
2.41
4.40
6.36
8.19
9.81
11.13
12.13
12.79
13.13
13.17
12.98
12.63
12.21
11.84
11.64
11.66
11.83
12.01
11.98
11.56
10.66
9.31
7.65
5.86
4.08
2.30
0.44
-1.49
-3.38
-5.06
-6.36
-7.22
-7.61
-7.62
-7.32
-6.71
-5.69
-4.12
-2.00
0.52
3.16
5.75
8.16
10.33
12.31
14.25
16.31
18.55
20.94
23.34
25.90
28.53
30.90
32.72
34.03
35.27
37.00
39.57
42.94
47.33
52.13
56.22
58.60
59.17
58.78
58.67
59.83
62.61
67.79
74.77
81.89
87.36
90.39
91.39
91.47
91.84
93.62
99.09
108.65
120.26
130.01
133.59
127.55
110.08
81.55
36.92
-19.41
-76.10
-121.43
-150.57
-165.83
-171.92
-172.14
-167.40
-159.33
-145.80
-126.87
-105.18
-84.41
-67.23
-54.40
-45.31
-38.85
-34.00
-29.19
-24.26
-20.13
-17.85
-17.68
-18.92
-20.60
-22.04
-23.07
-23.08
-22.26
-21.31
-20.89
-21.13
-21.60
-21.71
-21.12
-19.72
-17.06
-13.05
-7.78
-1.45
5.81
13.93
22.70
31.73
40.48
48.55
55.49
60.88
64.47
66.25
66.48
65.54
63.90
61.91
59.77
57.48
54.89
51.93
48.84
46.20
44.79
45.27
47.86
52.25
57.77
63.62
68.88
72.31
72.16
66.30
52.71
30.40
0.04
-35.91
-73.95
-110.62
-143.40
-170.96
-192.65
-207.79
-215.30
-213.92
-203.01
-183.36
-157.48
-129.14
-102.46
-80.74
-65.74
-57.51
-54.82
-55.80
-58.61
-61.76
-64.18
-65.20
-64.45
-61.93
-57.96
-53.21
-48.55
-44.78
-42.38
-41.29
-40.92
-40.27
-38.27
-34.14
-27.70
-19.55
-10.84
-2.97
3.02
6.81
8.92
10.35
12.17
14.99
18.81
23.22
27.68
31.87
35.64
38.94
41.74
43.95
45.59
46.90
48.28
50.10
52.38
54.75
56.52
57.01
55.78
52.75
48.03
41.77
34.09
25.26
15.89
7.12
0.44
-2.72
-1.54
3.80
12.07
21.47
30.33
37.69
43.64
49.06
55.04
62.20
70.37
78.62
85.75
90.79
93.37
93.73
92.41
89.99
86.96
83.73
80.93
79.37
79.73
81.83
84.06
83.68
77.77
64.66
44.90
21.01
-3.72
-26.69
-46.87
-64.65
-80.79
-95.50
-108.02
-117.15
-121.97
-122.25
-118.04
-109.12
-94.77
-74.54
-49.36
-22.35
1.68
17.73
22.51
15.73
0.14
-19.72
-39.23
-55.12
-66.00
-72.15
-74.68
-74.81
-73.40
-70.94
-67.60
-63.38
-58.30
-52.32
-45.40
-37.38
-27.91
-16.49
-2.52
14.57
35.24
59.78
88.21
119.97
153.52
186.02
213.41
231.20
235.68
225.20
200.74
165.61
124.31
81.15
39.33
0.82
-33.16
-61.45
-82.70
-95.69
-99.89
-95.95
-85.76
-71.91
-57.00
-43.07
-31.38
-22.49
-16.56
-13.48
-12.99
-14.53
-17.31
-20.37
-22.80
-23.94
-23.56
-21.95
-19.81
-18.12
-17.92
-19.96
-24.42
-30.73
-37.49
-42.90
-45.27
-43.61
-37.99
-29.50
-19.87
-10.90
-4.01
-0.06
0.65
-1.71
-6.61
-13.19
-20.40
-27.13
-32.52
-36.22
-38.34
-39.34
-39.70
-39.67
-39.31
-38.55
-37.47
-36.34
-35.55
-35.35
-35.67
-36.05
-35.78
-34.25
-31.13
-26.46
-20.56
-13.85
-6.74
0.47
7.42
13.71
18.79
22.12
23.36
22.53
20.14
17.06
14.36
13.02
13.71
16.66
21.63
27.96
34.80
41.27
46.70
50.80
53.75
56.11
58.59
61.76
65.81
70.44
74.84
77.85
78.21
74.83
67.07
55.01
39.48
21.98
4.32
-11.80
-25.16
-35.19
-41.94
-45.90
-47.72
-48.08
-47.61
-46.84
-46.24
-46.17
-46.78
-47.84
-48.81
-48.86
-47.15
-43.22
-37.21
-29.89
-22.41
-15.75
-10.47
-6.52
-3.48
-0.98
1.11
2.60
3.24
3.04
2.38
1.93
2.22
3.40
5.09
6.61
7.34
7.01
5.78
4.11
2.46
1.07
-0.04
-1.02
-1.97
-2.91
-3.76
-4.52
-5.31
-6.33
-7.78
-9.71
-12.01
-14.44
-16.80
-18.94
-20.79
-22.34
-23.49
-24.02
-23.63
-22.06
-19.25
-15.37
-10.81
-6.05
-1.59
2.17
4.99
6.81
7.71
7.94
7.81
7.64
7.63
7.84
8.11
8.19
7.81
6.82
5.27
3.42
1.64
0.23
-0.67
-1.09
-1.23
-1.33
-1.58
-2.07
-2.84
-3.83
-4.94
-5.97
-6.71
-6.97
-6.81
-6.51
-6.47
-7.05
-8.22
-9.59
-10.56
-10.53
-9.20
-6.67
-3.32
0.35
3.85
6.81
8.96
10.17
10.49
10.20
9.69
9.39
9.50
9.95
10.44
10.67
10.44
9.83
9.07
8.34
7.69
6.99
6.01
4.62
2.88
0.98
-0.84
-2.46
-3.88
-5.19
-6.47
-7.80
-9.27
-11.04
-13.33
-16.28
-19.76
-23.24
-25.83
-26.63
-25.10
-21.36
-16.15
-10.56
-5.53
-1.56
1.41
3.76
5.89
8.01
10.07
11.95
13.65
15.32
17.21
19.49
22.10
24.74
27.02
28.56
29.18
28.94
28.12
27.17
26.57
26.59
27.18
27.95
28.29
27.61
25.59
22.38
18.41
14.24
10.25
6.53
3.01
-0.37
-3.46
-5.94
-7.50
-8.12
-8.12
-8.10
-8.68
-10.16
-12.41
-14.82
-16.55
-16.84
-15.22
-11.71
-6.72
-0.94
4.84
9.89
13.72
16.08
16.95
16.44
14.71
11.92
8.32
4.31
0.37
-2.97
-5.41
-6.97
-7.98
-8.85
-9.90
-11.10
-12.21
-12.96
-13.32
-13.58
-14.26
-15.78
-18.18
-21.13
-24.04
-26.39
-27.91
-28.58
-28.41
-27.29
-24.89
-20.90
-15.36
-8.86
-2.48
2.60
5.55
6.32
5.57
4.38
3.72
4.11
5.49
7.44
9.51
11.47
13.42
15.61
18.18
20.97
23.40
24.82
24.78
23.42
21.50
20.03
19.80
20.93
22.68
23.90
23.55
21.20
17.26
12.67
8.46
5.35
3.51
2.75
2.72
3.21
4.18
5.74
8.02
10.99
14.37
17.66
20.15
21.06
19.67
15.52
8.60
-0.54
-10.91
-21.30
-30.69
-38.48
-44.56
-49.20
-52.77
-55.62
-58.01
-60.34
-63.14
-67.06
-72.57
-79.62
-87.55
-95.28
-101.76
-106.54
-109.98
-113.18
-117.44
-123.70
-132.09
-141.99
-152.15
-161.06
-167.11
-168.52
-163.39
-150.00
-127.25
-95.19
-55.16
-9.44
39.75
90.90
143.22
195.68
245.93
289.77
321.99
338.31
337.37
321.46
295.67
265.68
235.54
206.67
178.44
149.65
120.03
90.74
63.77
40.81
22.47
8.12
-3.51
-13.55
-22.55
-30.41
-36.80
-41.65
-45.42
-49.01
-53.28
-58.60
-64.51
-69.87
-73.30
-73.72
-70.83
-65.09
-57.49
-49.17
-41.11
-33.95
-28.08
-23.59
-20.40
-18.20
-16.63
-15.42
-14.48
-13.96
-14.06
-14.80
-15.89
-16.73
-16.66
-15.29
-12.68
-9.36
-6.12
-3.68
-2.48
-2.62
-3.91
-5.99
-8.39
-10.63
-12.22
-12.85
-12.54
-11.75
-11.35
-12.26
-15.07
-19.61
-24.93
-29.55
-32.07
-31.71
-28.59
-23.59
-17.94
-12.68
-8.34
-4.81
-1.48
2.55
8.17
16.02
26.21
38.14
50.49
61.44
69.28
72.94
72.38
68.47
62.54
55.90
49.45
43.68
38.82
35.06
32.46
30.85
29.69
28.20
25.67
21.80
16.92
11.83
7.45
4.35
2.51
1.35
0.02
-2.21
-5.61
-9.84
-14.07
-17.28
-18.63
-17.77
-14.92
-10.72
-6.01
-1.56
2.15
4.92
6.73
7.62
7.64
6.84
5.41
3.67
2.07
1.02
0.74
1.11
1.77
2.29
2.35
1.88
0.99
-0.13
-1.42
-2.95
-4.85
-7.17
-9.80
-12.50
-15.03
-17.23
-19.07
-20.60
-21.95
-23.19
-24.40
-25.66
-27.10
-28.74
-30.52
-32.19
-33.40
-33.73
-32.80
-30.25
-25.79
-19.25
-10.72
-0.69
9.85
19.65
27.52
32.72
35.22
35.68
35.06
34.22
33.61
33.23
32.79
31.98
30.66
28.91
26.96
25.02
23.16
21.29
19.30
17.08
14.72
12.41
10.38
8.82
7.68
6.72
5.53
3.76
1.24
-1.83
-4.95
-7.43
-8.61
-8.09
-5.82
-2.04
2.83
8.36
14.15
19.90
25.35
30.24
34.41
37.79
40.48
42.62
44.36
45.78
47.03
48.33
49.95
51.98
54.07
55.40
54.87
51.59
45.22
36.05
24.72
11.82
-2.25
-17.18
-32.40
-46.88
-59.25
-68.29
-73.46
-75.13
-74.47
-72.93
-71.67
-71.30
-71.73
-72.42
-72.58
-71.44
-68.39
-63.19
-55.99
-47.32
-37.89
-28.48
-19.75
-12.15
-5.93
-1.15
2.33
4.83
6.76
8.50
10.27
11.98
13.27
13.68
12.87
10.83
7.93
4.80
2.03
-0.03
-1.40
-2.38
-3.36
-4.65
-6.32
-8.28
-10.32
-12.25
-13.90
-15.17
-15.97
-16.32
-16.33
-16.28
-16.53
-17.39
-18.95
-20.88
-22.52
-23.07
-21.83
-18.51
-13.37
-7.10
-0.60
5.28
10.00
13.37
15.52
16.71
17.23
17.30
17.10
16.75
16.34
15.90
15.39
14.76
14.00
13.17
12.39
11.77
11.31
10.92
10.43
9.64
8.40
6.60
4.16
1.10
-2.47
-6.30
-10.06
-13.44
-16.28
-18.61
-20.58
-22.31
-23.73
-24.61
-24.67
-23.73
-21.83
-19.26
-16.36
-13.39
-10.40
-7.25
-3.78
0.02
3.93
7.52
10.38
12.24
13.09
13.18
12.80
12.15
11.25
10.04
8.45
6.62
4.83
3.46
2.79
2.86
3.50
4.29
4.74
4.45
3.20
1.02
-1.85
-5.02
-8.07
-10.67
-12.63
-13.94
-14.73
-15.21
-15.59
-15.99
-16.42
-16.74
-16.75
-16.20
-14.92
-12.85
-10.03
-6.66
-2.98
0.70
4.12
7.06
9.41
11.12
12.22
12.79
12.93
12.79
12.49
12.17
11.94
11.83
11.81
11.79
11.65
11.29
10.69
9.85
8.81
7.63
6.36
5.02
3.60
2.09
0.50
-1.11
-2.66
-4.06
-5.30
-6.46
-7.71
-9.24
-11.10
-13.19
-15.18
-16.60
-16.98
-15.96
-13.46
-9.70
-5.13
-0.30
4.33
8.40
11.74
14.29
16.07
17.18
17.81
18.20
18.62
19.19
19.92
20.60
20.99
20.91
20.30
19.21
17.76
16.10
14.36
12.71
11.28
10.13
9.20
8.19
6.76
4.59
1.61
-2.01
-5.89
-9.65
-13.07
-16.16
-19.02
-21.78
-24.38
-26.62
-28.21
-28.87
-28.49
-27.15
-25.02
-22.39
-19.49
-16.46
-13.33
-10.02
-6.45
-2.64
1.16
4.48
6.79
7.77
7.42
6.19
4.69
3.49
2.82
2.55
2.31
1.78
0.90
-0.13
-0.98
-1.45
-1.57
-1.58
-1.81
-2.46
-3.53
-4.87
-6.29
-7.67
-8.95
-10.09
-11.00
-11.54
-11.60
-11.23
-10.67
-10.27
-10.29
-10.75
-11.35
-11.58
-10.92
-9.10
-6.23
-2.70
0.98
4.36
7.19
9.36
10.81
11.53
11.51
10.87
9.87
8.86
8.17
7.97
8.24
8.80
9.44
10.05
10.53
10.84
10.87
10.52
9.75
8.68
7.53
6.57
5.92
5.49
4.99
4.08
2.50
0.22
-2.58
-5.56
-8.35
-10.63
-12.16
-12.78
-12.42
-11.14
-9.14
-6.68
-4.10
-1.67
0.49
2.35
3.98
5.45
6.71
7.68
8.21
8.26
7.86
7.21
6.60
6.26
6.29
6.60
6.96
7.05
6.64
5.63
4.15
2.49
0.98
-0.07
-0.54
-0.55
-0.36
-0.34
-0.69
-1.50
-2.64
-3.93
-5.32
-6.85
-8.63
-10.66
-12.64
-14.00
-14.12
-12.56
-9.35
-4.98
-0.19
4.36
8.29
11.55
14.23
16.33
17.65
17.90
16.84
14.53
11.33
7.80
4.45
1.59
-0.74
-2.68
-4.44
-6.19
-7.99
-9.85
-11.68
-13.37
-14.85
-16.10
-17.17
-18.11
-18.98
-19.77
-20.42
-20.88
-21.14
-21.31
-21.56
-22.08
-22.94
-24.03
-25.10
-25.79
-25.69
-24.47
-21.91
-18.05
-13.13
-7.61
-2.05
3.01
7.17
10.19
12.03
12.82
12.80
12.33
11.81
11.70
12.31
13.69
15.55
17.38
18.64
18.95
18.28
16.80
14.83
12.63
10.34
8.06
5.88
3.95
2.38
1.21
0.31
-0.56
-1.66
-3.13
-5.00
-7.15
-9.39
-11.53
-13.34
-14.58
-15.04
-14.57
-13.14
-10.82
-7.80
-4.37
-0.81
2.60
5.59
8.02
9.86
11.20
12.15
12.78
13.09
13.02
12.52
11.70
10.74
9.82
8.98
8.08
6.94
5.46
3.77
2.20
1.11
0.66
0.70
0.78
0.44
-0.56
-2.13
-3.89
-5.44
-6.57
-7.41
-8.28
-9.47
-11.05
-12.78
-14.23
-14.96
-14.63
-13.15
-10.59
-7.12
-3.02
1.28
5.26
8.39
10.27
10.86
10.43
9.49
8.54
7.86
7.44
7.01
6.26
5.01
3.31
1.35
-0.57
-2.23
-3.54
-4.55
-5.35
-6.08
-6.80
-7.46
-7.92
-8.02
-7.60
-6.60
-5.03
-3.03
-0.84
1.23
2.83
3.66
3.60
2.80
1.69
0.88
0.91
2.09
4.39
7.40
10.61
13.49
15.70
17.08
17.63
17.43
16.57
15.19
13.46
11.59
9.84
8.39
7.31
6.57
5.98
5.32
4.41
3.12
1.44
-0.58
-2.86
-5.26
-7.60
-9.60
-11.01
-11.73
-11.82
-11.58
-11.48
-11.96
-13.30
-15.49
-18.20
-20.84
-22.74
-23.40
-22.60
-20.52
-17.61
-14.37
-11.20
-8.24
-5.48
-2.84
-0.39
1.73
3.36
4.41
4.98
5.29
5.64
6.28
7.45
9.25
11.55
13.80
15.00
13.87
9.40
1.43
-9.00
-19.80
-28.51
-33.26
-33.44
-29.85
-24.18
-18.16
-12.91
-8.77
-5.57
-3.14
-1.56
-1.11
-1.91
-3.67
-5.64
-6.90
-6.78
-5.24
-2.87
-0.72
0.25
-0.48
-2.75
-5.78
-8.61
-10.52
-11.38
-11.67
-12.14
-13.39
-15.50
-18.05
-20.39
-22.07
-23.06
-23.73
-24.56
-25.91
-27.80
-30.05
-32.37
-34.50
-36.29
-37.64
-38.49
-38.77
-38.48
-37.74
-36.80
-36.04
-35.80
-36.03
-36.27
-35.68
-33.12
-27.39
-17.57
-3.52
13.94
33.08
51.82
68.12
80.35
87.63
89.85
87.48
81.28
72.06
60.63
48.25
36.28
25.84
17.63
11.76
7.85
5.08
2.54
-0.31
-2.33
-1.98
1.64
8.19
16.41
24.64
31.16
34.51
33.88
31.31
29.03
27.75
26.26
22.81
16.49
7.50
-3.12
-13.97
-20.39
-18.98
-9.96
3.02
15.65
25.50
32.39
37.88
44.52
59.53
88.85
133.66
190.04
251.82
313.61
371.61
423.56
440.64
405.93
325.45
225.06
130.20
53.44
-3.46
-43.76
-72.32
-94.28
-110.11
-120.12
-126.49
-132.71
-141.08
-151.19
-161.11
-169.26
-175.24
-176.16
-170.07
-158.10
-142.94
-127.84
-114.85
-104.75
-97.55
-92.86
-87.92
-80.38
-69.80
-57.78
-46.72
-38.37
-33.55
-32.24
-33.76
-35.92
-36.54
-34.61
-30.46
-25.39
-20.44
-16.45
-13.71
-11.94
-10.16
-7.53
-3.93
-0.03
3.04
4.47
3.95
1.80
-1.37
-4.99
-8.78
-12.71
-16.74
-20.74
-24.24
-26.71
-27.67
-26.94
-24.78
-21.76
-18.56
-15.74
-13.58
-12.11
-11.19
-10.61
-10.24
-10.01
-9.91
-9.93
-10.05
-10.16
-10.13
-9.74
-8.71
-6.77
-3.72
0.43
5.44
10.87
16.21
21.07
25.28
28.86
31.95
34.62
36.82
38.35
39.06
38.86
37.83
36.21
34.27
32.33
30.69
29.61
29.22
29.44
29.99
30.41
30.31
29.50
28.12
26.62
25.51
25.14
25.47
25.96
25.81
24.22
20.70
15.46
9.46
4.27
1.55
2.41
6.78
13.16
18.91
21.01
17.05
6.11
-10.86
-31.27
-51.68
-68.87
-80.69
-86.55
-87.30
-84.75
-80.89
-77.31
-74.73
-72.94
-70.99
-67.65
-61.95
-53.57
-43.00
-31.40
-20.11
-10.17
-1.94
4.83
10.71
16.17
21.40
26.26
30.61
34.47
38.03
41.53
44.97
47.98
49.99
50.42
49.01
45.94
41.78
37.33
33.29
30.06
27.67
25.87
24.30
22.68
20.96
19.29
17.89
16.96
16.51
16.39
16.45
16.62
17.07
18.02
19.57
21.46
22.98
23.10
20.82
15.55
7.46
-2.49
-12.73
-21.57
-27.72
-30.69
-30.79
-28.97
-26.26
-23.41
-20.61
-17.67
-14.38
-10.81
-7.45
-4.99
-3.97
-4.51
-6.20
-8.31
-10.07
-10.92
-10.65
-9.52
-8.13
-7.44
-8.51
-12.05
-17.98
-25.18
-31.71
-35.49
-35.17
-30.72
-23.42
-15.28
-8.18
-3.15
-0.24
1.11
1.55
1.36
0.41
-1.61
-4.78
-8.86
-13.25
-17.22
-20.21
-21.93
-22.51
-22.29
-21.70
-21.02
-20.33
-19.53
-18.47
-17.07
-15.42
-13.66
-11.95
-10.29
-8.53
-6.41
-3.78
-0.71
2.44
5.08
6.62
6.73
5.43
3.13
0.42
-2.16
-4.36
-6.18
-7.88
-9.65
-11.59
-13.51
-15.11
-16.12
-16.43
-16.09
-15.28
-14.14
-12.71
-10.93
-8.69
-5.99
-3.01
-0.04
2.54
4.40
5.36
5.40
4.68
3.48
2.22
1.31
1.05
1.56
2.70
4.17
5.63
6.87
7.85
8.57
9.04
9.19
8.95
8.38
7.66
6.93
6.10
4.64
1.81
-2.95
-9.40
-16.32
-21.82
-24.09
-22.18
-16.41
-8.11
1.19
10.42
19.31
28.09
36.82
44.96
51.37
54.82
54.74
51.62
46.83
41.99
38.20
35.62
33.58
31.16
27.73
23.42
18.92
15.13
12.61
11.38
10.98
10.86
10.72
10.57
10.67
11.21
12.15
13.16
13.87
14.02
13.58
12.76
11.79
10.86
10.09
9.57
9.47
9.98
11.25
13.29
15.87
18.66
21.36
23.77
25.90
27.90
29.96
32.22
34.65
37.07
39.10
40.31
40.34
38.97
36.25
32.38
27.67
22.48
17.13
11.94
7.25
3.29
0.14
-2.36
-4.53
-6.70
-9.07
-11.56
-13.97
-16.11
-17.93
-19.62
-21.45
-23.59
-25.99
-28.38
-30.48
-32.09
-33.18
-33.80
-34.00
-33.70
-32.59
-30.28
-26.47
-21.28
-15.21
-9.03
-3.52
0.80
3.85
6.11
8.30
11.08
14.49
17.95
20.60
21.54
20.25
16.82
11.84
6.13
0.45
-5.00
-10.13
-14.62
-18.01
-20.10
-21.25
-22.47
-24.96
-29.24
-35.14
-41.65
-47.63
-51.89
-54.27
-55.96
-58.30
-62.39
-65.34
-63.41
-54.26
-36.55
-12.24
14.71
39.85
59.77
72.78
79.01
79.30
74.92
67.17
56.89
44.63
30.90
16.52
2.71
-9.04
-17.80
-23.27
-25.84
-26.52
-26.44
-26.50
-27.10
-28.20
-29.52
-30.84
-31.95
-32.48
-32.03
-30.24
-26.93
-22.11
-16.01
-9.22
-2.47
3.78
9.52
15.02
20.58
26.31
32.13
37.73
42.40
45.44
46.45
45.50
42.92
39.10
34.50
29.61
24.97
20.34
14.85
7.22
-3.61
-17.74
-34.08
-50.49
-64.78
-73.07
-73.83
-69.29
-64.75
-64.38
-68.13
-72.33
-72.82
-67.52
-57.37
-46.01
-36.89
-32.00
-31.30
-33.46
-37.02
-40.64
-42.65
-40.70
-32.44
-16.53
7.43
37.41
69.30
98.16
120.06
133.53
139.82
138.57
133.19
124.70
111.02
88.56
55.18
12.68
-32.92
-73.18
-101.69
-115.02
-113.79
-101.55
-83.24
-63.45
-45.38
-30.75
-20.16
-13.69
-10.52
-9.07
-6.66
-0.98
9.05
23.07
39.66
57.26
74.73
91.89
105.64
115.14
120.81
124.01
126.14
127.52
126.72
123.37
112.64
90.81
57.87
17.18
-25.73
-65.49
-99.10
-124.32
-141.28
-151.89
-157.57
-158.36
-153.93
-144.43
-131.13
-116.16
-101.60
-88.99
-79.06
-71.16
-63.99
-56.81
-49.61
-42.82
-36.74
-31.20
-25.93
-20.92
-16.06
-11.26
-6.41
-1.13
5.26
13.37
23.19
33.64
42.78
48.81
50.73
48.52
42.87
34.78
25.30
15.67
7.46
2.48
2.30
7.36
16.47
27.09
36.37
42.47
45.19
45.79
45.96
46.73
47.79
47.71
44.72
37.67
26.81
13.80
1.31
-7.94
-12.10
-10.82
-5.27
2.44
10.23
16.66
21.25
24.14
25.56
25.53
23.83
20.35
15.41
9.78
4.44
0.20
-2.60
-4.10
-4.75
-5.00
-5.11
-5.04
-4.56
-3.34
-1.05
2.41
6.83
11.59
15.81
18.62
19.54
18.65
16.56
14.07
11.83
10.06
8.58
7.09
5.46
3.91
2.98
3.27
5.15
8.57
13.06
17.87
22.21
25.47
27.30
27.69
26.84
25.11
22.89
20.48
18.08
15.69
13.16
10.26
6.74
2.52
-2.14
-6.66
-10.28
-12.27
-12.29
-10.46
-7.39
-3.89
-0.65
1.94
3.82
5.18
6.29
7.37
8.61
10.15
12.10
14.39
16.75
18.69
19.71
19.61
18.66
17.60
17.26
18.08
19.79
21.37
21.43
18.68
12.37
2.53
-10.00
-23.78
-37.00
-47.78
-54.56
-56.50
-53.72
-47.30
-38.90
-30.24
-22.64
-16.79
-12.85
-10.66
-9.98
-10.45
-11.58
-12.76
-13.46
-13.47
-13.00
-12.57
-12.72
-13.65
-15.17
-16.79
-18.05
-18.79
-19.12
-19.34
-19.72
-20.36
-21.28
-22.38
-23.56
-24.65
-25.44
-25.66
-25.09
-23.63
-21.39
-18.62
-15.63
-12.73
-10.30
-8.89
-9.13
-11.65
-16.69
-23.88
-32.20
-40.15
-46.16
-49.00
-48.11
-43.73
-36.83
-28.83
-21.29
-15.44
-11.98
-10.92
-11.68
-13.34
-15.01
-15.99
-15.99
-15.09
-13.64
-12.21
-11.41
-11.72
-13.37
-16.18
-19.57
-22.71
-24.70
-24.78
-22.54
-17.97
-11.45
-3.60
4.86
13.27
21.19
28.34
34.58
39.84
43.96
46.79
48.18
48.11
46.73
44.31
41.15
37.47
33.34
28.73
23.65
18.25
12.87
7.94
3.87
0.88
-1.02
-1.99
-2.20
-1.79
-0.77
0.89
3.10
5.69
8.27
10.41
11.66
11.73
10.53
8.25
5.29
2.18
-0.61
-2.73
-4.08
-4.68
-4.65
-4.06
-2.91
-1.20
1.09
3.89
7.11
10.64
14.44
18.51
22.82
27.34
31.91
36.36
40.53
44.32
47.70
50.64
53.09
55.03
56.46
57.50
58.34
59.18
60.14
61.12
61.85
61.99
61.28
59.66
57.29
54.43
51.34
48.10
44.52
40.24
34.74
27.52
18.22
6.70
-6.80
-21.66
-36.85
-51.12
-63.23
-72.20
-77.55
-79.38
-78.22
-74.87
-70.19
-64.86
-59.41
-54.17
-49.35
-45.07
-41.31
-37.94
-34.78
-31.72
-28.78
-26.16
-24.08
-22.65
-21.71
-20.92
-19.92
-18.47
-16.61
-14.59
-12.74
-11.27
-10.26
-9.62
-9.20
-8.77
-8.11
-7.05
-5.55
-3.78
-2.07
-0.79
-0.23
-0.42
-1.22
-2.38
-3.68
-4.99
-6.20
-7.12
-7.45
-6.90
-5.33
-2.82
0.29
3.60
6.79
9.73
12.47
15.11
17.67
20.01
21.82
22.77
22.58
21.21
18.88
16.02
13.13
10.60
8.55
6.91
5.44
3.99
2.54
1.24
0.22
-0.51
-1.10
-1.82
-2.89
-4.34
-6.07
-7.88
-9.61
-11.20
-12.65
-13.98
-15.21
-16.34
-17.43
-18.50
-19.52
-20.34
-20.72
-20.40
-19.21
-17.19
-14.54
-11.61
-8.74
-6.17
-4.02
-2.23
-0.65
0.89
2.44
3.92
5.07
5.58
5.20
3.90
1.93
-0.22
-2.00
-2.97
-2.93
-1.95
-0.31
1.59
3.34
4.61
5.23
5.17
4.61
3.80
3.01
2.42
2.04
1.70
1.12
0.04
-1.64
-3.79
-6.03
-7.85
-8.73
-8.30
-6.51
-3.58
0.05
3.86
7.42
10.53
13.20
15.57
17.81
20.00
22.09
23.93
25.30
25.99
25.88
24.97
23.40
21.43
19.35
17.41
15.72
14.27
12.94
11.57
10.07
8.45
6.78
5.18
3.72
2.40
1.14
-0.20
-1.74
-3.60
-5.86
-8.54
-11.67
-15.12
-18.63
-21.78
-24.07
-25.09
-24.62
-22.74
-19.74
-15.95
-11.67
-7.06
-2.23
2.66
7.37
11.57
14.96
17.35
18.68
19.05
18.61
17.54
15.99
14.19
12.37
10.77
9.56
8.74
8.15
7.50
6.57
5.24
3.58
1.70
-0.28
-2.40
-4.77
-7.49
-10.53
-13.74
-16.84
-19.57
-21.71
-23.21
-24.08
-24.39
-24.23
-23.70
-22.83
-21.62
-20.06
-18.08
-15.63
-12.73
-9.51
-6.29
-3.51
-1.65
-1.03
-1.59
-2.80
-3.87
-4.05
-3.05
-1.26
0.40
1.02
0.16
-1.76
-3.61
-4.16
-2.68
0.52
4.19
6.61
6.40
3.07
-2.77
-9.65
-15.74
-19.37
-19.26
-14.70
-5.74
6.26
18.43
26.73
27.52
19.58
5.48
-8.63
-15.43
-9.69
9.25
37.17
67.03
92.17
108.72
116.14
115.91
109.71
98.37
82.16
61.84
39.34
17.45
-1.29
-15.74
-26.48
-35.39
-44.60
-55.50
-68.28
-82.05
-95.16
-105.76
-112.18
-113.28
-108.62
-98.53
-83.99
-66.33
-46.96
-27.10
-7.82
9.83
24.80
36.09
43.16
46.30
46.70
45.95
45.41
45.56
45.89
45.34
42.98
38.62
32.85
26.71
21.06
16.26
12.15
8.40
4.93
1.94
-0.17
-1.17
-1.24
-0.98
-1.15
-2.43
-5.07
-8.87
-13.28
-17.60
-21.24
-23.91
-25.62
-26.67
-27.47
-28.44
-29.82
-31.61
-33.54
-35.15
-35.97
-35.58
-33.76
-30.47
-25.87
-20.29
-14.13
-7.89
-2.01
3.20
7.57
11.15
14.03
16.20
17.46
17.44
15.86
12.77
8.72
4.72
1.87
0.97
2.15
4.87
8.14
10.95
12.70
13.26
12.91
11.99
10.63
8.79
6.30
3.17
-0.31
-3.63
-6.26
-7.90
-8.59
-8.63
-8.46
-8.47
-8.85
-9.58
-10.39
-10.91
-10.78
-9.77
-7.87
-5.28
-2.24
1.12
4.88
9.29
14.58
20.71
27.24
33.41
38.35
41.39
42.34
41.46
39.36
36.72
34.05
31.59
29.24
26.68
23.53
19.39
13.97
7.19
-0.73
-9.15
-17.02
-23.12
-26.40
-26.38
-23.40
-18.50
-13.06
-8.38
-5.25
-3.87
-3.99
-5.16
-6.90
-8.84
-10.60
-11.79
-12.01
-10.95
-8.52
-4.92
-0.59
3.88
7.98
11.41
14.17
16.40
18.26
19.72
20.58
20.52
19.40
17.31
14.69
12.07
9.91
8.41
7.45
6.69
5.82
4.65
3.23
1.71
0.30
-0.91
-1.92
-2.84
-3.75
-4.69
-5.63
-6.49
-7.26
-7.95
-8.63
-9.29
-9.86
-10.20
-10.16
-9.67
-8.79
-7.60
-6.19
-4.62
-2.89
-1.04
0.87
2.74
4.46
6.00
7.38
8.70
10.01
11.31
12.56
13.68
14.65
15.49
16.27
17.06
17.84
18.58
19.19
19.68
20.08
20.50
21.01
21.56
21.95
21.88
21.11
19.52
17.18
14.31
11.14
7.81
4.40
0.93
-2.48
-5.65
-8.30
-10.25
-11.52
-12.32
-12.94
-13.66
-14.54
-15.47
-16.20
-16.52
-16.38
-15.89
-15.25
-14.66
-14.21
-13.90
-13.65
-13.37
-13.02
-12.65
-12.39
-12.33
-12.50
-12.84
-13.20
-13.42
-13.45
-13.32
-13.15
-13.09
-13.21
-13.53
-14.02
-14.62
-15.30
-15.98
-16.52
-16.73
-16.40
-15.43
-13.83
-11.79
-9.61
-7.58
-5.91
-4.62
-3.60
-2.61
-1.43
0.07
1.88
3.86
5.74
7.28
8.35
8.93
9.13
9.12
9.04
8.95
8.82
8.59
8.16
7.54
6.71
5.72
4.56
3.27
1.87
0.46
-0.88
-2.08
-3.15
-4.15
-5.13
-6.01
-6.61
-6.66
-5.94
-4.40
-2.17
0.44
3.12
5.60
7.76
9.61
11.31
13.07
15.16
17.78
20.97
24.54
28.08
31.05
33.02
33.76
33.37
32.16
30.48
28.57
26.44
23.98
21.02
17.53
13.55
9.23
4.73
0.15
-4.40
-8.79
-12.82
-16.28
-19.01
-21.01
-22.40
-23.36
-23.99
-24.27
-24.08
-23.29
-21.85
-19.84
-17.42
-14.79
-12.13
-9.57
-7.19
-5.08
-3.30
-1.90
-0.90
-0.25
0.09
0.16
-0.01
-0.41
-1.01
-1.77
-2.56
-3.27
-3.74
-3.88
-3.63
-3.09
-2.41
-1.80
-1.43
-1.35
-1.51
-1.79
-2.11
-2.48
-3.02
-3.90
-5.23
-6.93
-8.76
-10.40
-11.55
-12.07
-11.95
-11.28
-10.19
-8.74
-6.93
-4.80
-2.40
0.15
2.72
5.20
7.50
9.56
11.30
12.66
13.57
14.01
14.01
13.65
13.03
12.23
11.30
10.23
9.04
7.76
6.42
5.06
3.74
2.47
1.27
0.18
-0.78
-1.59
-2.24
-2.78
-3.31
-3.96
-4.85
-6.01
-7.38
-8.80
-10.08
-11.02
-11.52
-11.52
-11.00
-9.97
-8.49
-6.67
-4.66
-2.65
-0.81
0.80
2.22
3.55
4.83
6.08
7.19
8.06
8.57
8.66
8.38
7.78
6.98
6.07
5.14
4.25
3.43
2.68
2.00
1.37
0.81
0.32
-0.11
-0.51
-0.97
-1.58
-2.36
-3.31
-4.33
-5.31
-6.17
-6.83
-7.23
-7.34
-7.11
-6.51
-5.54
-4.28
-2.86
-1.44
-0.09
1.15
2.35
3.55
4.75
5.90
6.87
7.53
7.85
7.86
7.64
7.29
6.85
6.35
5.79
5.23
4.74
4.36
4.09
3.82
3.37
2.65
1.64
0.48
-0.66
-1.67
-2.53
-3.36
-4.29
-5.42
-6.76
-8.28
-9.88
-11.46
-12.87
-13.95
-14.49
-14.36
-13.48
-11.89
-9.76
-7.28
-4.65
-2.07
0.29
2.28
3.83
4.99
5.86
6.60
7.26
7.85
8.33
8.66
8.86
8.94
8.93
8.74
8.27
7.50
6.47
5.37
4.41
3.69
3.19
2.80
2.38
1.88
1.38
0.98
0.71
0.54
0.31
-0.15
-0.92
-1.99
-3.22
-4.36
-5.15
-5.39
-5.04
-4.15
-2.91
-1.48
0.05
1.66
3.37
5.08
6.62
7.78
8.36
8.34
7.87
7.18
6.52
6.03
5.67
5.34
4.94
4.43
3.85
3.31
2.91
2.67
2.59
2.61
2.65
2.67
2.63
2.53
2.37
2.15
1.88
1.56
1.21
0.83
0.41
-0.02
-0.44
-0.79
-0.99
-0.98
-0.73
-0.28
0.24
0.70
0.98
1.05
0.96
0.82
0.71
0.68
0.71
0.74
0.72
0.63
0.45
0.19
-0.17
-0.61
-1.14
-1.71
-2.27
-2.79
-3.29
-3.77
-4.31
-4.92
-5.58
-6.22
-6.77
-7.18
-7.50
-7.82
-8.24
-8.84
-9.62
-10.51
-11.38
-12.08
-12.47
-12.46
-11.98
-11.02
-9.68
-8.13
-6.60
-5.32
-4.48
-4.13
-4.24
-4.66
-5.18
-5.58
-5.69
-5.47
-5.01
-4.50
-4.23
-4.44
-5.26
-6.70
-8.65
-10.91
-13.35
-15.86
-18.41
-20.98
-23.54
-25.97
-28.09
-29.64
-30.35
-30.06
-28.78
-26.78
-24.53
-22.50
-21.02
-20.12
-19.57
-18.95
-17.96
-16.47
-14.54
-12.26
-9.65
-6.57
-2.84
1.52
6.24
10.77
14.52
17.12
18.51
18.96
18.83
18.35
17.53
16.25
14.46
12.34
10.37
9.11
8.93
9.85
11.50
13.31
14.80
15.69
15.99
15.86
15.48
14.90
14.12
13.12
11.98
10.86
9.98
9.44
9.27
9.34
9.51
9.67
9.81
10.01
10.40
11.09
12.13
13.48
15.04
16.63
18.09
19.27
20.13
20.70
21.12
21.61
22.32
23.34
24.64
26.07
27.43
28.59
29.47
30.06
30.35
30.27
29.62
28.22
25.85
22.49
18.24
13.41
8.42
3.76
-0.13
-2.91
-4.39
-4.65
-4.10
-3.43
-3.51
-5.04
-8.38
-13.38
-19.46
-25.84
-31.82
-37.02
-41.46
-45.47
-49.57
-54.30
-60.02
-66.76
-74.14
-81.29
-87.06
-90.35
-90.23
-86.08
-77.48
-64.25
-46.48
-24.67
0.29
27.06
54.05
79.60
102.17
120.50
133.64
141.03
142.58
138.73
130.49
119.27
106.64
94.03
82.50
72.61
64.50
58.13
53.46
50.66
50.15
52.24
56.73
62.64
68.29
71.75
71.56
67.29
59.69
50.39
41.32
33.99
29.09
26.18
23.70
19.48
11.33
-1.98
-20.03
-40.63
-60.43
-76.11
-85.63
-88.91
-87.70
-84.62
-82.10
-81.64
-83.59
-87.31
-91.43
-94.22
-94.05
-89.89
-81.93
-71.64
-61.33
-53.26
-48.75
-47.83
-49.48
-52.36
-55.37
-58.00
-60.01
-61.13
-60.88
-58.73
-54.40
-48.08
-40.40
-32.24
-24.46
-17.69
-12.23
-8.08
-5.00
-2.64
-0.66
1.12
2.60
3.58
3.95
3.84
3.57
3.54
4.02
4.96
6.03
6.69
6.51
5.44
3.69
1.54
-0.76
-3.11
-5.41
-7.58
-9.64
-11.49
-12.87
-13.66
-14.06
-14.47
-15.32
-16.78
-18.73
-21.10
-23.44
-24.86
-24.71
-23.10
-21.00
-19.68
-20.25
-23.16
-28.53
-35.44
-41.96
-46.41
-48.37
-48.70
-48.75
-49.57
-51.69
-55.68
-61.39
-67.28
-71.21
-70.98
-64.46
-49.58
-24.98
12.57
58.94
104.06
138.88
160.41
170.79
173.02
168.09
154.89
132.11
101.94
66.65
31.64
3.13
-14.94
-22.01
-20.32
-13.28
-4.05
4.86
12.55
19.10
24.78
29.32
32.06
32.51
30.64
26.86
21.61
15.43
9.37
4.38
0.61
-2.40
-5.29
-8.38
-11.49
-14.21
-16.07
-16.55
-15.50
-13.41
-11.13
-9.43
-8.72
-8.90
-9.64
-10.50
-10.96
-10.63
-9.41
-7.46
-5.14
-2.82
-0.77
0.90
2.21
3.30
4.28
5.18
5.93
6.46
6.76
6.90
7.01
7.19
7.45
7.70
7.88
7.92
7.84
7.70
7.60
7.54
7.46
7.23
6.70
5.78
4.52
3.03
1.54
0.21
-0.88
-1.77
-2.59
-3.46
-4.43
-5.47
-6.46
-7.23
-7.65
-7.67
-7.35
-6.84
-6.31
-5.86
-5.48
-5.07
-4.53
-3.85
-3.11
-2.46
-2.00
-1.77
-1.74
-1.82
-1.99
-2.25
-2.57
-2.88
-3.04
-2.92
-2.49
-1.87
-1.26
-0.82
-0.64
-0.66
-0.74
-0.78
-0.74
-0.68
-0.70
-0.90
-1.29
-1.86
-2.62
-3.66
-5.07
-6.92
-9.10
-11.26
-12.93
-13.60
-13.01
-11.18
-8.45
-5.32
-2.19
0.75
3.56
6.52
9.90
13.82
18.13
22.43
26.14
28.74
29.88
29.54
27.98
25.61
22.86
19.99
17.11
14.15
10.99
7.48
3.45
-1.18
-6.32
-11.66
-16.66
-20.73
-23.42
-24.60
-24.54
-23.79
-22.90
-22.29
-22.10
-22.20
-22.36
-22.30
-21.78
-20.69
-18.99
-16.77
-14.19
-11.43
-8.67
-5.95
-3.22
-0.34
2.84
6.35
10.06
13.58
16.43
18.08
18.20
16.72
13.90
10.27
6.49
3.22
1.01
0.25
1.04
3.19
6.22
9.46
12.20
13.89
14.30
13.55
11.98
10.04
8.08
6.31
4.76
3.31
1.84
0.24
-1.50
-3.28
-4.96
-6.40
-7.46
-8.04
-8.08
-7.49
-6.28
-4.57
-2.74
-1.39
-1.18
-2.59
-5.67
-9.99
-14.71
-18.88
-21.73
-22.93
-22.61
-21.23
-19.37
-17.51
-15.91
-14.58
-13.38
-12.14
-10.85
-9.56
-8.38
-7.34
-6.28
-4.95
-3.11
-0.73
1.98
4.63
6.84
8.40
9.33
9.81
10.02
10.05
9.87
9.41
8.70
7.89
7.27
7.08
7.45
8.33
9.48
10.61
11.45
11.92
12.04
11.94
11.74
11.49
11.14
10.63
9.94
9.11
8.28
7.56
7.06
6.78
6.75
6.97
7.46
8.17
8.93
9.40
9.15
7.82
5.37
2.15
-1.25
-4.16
-6.16
-7.20
-7.50
-7.44
-7.29
-7.26
-7.42
-7.77
-8.21
-8.44
-8.03
-6.53
-3.74
0.04
4.10
7.46
9.34
9.47
8.14
5.99
3.72
1.83
0.58
-0.03
-0.04
0.46
1.38
2.58
3.90
5.11
6.02
6.48
6.48
6.10
5.55
5.06
4.83
4.92
5.21
5.40
5.14
4.13
2.27
-0.36
-3.47
-6.68
-9.58
-11.79
-13.01
-13.10
-12.10
-10.20
-7.72
-5.03
-2.46
-0.26
1.46
2.67
3.48
4.04
4.50
5.00
5.62
6.33
7.04
7.60
7.86
7.73
7.17
6.26
5.12
3.94
2.86
2.00
1.38
0.94
0.57
0.16
-0.36
-1.03
-1.85
-2.78
-3.72
-4.57
-5.22
-5.63
-5.82
-5.86
-5.86
-5.86
-5.86
-5.76
-5.45
-4.77
-3.65
-2.07
-0.10
2.09
4.29
6.27
7.87
9.01
9.74
10.18
10.45
10.61
10.63
10.45
9.97
9.19
8.16
6.99
5.78
4.64
3.58
2.64
1.81
1.07
0.38
-0.30
-1.00
-1.74
-2.47
-3.15
-3.73
-4.19
-4.58
-4.96
-5.39
-5.89
-6.45
-7.02
-7.51
-7.82
-7.90
-7.72
-7.28
-6.67
-5.95
-5.16
-4.29
-3.25
-1.96
-0.44
1.25
2.92
4.37
5.41
5.95
6.05
5.81
5.39
4.91
4.40
3.86
3.23
2.46
1.54
0.51
-0.56
-1.60
-2.53
-3.30
-3.89
-4.28
-4.49
-4.62
-4.79
-5.20
-6.01
-7.39
-9.44
-12.19
-15.56
-19.36
-23.23
-26.66
-29.10
-30.07
-29.26
-26.62
-22.32
-16.77
-10.42
-3.78
2.68
8.55
13.51
17.37
20.09
21.71
22.40
22.29
21.53
20.25
18.55
16.58
14.46
12.28
10.02
7.67
5.22
2.83
0.82
-0.39
-0.46
0.69
2.72
5.01
6.79
7.36
6.35
3.85
0.39
-3.15
-5.74
-6.54
-5.22
-2.05
2.08
5.98
8.56
9.17
7.73
4.66
0.70
-3.32
-6.64
-8.67
-9.05
-7.72
-4.90
-1.11
3.05
7.00
10.30
12.66
13.89
13.91
12.71
10.44
7.41
4.13
1.19
-0.92
-1.94
-1.96
-1.32
-0.52
0.03
0.10
-0.24
-0.80
-1.32
-1.63
-1.70
-1.55
-1.26
-0.91
-0.58
-0.43
-0.65
-1.39
-2.63
-4.09
-5.31
-5.76
-5.11
-3.40
-0.99
1.52
3.61
4.98
5.62
5.75
5.63
5.45
5.25
5.04
4.79
4.52
4.32
4.26
4.35
4.51
4.58
4.39
3.83
2.97
2.04
1.35
1.18
1.65
2.64
3.87
5.01
5.76
5.96
5.60
4.75
3.53
2.17
0.99
0.34
0.52
1.59
3.23
4.81
5.56
4.93
2.83
-0.28
-3.57
-6.20
-7.62
-7.77
-6.99
-5.80
-4.60
-3.56
-2.69
-1.94
-1.38
-1.17
-1.46
-2.24
-3.30
-4.32
-5.03
-5.33
-5.38
-5.46
-5.83
-6.63
-7.82
-9.25
-10.68
-11.89
-12.71
-13.05
-12.96
-12.63
-12.37
-12.42
-12.86
-13.56
-14.24
-14.59
-14.43
-13.77
-12.77
-11.59
-10.29
-8.86
-7.22
-5.37
-3.43
-1.61
-0.19
0.64
0.83
0.52
-0.03
-0.50
-0.63
-0.33
0.30
1.08
1.76
2.16
2.20
1.89
1.28
0.46
-0.47
-1.36
-2.03
-2.36
-2.33
-2.15
-2.11
-2.49
-3.39
-4.67
-5.96
-6.87
-7.13
-6.66
-5.59
-4.15
-2.58
-1.00
0.55
2.12
3.79
5.61
7.61
9.73
11.86
13.86
15.62
17.08
18.22
19.05
19.56
19.73
19.52
18.99
18.24
17.48
16.84
16.40
16.06
15.63
14.85
13.52
11.59
9.18
6.59
4.25
2.60
1.96
2.39
3.67
5.33
6.89
8.00
8.63
9.14
10.06
12.01
15.44
20.50
26.89
33.90
40.51
45.66
48.54
48.87
47.00
43.72
39.91
36.22
32.75
29.15
24.81
19.17
11.90
2.98
