1594043417.00
64.000000
-0.00
-0.00
-0.00
-0.00
-0.00
-0.00
-0.00
-0.00
-0.00
-0.00
0.00
0.01
0.01
-0.00
-0.03
-0.05
-0.05
0.00
0.13
0.36
0.66
1.01
1.37
1.72
2.06
2.40
2.79
3.24
3.80
4.42
5.06
5.66
6.20
6.68
7.15
7.68
8.31
9.14
10.09
11.04
11.88
12.56
13.14
13.76
14.65
15.96
17.91
20.32
22.90
25.38
27.58
29.57
31.68
34.32
37.81
42.54
48.15
54.10
59.83
64.97
69.58
74.14
79.34
85.71
93.76
103.00
112.62
121.73
129.77
136.75
143.30
150.75
157.77
166.64
177.95
191.79
206.97
220.57
228.25
225.36
208.53
176.87
132.76
80.05
23.07
-34.94
-92.44
-149.16
-205.23
-260.37
-313.74
-363.87
-409.83
-450.91
-486.50
-515.74
-537.23
-549.22
-549.96
-538.37
-514.21
-478.67
-433.88
-382.45
-327.02
-269.84
-212.63
-156.66
-102.95
-52.37
-5.90
35.58
71.43
101.35
125.50
144.38
158.69
169.15
176.37
180.75
182.57
182.07
179.51
175.23
169.65
163.18
156.15
148.81
141.30
133.69
126.02
118.33
110.69
103.16
95.80
88.68
81.83
75.25
68.95
62.95
57.25
51.86
46.78
42.03
37.59
33.45
29.61
26.07
22.81
19.83
17.11
14.67
12.48
10.54
8.83
7.35
6.07
4.97
4.05
3.27
2.62
2.09
1.65
1.30
1.01
0.79
0.61
0.48
0.37
0.29
0.22
0.18
0.14
0.11
0.09
0.08
0.07
0.06
0.05
0.05
0.05
0.05
0.06
0.07
0.10
0.12
0.15
0.18
0.22
0.26
0.31
0.38
0.46
0.54
0.60
0.60
0.54
0.43
0.32
0.27
0.33
0.49
0.72
0.95
1.12
1.17
1.14
1.07
1.05
1.15
1.38
1.69
1.97
2.13
2.11
1.93
1.75
1.76
2.12
2.86
3.86
4.79
5.34
5.33
4.83
4.19
3.94
4.46
5.88
7.85
9.70
10.72
10.52
9.29
7.71
6.79
7.32
9.50
12.68
15.65
17.07
16.12
12.89
8.35
3.98
0.89
-0.67
-1.42
-2.86
-6.54
-13.41
-23.65
-36.80
-51.54
-65.42
-74.72
-75.37
-64.74
-43.61
-17.12
6.69
20.08
19.13
5.43
-14.99
-34.84
-48.95
-56.01
-57.54
-55.73
-51.34
-43.24
-29.78
-10.50
13.01
37.71
60.42
78.62
90.63
95.43
92.35
81.55
64.78
45.72
29.29
19.93
19.65
27.08
38.11
47.86
52.90
52.41
47.78
41.36
35.11
30.00
26.21
23.71
22.57
22.86
24.34
26.34
28.13
29.63
31.53
34.68
39.33
44.53
48.45
49.16
45.57
37.71
26.17
12.36
-2.39
-16.99
-30.33
-40.78
-46.34
-45.54
-38.56
-27.73
-16.76
-9.18
-6.72
-8.55
-11.99
-14.31
-14.48
-14.19
-17.30
-28.15
-49.47
-80.65
-117.23
-151.88
-176.67
-185.66
-176.67
-151.58
-115.28
-73.87
-33.02
2.95
31.21
50.16
59.28
59.05
50.90
36.79
18.70
-1.67
-22.90
-43.28
-60.44
-71.32
-72.96
-63.50
-43.26
-15.05
16.29
45.21
66.97
78.95
81.16
75.87
66.55
56.52
47.81
40.68
33.65
24.39
10.87
-7.46
-29.14
-50.94
-69.10
-80.81
-85.60
-85.69
-85.29
-88.79
-98.76
-114.47
-131.74
-144.28
-145.97
-133.15
-105.96
-68.07
-25.25
16.68
53.30
81.88
100.88
109.27
106.64
94.00
74.43
52.80
34.25
22.14
16.68
14.93
12.37
5.11
-8.62
-27.90
-49.32
-67.71
-77.17
-72.60
-51.72
-16.83
24.77
62.60
86.65
91.31
77.39
51.12
20.65
-7.69
-31.51
-51.41
-68.17
-80.29
-83.25
-71.53
-41.63
5.48
64.05
125.56
181.57
226.17
257.06
274.97
282.35
281.69
274.45
260.88
240.30
211.40
172.81
123.78
65.32
1.36
-61.40
-114.91
-152.31
-170.55
-172.34
-165.66
-160.79
-166.02
-183.64
-209.43
-234.88
-251.18
-252.13
-236.72
-208.79
-174.58
-139.82
-106.59
-74.70
-43.81
-15.02
10.52
30.95
44.36
49.83
47.36
40.60
33.22
27.02
21.72
18.39
17.92
20.18
23.71
25.41
26.39
28.56
33.68
43.34
62.58
96.34
146.70
211.14
281.42
351.70
415.37
465.80
475.68
427.88
327.99
203.70
98.97
18.34
-41.53
-84.02
-111.07
-121.10
-110.01
-77.20
-27.89
27.49
75.38
110.38
126.84
123.90
105.91
81.88
58.31
36.73
17.30
-5.24
-29.91
-53.88
-75.10
-94.64
-112.42
-130.42
-150.77
-174.38
-201.05
-226.09
-244.81
-254.30
-254.66
-247.74
-236.62
-223.83
-210.60
-197.40
-182.44
-164.30
-142.70
-119.00
-95.41
-74.72
-59.23
-50.31
-48.63
-53.11
-61.71
-71.64
-80.22
-85.58
-87.37
-86.42
-84.20
-82.13
-80.96
-80.88
-81.67
-83.19
-85.48
-88.62
-92.39
-96.05
-98.59
-98.92
-96.26
-90.15
-80.43
-67.16
-50.64
-31.40
-10.16
12.33
35.56
59.12
82.60
105.15
125.44
141.96
153.65
160.44
163.30
163.82
163.39
162.66
161.35
158.65
153.75
146.28
136.51
125.17
113.30
102.09
92.85
86.82
84.82
86.91
92.10
98.55
103.99
106.46
104.92
99.47
91.20
81.64
72.27
64.00
57.10
51.29
46.05
40.82
35.23
29.15
22.78
16.54
10.97
6.53
3.49
1.88
1.49
1.88
2.44
2.20
-0.03
-5.48
-14.88
-28.03
-43.51
-59.04
-72.28
-81.71
-87.23
-89.94
-91.38
-92.57
-93.50
-93.19
-90.33
-84.09
-74.49
-62.33
-48.66
-34.32
-19.66
-4.71
10.44
25.34
39.13
50.82
59.63
65.32
68.30
69.45
69.96
70.80
72.55
75.10
77.75
79.37
78.82
75.27
68.58
59.33
48.70
38.18
29.14
22.60
18.98
18.11
19.37
21.75
24.15
25.53
25.22
23.27
20.64
19.17
20.96
27.44
38.29
51.02
61.48
65.23
59.11
42.28
16.26
-15.89
-50.58
-84.50
-114.77
-138.91
-154.88
-161.50
-158.94
-148.98
-134.70
-119.45
-105.73
-94.43
-84.82
-75.17
-63.78
-49.89
-34.08
-17.98
-3.61
7.39
14.28
17.14
16.59
13.35
8.11
1.59
-5.24
-11.14
-14.86
-15.50
-12.91
-7.73
-1.24
5.17
10.31
13.53
14.73
14.15
12.13
8.85
4.24
-1.83
-9.25
-17.48
-25.61
-32.58
-37.70
-40.82
-42.49
-43.50
-44.54
-45.80
-46.97
-47.39
-46.43
-43.75
-39.36
-33.57
-26.75
-19.16
-10.89
-1.89
7.73
17.65
27.16
35.40
41.74
46.00
48.55
50.00
50.78
50.77
49.34
45.73
39.60
31.37
22.22
13.66
6.96
2.73
0.78
0.42
0.87
1.66
2.78
4.60
7.56
11.81
17.02
22.42
27.12
30.43
32.19
32.86
33.20
34.00
35.75
38.60
42.47
47.31
53.12
59.85
67.17
74.25
79.84
82.58
81.51
76.44
67.97
57.20
45.24
32.81
20.16
7.29
-5.64
-18.20
-29.64
-39.30
-46.89
-52.68
-57.35
-61.60
-65.81
-69.89
-73.37
-75.78
-76.96
-77.19
-77.12
-77.49
-78.88
-81.43
-84.94
-88.98
-93.17
-97.30
-101.34
-105.29
-108.92
-111.62
-112.39
-110.21
-104.28
-94.41
-81.00
-64.88
-47.06
-28.49
-9.94
7.99
24.84
40.26
53.92
65.64
75.33
83.03
88.90
93.32
96.81
99.91
103.05
106.41
109.90
113.28
116.23
118.46
119.50
118.63
114.87
107.27
95.46
79.98
62.42
44.94
29.58
17.47
8.53
1.65
-4.60
-11.28
-18.60
-25.90
-32.09
-36.18
-37.84
-37.40
-35.69
-33.66
-32.02
-31.01
-30.44
-29.90
-29.04
-27.84
-26.73
-26.38
-27.42
-29.98
-33.44
-36.37
-36.93
-33.31
-24.35
-10.00
8.67
29.50
49.81
66.87
78.61
84.05
83.66
79.09
72.62
66.36
61.58
58.40
55.80
52.15
45.79
35.74
22.11
6.14
-10.38
-26.12
-41.17
-57.54
-78.63
-107.87
-147.02
-195.00
-247.78
-299.36
-343.33
-374.29
-388.75
-385.39
-364.77
-329.01
-281.10
-224.37
-161.74
-95.55
-27.66
40.02
104.88
163.57
212.65
249.72
274.54
289.25
297.44
302.61
306.60
309.05
308.04
301.63
289.32
272.64
254.61
238.47
226.27
218.00
211.32
202.09
185.35
156.86
114.69
60.65
0.58
-56.81
-102.54
-130.39
-139.17
-133.16
-120.39
-109.66
-107.45
-116.02
-133.22
-153.76
-171.21
-180.01
-176.98
-161.91
-137.45
-108.14
-79.09
-54.62
-37.39
-28.21
-26.46
-30.81
-39.73
-51.72
-65.28
-78.85
-90.93
-100.50
-107.46
-112.87
-119.00
-128.79
-144.83
-168.12
-196.81
-225.70
-246.76
-251.46
-233.78
-193.03
-134.75
-69.14
-7.39
42.11
76.04
95.95
106.14
111.25
114.89
119.82
128.90
145.58
172.79
211.10
256.98
303.08
340.49
362.30
366.55
356.95
340.92
325.96
316.20
310.73
304.36
290.28
263.05
220.35
163.22
95.10
20.92
-53.32
-120.68
-174.00
-207.64
-219.85
-214.57
-201.17
-191.49
-195.05
-214.79
-245.43
-275.52
-292.24
-286.71
-257.28
-209.51
-153.23
-98.43
-51.87
-15.84
11.08
31.95
49.16
63.34
73.28
76.79
71.99
58.33
37.13
11.43
-14.93
-38.57
-58.00
-74.25
-90.52
-110.64
-136.74
-167.29
-196.53
-215.87
-216.35
-191.73
-140.75
-67.99
17.01
101.77
173.43
221.45
239.89
229.03
195.49
150.68
107.76
77.99
67.77
77.48
102.53
135.57
168.92
196.21
213.10
217.51
209.75
192.54
170.42
148.63
131.35
120.17
113.49
107.26
96.39
76.15
43.49
-2.00
-57.04
-114.42
-164.09
-195.83
-203.20
-186.53
-153.28
-114.99
-82.34
-60.81
-49.41
-42.97
-36.35
-27.94
-20.39
-18.54
-26.12
-43.52
-67.71
-94.20
-119.49
-142.53
-164.57
-187.52
-212.09
-236.57
-256.96
-268.16
-265.88
-248.49
-218.07
-180.39
-143.25
-114.19
-97.71
-93.54
-96.62
-98.94
-92.15
-69.96
-29.72
27.07
94.94
165.26
227.44
270.76
286.71
271.28
226.62
161.19
88.12
22.46
-22.13
-36.31
-17.22
30.54
95.60
162.26
214.88
242.62
243.02
222.63
194.05
170.77
162.16
170.47
191.20
216.03
236.46
246.61
244.17
229.71
205.67
175.45
142.89
111.62
83.97
59.47
34.20
1.73
-44.07
-105.44
-178.39
-252.93
-316.31
-357.65
-371.73
-360.29
-330.27
-290.36
-247.90
-207.33
-170.80
-139.71
-115.75
-100.78
-95.65
-99.03
-107.14
-114.69
-116.68
-110.31
-95.96
-77.41
-60.69
-51.95
-55.19
-70.10
-91.27
-109.23
-113.69
-97.61
-60.72
-10.50
40.12
77.62
93.14
85.67
61.90
33.20
11.09
3.66
13.87
40.10
77.90
122.00
167.53
210.60
248.20
278.05
298.37
308.36
308.55
301.01
289.24
277.34
268.85
265.56
266.72
268.87
266.86
255.13
229.27
187.64
132.42
69.84
8.92
-40.93
-73.78
-89.18
-92.79
-94.48
-104.32
-128.56
-167.13
-213.76
-258.01
-290.45
-304.41
-297.99
-273.90
-237.65
-195.46
-152.49
-112.17
-75.25
-43.80
-18.91
-1.59
7.61
9.40
6.06
1.09
-1.78
1.65
9.92
20.59
29.17
30.41
20.02
-3.60
-38.00
-76.29
-106.21
-119.53
-108.94
-73.13
-17.69
46.27
105.55
148.72
154.89
139.62
105.94
63.17
22.07
-7.88
-20.79
-15.58
4.17
31.99
63.03
89.85
110.13
123.89
132.10
135.63
134.95
130.93
124.98
119.95
114.84
109.27
101.40
88.69
68.85
40.73
5.46
-34.22
-74.83
-113.90
-146.50
-168.52
-178.27
-177.86
-173.29
-171.52
-178.89
-201.24
-239.62
-286.93
-332.51
-365.58
-378.79
-370.48
-342.59
-301.04
-258.37
-224.75
-202.34
-188.53
-177.72
-164.21
-144.28
-113.59
-69.11
-15.37
44.44
111.87
187.80
271.64
361.15
433.92
468.84
492.43
519.87
539.49
544.46
529.61
493.42
438.54
371.15
301.60
239.30
183.50
131.65
84.51
42.80
7.02
-23.56
-50.90
-75.17
-95.50
-114.87
-133.97
-149.51
-158.74
-159.55
-153.18
-143.72
-133.99
-124.57
-117.34
-112.52
-107.73
-100.66
-89.86
-75.96
-59.97
-42.75
-25.21
-9.72
1.84
8.39
8.34
-0.55
-20.68
-53.11
-95.34
-140.23
-178.65
-201.69
-203.84
-184.37
-147.31
-99.88
-49.80
-3.00
37.60
71.69
100.56
125.06
146.54
166.22
184.23
199.06
208.09
208.43
197.91
175.84
141.69
97.73
48.28
-1.72
-48.07
-87.82
-119.89
-145.56
-167.86
-191.74
-218.08
-242.50
-257.47
-256.35
-236.38
-200.15
-154.45
-94.69
-27.29
36.71
90.35
134.30
171.85
203.83
228.67
243.66
247.05
237.43
217.37
191.87
165.35
139.20
113.91
88.66
61.68
31.43
-3.78
-42.00
-77.88
-104.99
-118.63
-117.43
-103.90
-83.46
-62.25
-46.08
-37.46
-35.84
-39.29
-46.30
-56.11
-68.35
-82.24
-96.06
-108.00
-116.17
-119.47
-118.20
-113.93
-108.62
-103.73
-99.75
-96.14
-92.03
-86.49
-79.01
-69.72
-59.36
-48.96
-39.41
-31.19
-24.25
-18.05
-11.82
-4.77
3.52
13.05
23.28
33.28
41.91
48.17
51.33
51.21
48.08
42.56
35.53
27.88
20.43
13.75
8.19
3.85
0.70
-1.35
-2.38
-2.46
-1.82
-0.79
0.23
0.91
1.21
1.45
2.16
3.72
6.04
8.46
9.94
9.62
7.23
3.28
-1.13
-4.96
-7.72
-9.68
-11.66
-14.45
-18.29
-22.71
-26.75
-29.47
-30.42
-29.80
-28.27
-26.48
-24.90
-23.77
-23.35
-24.15
-26.80
-31.65
-38.22
-45.00
-49.79
-50.45
-45.72
-35.70
-21.61
-5.25
11.75
28.28
43.65
57.38
68.86
77.47
82.80
84.99
84.80
83.48
82.38
82.50
84.17
86.96
89.79
91.28
90.24
86.10
79.21
70.74
62.15
54.70
48.89
44.35
40.04
34.74
27.54
18.08
6.45
-6.96
-21.40
-35.49
-47.04
-53.38
-52.23
-42.77
-26.49
-7.32
9.04
17.15
13.66
-1.44
-25.06
-52.13
-77.29
-96.08
-106.07
-107.55
-102.22
-92.07
-78.63
-62.96
-45.89
-28.47
-11.56
3.60
14.51
19.20
17.34
10.21
-0.24
-12.08
-24.02
-34.36
-41.98
-48.24
-54.90
-63.17
-73.75
-87.48
-104.77
-124.80
-142.93
-151.80
-145.10
-117.65
-67.22
3.05
83.34
160.67
213.01
224.39
202.60
160.40
107.31
48.55
-9.05
-58.25
-91.55
-102.74
-87.70
-47.80
7.23
64.01
110.66
140.51
152.61
150.92
141.79
132.21
126.53
123.62
119.41
109.63
91.83
65.98
34.79
2.60
-25.63
-46.44
-59.62
-66.37
-67.41
-62.18
-49.73
-30.12
-5.79
18.44
36.39
42.29
33.72
13.02
-13.73
-39.27
-57.91
-67.19
-67.77
-62.23
-53.47
-43.29
-32.04
-19.48
-5.94
6.87
16.10
18.81
13.32
0.24
-17.50
-35.61
-50.17
-59.46
-65.08
-71.73
-85.35
-110.22
-146.15
-187.40
-223.86
-244.24
-239.85
-207.45
-150.24
-76.85
0.72
69.81
119.61
143.34
139.69
113.23
73.44
32.24
0.67
-13.95
-9.44
11.73
44.17
81.60
118.10
148.85
170.36
181.01
181.52
175.17
167.16
163.01
166.36
177.28
191.88
203.38
204.38
189.40
156.98
110.72
58.64
11.16
-22.23
-36.21
-31.85
-16.81
-2.89
-1.69
-20.02
-57.20
-105.54
-153.51
-190.01
-207.73
-205.08
-185.72
-156.25
-123.33
-91.69
-63.54
-39.24
-18.28
0.01
15.23
25.52
28.67
23.84
12.56
-1.86
-15.97
-27.22
-33.80
-35.63
-34.50
-33.25
-34.84
-41.44
-54.69
-75.36
-101.70
-126.93
-141.09
-134.58
-102.02
-44.79
29.37
107.79
174.53
210.19
206.38
172.15
125.61
80.25
40.80
7.47
-18.89
-34.04
-32.89
-12.16
25.81
73.48
121.28
156.64
172.06
168.44
152.22
130.27
108.94
85.98
56.70
17.30
-32.69
-89.64
-144.95
-190.59
-221.73
-237.46
-241.10
-238.21
-234.81
-234.71
-237.34
-238.49
-233.02
-216.94
-188.73
-150.53
-107.16
-65.11
-30.31
-6.06
7.44
11.86
9.70
3.53
-4.69
-13.19
-20.45
-25.06
-25.62
-21.14
-11.74
1.41
16.62
32.16
47.08
61.02
74.08
86.51
98.32
109.01
117.58
122.95
124.19
121.10
114.19
104.71
94.20
84.22
75.84
69.44
64.79
61.27
58.17
55.00
51.70
48.56
45.96
44.20
43.29
42.97
42.76
42.29
41.29
39.70
37.46
34.48
30.67
25.96
20.51
14.72
9.22
4.58
1.22
-0.72
-1.35
-0.94
0.22
1.89
3.78
5.62
7.03
7.67
7.27
5.77
3.37
0.51
-2.24
-4.41
-5.75
-6.31
-6.44
-6.55
-7.00
-7.88
-9.02
-10.10
-10.78
-10.86
-10.33
-9.30
-7.98
-6.54
-5.19
-4.15
-3.72
-4.09
-5.35
-7.29
-9.43
-11.13
-11.79
-11.06
-8.93
-5.75
-2.04
1.60
4.72
7.04
8.53
9.31
9.62
9.67
9.60
9.43
9.06
8.33
7.07
5.16
2.64
-0.27
-3.23
-5.87
-7.91
-9.28
-10.09
-10.54
-10.80
-10.93
-10.95
-10.85
-10.71
-10.65
-10.75
-11.03
-11.37
-11.60
-11.60
-11.39
-11.08
-10.83
-10.80
-11.04
-11.56
-12.37
-13.45
-14.77
-16.22
-17.52
-18.29
-18.14
-16.84
-14.37
-10.99
-7.18
-3.38
0.02
2.90
5.30
7.39
9.34
11.25
13.06
14.63
15.80
16.42
16.45
15.90
14.91
13.65
12.31
11.08
10.02
9.12
8.28
7.38
6.35
5.21
4.05
2.97
2.03
1.17
0.27
-0.81
-2.13
-3.64
-5.21
-6.64
-7.86
-8.83
-9.66
-10.50
-11.50
-12.72
-14.15
-15.68
-17.09
-18.15
-18.62
-18.32
-17.15
-15.15
-12.43
-9.21
-5.70
-2.08
1.51
4.99
8.27
11.20
13.64
15.43
16.55
17.06
17.16
17.04
16.89
16.82
16.85
16.94
17.00
16.99
16.87
16.66
16.43
16.23
16.09
15.96
15.75
15.35
14.69
13.75
12.53
11.01
9.15
6.92
4.31
1.39
-1.72
-4.88
-7.96
-10.86
-13.56
-16.07
-18.45
-20.76
-23.01
-25.16
-27.00
-28.23
-28.54
-27.66
-25.49
-22.19
-18.10
-13.67
-9.27
-5.19
-1.69
1.10
3.19
4.66
5.59
6.07
6.15
5.94
5.57
5.12
4.69
4.44
4.45
4.58
4.57
4.20
3.53
2.76
2.16
1.99
2.78
4.70
7.35
9.88
11.31
11.37
10.13
7.92
5.24
3.41
3.31
4.85
7.05
8.51
8.77
7.71
5.42
2.45
0.92
2.48
7.33
14.09
20.46
25.49
28.91
31.18
34.18
42.25
58.71
83.42
112.19
137.90
154.66
158.51
148.26
116.09
62.33
-3.98
-68.70
-116.88
-147.15
-158.70
-150.61
-122.83
-79.68
-28.83
20.02
58.91
84.79
99.63
108.77
115.18
110.78
88.34
48.76
2.24
-37.79
-62.84
-73.03
-73.79
-72.48
-74.27
-78.95
-82.19
-79.77
-70.69
-57.79
-45.86
-38.54
-38.08
-45.12
-58.01
-73.07
-85.89
-92.08
-88.52
-74.20
-50.60
-22.23
4.60
24.12
32.96
32.34
26.28
18.96
12.78
8.01
3.45
-1.98
-8.00
-13.10
-15.53
-14.62
-11.16
-6.80
-3.31
-1.74
-2.11
-3.42
-4.19
-3.09
0.42
6.20
13.31
20.98
28.82
36.76
44.42
50.64
53.48
50.78
41.30
25.68
6.62
-12.14
-27.19
-36.69
-40.70
-40.56
-37.95
-34.05
-29.34
-24.01
-18.52
-13.71
-10.61
-9.86
-11.35
-14.30
-17.57
-19.86
-20.27
-18.45
-14.67
-9.59
-4.11
1.02
5.41
8.12
9.00
8.53
7.64
7.47
8.97
12.53
17.85
24.03
29.87
34.32
36.66
36.49
33.67
28.31
20.87
12.35
4.25
-1.69
-3.87
-1.44
5.27
14.73
24.77
33.31
39.00
41.35
40.54
37.20
32.28
26.70
21.07
15.72
10.84
6.52
2.62
-1.22
-5.47
-10.25
-15.67
-22.00
-29.49
-37.84
-45.90
-51.93
-54.07
-50.91
-41.51
-26.21
-6.83
13.83
33.02
48.74
59.72
65.11
61.49
47.60
26.24
3.04
-17.12
-32.28
-42.86
-49.77
-52.93
-50.63
-39.99
-19.73
7.47
34.86
54.20
59.63
50.58
31.94
11.57
-3.26
-9.32
-8.17
-4.08
-0.80
0.56
1.37
3.61
8.16
14.35
20.35
24.30
25.17
23.46
20.74
18.74
18.26
19.03
20.16
20.18
18.21
14.04
8.22
2.00
-3.32
-7.06
-9.13
-9.86
-9.83
-9.53
-9.22
-8.98
-8.48
-7.25
-5.29
-2.50
1.21
5.77
10.91
16.23
21.13
25.43
29.43
32.83
36.15
40.55
46.78
54.55
62.75
69.55
73.78
75.20
72.53
66.41
58.81
50.79
40.74
29.19
14.72
-3.32
-24.40
-50.20
-79.86
-110.15
-137.81
-161.16
-179.70
-194.15
-205.90
-217.45
-235.67
-263.17
-295.98
-326.02
-344.93
-346.60
-329.23
-295.31
-226.47
-130.06
-31.21
47.91
101.12
132.92
149.77
156.20
155.53
150.77
141.03
128.02
116.23
109.70
109.03
111.19
110.75
102.24
82.87
51.89
16.13
-12.71
-25.28
-20.18
-3.91
13.83
26.10
32.05
34.15
37.81
46.95
61.12
75.85
86.30
90.71
91.22
91.91
95.19
101.90
111.25
120.88
127.55
128.24
121.43
107.75
90.00
71.70
56.42
46.70
43.21
45.05
50.65
58.73
68.46
79.11
89.40
96.43
97.17
89.60
73.64
51.20
25.65
0.56
-21.29
-38.58
-51.73
-62.67
-74.42
-90.06
-111.50
-138.45
-168.53
-197.95
-222.71
-239.60
-246.57
-243.09
-230.28
-210.80
-188.53
-167.77
-151.48
-139.76
-129.41
-115.29
-93.74
-65.45
-36.50
-16.30
-14.41
-36.68
-82.98
-147.23
-219.28
-287.77
-342.62
-376.74
-386.00
-370.66
-335.20
-286.74
-232.85
-179.58
-130.61
-87.22
-48.88
-12.25
25.33
64.86
105.91
147.36
187.76
225.28
258.08
285.27
310.35
337.77
371.20
412.80
462.40
516.16
565.78
600.27
609.96
593.95
556.86
506.39
450.97
397.64
350.13
308.30
269.85
211.04
126.41
28.96
-60.86
-130.44
-178.00
-205.96
-215.51
-206.37
-179.98
-139.88
-94.76
-57.35
-38.31
-40.10
-56.16
-75.00
-85.97
-83.27
-66.24
-39.91
-12.99
8.37
23.13
32.51
35.56
28.86
10.82
-18.91
-56.66
-95.58
-128.05
-148.75
-156.69
-155.62
-152.13
-145.81
-130.46
-103.97
-68.57
-29.60
7.49
39.42
64.65
81.45
92.11
96.47
92.57
78.68
54.11
18.94
-22.79
-67.80
-113.00
-155.84
-196.35
-235.93
-276.07
-318.13
-363.10
-410.95
-460.03
-505.00
-538.21
-553.42
-547.85
-523.01
-484.51
-440.16
-397.09
-359.58
-325.80
-292.08
-256.68
-220.57
-185.56
-152.70
-121.43
-90.21
-57.05
-16.49
33.25
88.11
140.28
183.40
214.91
236.11
249.81
260.06
277.05
306.35
345.62
387.36
425.50
458.29
487.88
516.92
548.91
594.44
657.88
733.41
808.42
871.79
917.56
945.10
955.01
891.41
734.41
514.01
288.39
98.89
-46.12
-159.67
-251.50
-340.52
-430.77
-507.62
-555.18
-567.34
-549.80
-507.92
-450.94
-388.52
-331.36
-283.44
-238.50
-188.88
-131.79
-69.62
-5.83
57.09
119.52
180.78
243.96
300.56
337.67
343.43
315.48
262.57
198.31
144.26
100.28
65.20
37.92
17.20
0.07
-17.48
-37.78
-62.01
-90.28
-126.03
-170.12
-222.68
-281.84
-344.60
-406.36
-460.79
-501.01
-520.88
-520.35
-500.73
-466.38
-422.20
-372.75
-320.85
-267.94
-215.13
-152.10
-81.40
-12.88
41.50
76.38
93.94
100.84
103.24
105.28
109.47
114.67
121.22
127.88
132.12
129.28
115.50
89.19
52.62
10.72
-29.04
-59.28
-77.39
-84.43
-85.42
-79.98
-65.57
-40.21
-4.17
38.22
83.18
128.30
174.14
216.69
252.77
278.36
288.88
281.47
243.98
176.17
91.50
12.09
-44.89
-72.54
-74.04
-58.13
-33.10
-4.02
28.13
63.30
101.67
140.03
173.52
197.32
201.72
183.56
145.14
94.69
36.00
-19.42
-60.87
-84.61
-95.01
-99.28
-100.99
-100.40
-95.48
-85.41
-71.05
-56.44
-46.07
-42.25
-44.28
-48.55
-51.53
-50.85
-46.19
-38.28
-29.79
-23.59
-21.06
-21.72
-23.48
-24.46
-23.63
-21.02
-16.90
-12.53
-9.40
-8.38
-9.54
-12.05
-14.78
-16.70
-17.21
-15.85
-13.28
-10.83
-9.51
-9.76
-11.22
-13.29
-15.81
-18.90
-22.51
-25.99
-27.84
-25.69
-17.61
-3.29
15.40
34.45
49.47
57.08
56.06
46.68
33.01
20.08
12.04
11.23
17.22
28.08
41.06
53.42
62.42
65.99
62.82
52.68
37.19
18.89
1.89
-9.90
-13.42
-9.55
-1.46
7.44
14.31
18.64
19.32
15.56
6.44
-8.45
-27.68
-46.95
-59.70
-59.99
-39.96
-2.68
42.66
84.70
114.04
127.15
125.25
111.71
89.81
62.84
32.62
1.47
-28.02
-53.39
-73.14
-87.87
-93.70
-91.31
-83.29
-73.81
-66.19
-62.31
-62.52
-65.80
-70.44
-74.38
-76.73
-76.98
-75.61
-73.20
-70.21
-66.89
-63.20
-59.12
-54.71
-50.88
-48.28
-47.33
-47.62
-48.08
-47.40
-44.56
-39.15
-31.37
-22.29
-13.08
-4.87
1.48
5.73
8.31
10.36
13.28
18.26
25.46
34.16
42.98
50.41
55.42
57.68
57.40
55.12
51.37
46.59
41.15
35.55
30.29
25.84
22.53
20.46
19.49
19.18
18.93
17.97
15.65
11.59
6.00
-0.46
-6.86
-12.47
-17.20
-21.62
-26.71
-33.31
-41.55
-50.70
-59.29
-65.75
-68.92
-68.45
-64.87
-59.19
-52.52
-45.68
-39.01
-32.43
-25.71
-18.63
-11.23
-3.76
3.26
9.23
13.44
15.19
13.85
9.13
1.42
-8.02
-17.06
-23.34
-25.19
-22.51
-16.91
-10.96
-6.85
-5.12
-4.44
-2.43
2.79
11.29
21.10
29.22
33.25
32.63
28.92
24.83
22.89
24.50
29.80
38.34
49.42
62.24
75.69
88.58
100.24
111.50
124.90
143.95
171.00
205.25
241.60
271.72
286.89
281.01
252.53
204.53
143.52
77.90
16.42
-33.24
-66.23
-82.05
-85.03
-82.52
-81.63
-85.54
-91.68
-93.05
-81.84
-53.12
-6.82
52.85
119.46
186.29
247.07
295.79
326.73
335.52
320.60
284.47
232.87
173.02
111.10
50.97
-5.23
-55.85
-98.83
-132.10
-155.27
-171.23
-186.20
-207.54
-240.25
-283.73
-330.77
-369.64
-388.42
-379.18
-340.00
-274.51
-189.90
-95.10
0.33
86.24
152.55
190.95
196.94
170.92
118.08
46.98
-32.38
-109.55
-173.84
-215.10
-226.05
-206.00
-163.06
-112.32
-70.25
-47.71
-45.53
-55.02
-62.85
-57.06
-31.58
12.68
70.17
133.25
193.51
241.76
268.44
265.09
227.09
156.05
59.74
-47.54
-147.31
-221.03
-255.62
-247.45
-204.00
-141.83
-81.53
-42.82
-35.43
-55.26
-87.31
-113.59
-120.80
-104.06
-67.00
-19.11
24.03
48.50
46.47
17.07
-35.62
-103.56
-174.97
-236.03
-274.64
-289.17
-284.32
-267.74
-247.47
-231.46
-225.99
-232.81
-248.07
-234.39
-169.30
-60.69
59.02
160.17
229.46
267.18
281.36
283.03
282.74
281.46
277.50
270.89
263.90
258.34
254.07
249.62
243.45
232.69
212.77
182.53
146.08
111.36
85.36
70.75
65.49
64.43
61.78
51.84
33.68
11.83
-6.64
-17.25
-21.08
-24.04
-33.47
-54.11
-86.33
-123.91
-156.95
-177.00
-181.46
-174.28
-163.35
-156.64
-158.79
-169.67
-182.81
-189.55
-184.00
-166.37
-142.20
-119.36
-104.60
-100.40
-103.69
-105.19
-96.11
-74.88
-48.74
-28.38
-21.41
-28.02
-40.81
-48.38
-37.48
-0.63
59.85
134.26
212.34
287.51
356.16
414.87
439.08
408.97
329.80
230.63
140.52
73.96
32.18
8.93
-3.99
-13.27
-19.24
-20.23
-17.44
-15.45
-17.57
-22.38
-24.61
-19.02
-4.79
17.05
41.01
58.24
60.30
44.13
13.57
-23.55
-59.38
-88.63
-106.87
-111.35
-101.86
-80.84
-52.37
-21.15
8.03
31.18
45.00
48.63
43.55
32.13
16.36
-2.67
-24.14
-45.47
-60.45
-63.56
-53.50
-34.42
-12.43
7.30
21.92
31.46
37.55
42.24
46.50
50.29
52.19
51.86
51.88
55.65
64.66
75.92
82.67
76.77
52.40
6.52
-57.53
-130.60
-203.72
-266.31
-312.81
-343.05
-360.41
-354.17
-323.00
-276.17
-226.66
-185.07
-155.49
-136.49
-122.14
-104.85
-79.22
-47.60
-14.54
17.36
44.74
64.78
76.04
80.24
81.35
83.65
89.14
92.08
96.32
105.66
121.35
141.61
164.37
188.00
211.10
230.99
246.05
262.45
284.58
312.56
342.46
370.42
394.02
412.17
424.14
397.25
322.22
215.21
102.83
0.95
-86.43
-159.66
-218.80
-263.61
-294.45
-307.20
-303.87
-287.33
-262.71
-234.16
-204.76
-177.53
-155.56
-141.19
-130.64
-120.06
-106.96
-92.95
-78.20
-61.86
-42.89
-20.92
3.50
31.13
60.26
86.54
104.35
110.43
104.87
90.86
73.24
56.86
46.31
43.38
46.97
53.86
61.09
66.69
69.78
70.29
68.77
66.50
64.68
64.01
64.27
64.80
64.50
62.22
57.24
49.75
40.89
32.44
26.20
23.23
23.55
25.90
28.20
28.10
23.81
14.66
1.35
-14.31
-30.06
-43.85
-54.60
-62.21
-67.34
-70.70
-72.60
-72.70
-70.33
-65.12
-57.44
-48.42
-39.51
-31.85
-25.79
-21.03
-17.07
-13.68
-11.13
-9.78
-9.73
-10.33
-10.54
-9.41
-6.66
-2.86
0.99
4.00
5.91
6.98
7.63
8.01
7.91
7.13
5.85
4.83
5.03
7.09
10.87
15.46
19.44
21.58
21.21
18.31
13.47
7.60
1.79
-2.86
-5.48
-5.61
-3.38
0.43
4.55
7.64
8.66
7.27
3.97
-0.06
-3.35
-4.78
-3.99
-1.57
1.31
3.43
4.08
3.22
1.20
-1.68
-5.57
-10.88
-17.79
-25.77
-33.46
-39.20
-41.74
-40.87
-37.43
-32.88
-28.55
-25.09
-22.43
-20.04
-17.52
-14.79
-12.21
-10.34
-9.67
-10.38
-12.18
-14.38
-16.07
-16.47
-15.14
-12.29
-8.63
-5.14
-2.69
-1.68
-2.00
-3.16
-4.58
-5.81
-6.66
-7.10
-7.09
-6.58
-5.43
-3.58
-1.13
1.59
4.06
5.68
5.97
4.70
1.94
-1.97
-6.67
-11.84
-17.31
-22.94
-28.44
-33.35
-37.03
-39.00
-39.13
-37.84
-35.82
-33.70
-31.69
-29.51
-26.68
-22.99
-18.83
-15.10
-12.83
-12.60
-14.23
-16.81
-19.11
-20.02
-18.95
-15.90
-11.27
-5.62
0.54
6.84
13.06
19.14
25.17
31.37
38.03
45.41
53.62
62.58
71.93
81.22
89.89
97.41
103.33
107.24
109.04
108.85
107.16
104.63
101.82
98.91
95.58
91.25
85.42
78.14
70.04
62.16
55.46
50.30
46.24
42.30
37.36
30.67
22.17
12.37
2.07
-7.94
-17.23
-25.74
-33.70
-41.51
-49.54
-58.05
-67.05
-76.32
-85.30
-93.20
-99.14
-102.36
-102.51
-99.81
-94.97
-88.92
-82.51
-76.26
-70.34
-64.67
-59.10
-53.55
-48.00
-42.41
-36.73
-30.94
-25.14
-19.58
-14.55
-10.20
-6.36
-2.63
1.43
5.96
10.69
15.00
18.14
19.67
19.54
18.16
16.09
13.87
11.71
9.59
7.26
4.47
1.13
-2.55
-6.06
-8.77
-10.16
-10.15
-9.25
-8.46
-8.99
-11.86
-17.54
-25.71
-35.42
-45.25
-53.81
-60.01
-63.34
-63.95
-62.49
-59.88
-56.97
-54.23
-51.57
-48.47
-44.32
-38.75
-31.98
-24.72
-17.92
-12.31
-8.08
-4.88
-2.07
0.93
4.36
8.06
11.73
15.05
17.85
20.01
21.41
21.91
21.51
20.56
19.78
19.95
21.57
24.38
27.44
29.47
29.58
27.76
24.95
22.46
21.29
21.52
22.37
22.65
21.42
18.50
14.39
10.11
6.67
4.86
5.11
7.47
11.67
17.16
23.19
28.95
33.72
37.04
38.82
39.36
39.27
39.39
40.48
43.01
46.94
51.65
56.09
59.28
60.68
60.26
58.37
55.41
51.70
47.42
42.64
37.37
31.83
26.50
21.94
18.54
16.33
15.04
14.10
12.85
10.50
6.76
1.90
-3.55
-9.31
-15.36
-21.77
-28.48
-35.16
-42.02
-48.77
-54.68
-59.34
-63.25
-67.40
-72.58
-78.91
-85.86
-94.08
-103.04
-110.85
-115.64
-116.89
-115.35
-112.24
-108.61
-105.14
-104.53
-107.18
-110.54
-111.42
-108.52
-102.62
-95.62
-89.85
-87.58
-93.75
-109.53
-130.83
-150.82
-163.67
-165.73
-155.89
-135.72
-87.96
-15.39
60.94
120.12
156.68
176.15
186.04
190.86
191.85
188.87
178.78
162.21
144.11
130.10
122.58
121.34
124.67
130.26
135.33
133.87
121.58
97.90
65.48
28.44
-8.09
-38.69
-59.42
-69.10
-70.93
-68.08
-61.69
-49.26
-32.45
-12.96
6.59
22.73
32.36
33.51
27.66
19.29
13.44
12.83
17.63
24.96
29.84
27.12
13.33
-10.53
-38.56
-62.03
-73.00
-66.62
-43.66
-10.41
24.30
50.16
60.60
53.82
32.29
-0.38
-37.73
-71.14
-91.62
-93.18
-76.25
-48.21
-19.85
-1.13
4.27
1.14
-1.09
5.61
23.03
46.09
66.69
79.66
83.96
82.66
80.66
81.14
84.19
87.83
90.30
85.36
73.88
59.14
44.73
32.94
23.88
16.24
8.77
1.54
-3.48
-2.38
6.83
22.18
38.48
48.59
46.13
28.54
-1.61
-38.19
-68.86
-85.00
-85.10
-73.71
-58.00
-43.87
-33.95
-27.98
-24.32
-21.01
-17.95
-15.82
-15.03
-15.41
-16.46
-17.39
-17.83
-17.63
-16.53
-15.04
-13.77
-12.93
-12.45
-12.08
-11.60
-11.19
-11.56
-13.61
-17.93
-23.37
-26.54
-23.04
-9.89
12.15
37.84
59.48
70.77
68.92
56.22
38.57
22.02
9.92
2.12
-3.64
-9.22
-14.65
-18.66
-19.91
-18.38
-15.50
-12.95
-11.49
-10.78
-9.80
-8.36
-8.08
-11.49
-20.48
-34.64
-50.98
-65.11
-73.29
-74.08
-69.22
-63.04
-60.56
-65.57
-79.49
-101.15
-127.59
-154.60
-176.97
-189.66
-188.91
-173.10
-143.46
-103.58
-58.00
-11.19
31.81
68.74
100.30
128.86
156.78
185.08
213.51
240.94
265.61
285.92
300.58
307.98
306.31
294.58
273.26
244.45
210.28
171.15
126.83
78.38
29.30
-14.42
-45.86
-60.13
-56.34
-39.31
-18.59
-3.81
-0.40
-8.30
-22.51
-35.12
-38.53
-27.78
-0.84
34.54
64.05
76.82
71.18
53.79
37.89
28.76
27.75
32.50
37.92
39.24
33.99
21.72
3.10
-19.87
-44.57
-67.46
-85.82
-98.92
-107.28
-111.41
-111.62
-108.02
-100.86
-91.55
-82.01
-74.79
-72.21
-75.04
-82.13
-91.93
-103.87
-118.65
-137.79
-161.46
-187.55
-211.68
-228.41
-232.78
-222.37
-197.84
-162.50
-121.41
-79.89
-42.60
-12.80
8.08
20.68
26.89
29.28
30.12
30.43
30.11
28.54
25.51
21.72
18.59
17.25
18.25
21.32
25.09
27.87
28.41
26.26
21.73
15.49
7.93
0.61
-3.44
-1.15
9.48
28.33
52.69
78.05
100.06
115.92
127.33
139.53
156.91
179.47
202.45
217.85
217.78
197.69
157.10
101.73
41.74
-12.64
-53.93
-77.70
-82.85
-71.08
-39.88
2.14
39.63
63.90
76.40
81.74
82.31
76.54
61.54
36.09
1.46
-36.54
-69.21
-89.49
-97.70
-94.19
-81.48
-62.86
-41.55
-20.97
-2.57
14.62
31.97
49.81
67.68
83.41
93.86
95.93
88.19
70.68
46.16
18.28
-10.27
-37.91
-64.62
-90.47
-115.14
-138.13
-158.83
-176.56
-191.26
-203.41
-212.77
-218.48
-218.65
-211.62
-197.25
-177.62
-156.74
-139.84
-131.89
-135.50
-149.63
-168.72
-184.94
-190.90
-182.23
-158.47
-123.06
-82.09
-42.30
-9.30
14.99
30.45
37.26
35.84
27.74
15.82
3.55
-5.67
-9.44
-4.21
10.05
28.14
42.69
49.33
49.13
47.64
52.05
67.86
101.03
150.29
205.33
251.63
278.38
282.27
266.64
239.46
210.97
197.91
212.29
255.26
318.38
389.63
457.14
510.40
541.96
510.27
403.21
252.97
110.66
5.98
-59.62
-97.56
-119.65
-133.22
-141.31
-138.56
-122.61
-98.74
-76.59
-63.15
-59.45
-62.64
-68.67
-74.24
-72.88
-62.59
-47.00
-33.16
-26.78
-29.00
-37.78
-49.67
-61.10
-66.20
-62.47
-51.53
-38.19
-27.93
-23.49
-25.39
-32.33
-42.47
-53.20
-65.68
-84.45
-108.91
-140.76
-178.67
-218.37
-254.04
-280.45
-293.45
-292.66
-278.09
-249.93
-210.03
-161.41
-110.32
-66.86
-42.70
-35.58
-44.33
-58.73
-62.53
-45.08
-6.94
40.79
83.25
109.85
119.33
117.26
113.24
114.30
120.59
128.55
134.79
138.84
142.75
148.52
154.22
155.31
146.44
123.50
87.96
46.55
7.75
-22.77
-44.93
-64.32
-87.51
-113.53
-138.21
-153.47
-152.15
-133.36
-104.07
-75.55
-57.13
-50.45
-49.32
-44.79
-30.38
-5.85
23.60
51.52
74.60
93.73
111.84
129.91
144.24
148.48
137.87
113.25
82.39
57.05
47.04
54.44
71.31
82.21
71.44
30.65
-36.76
-116.17
-187.91
-235.25
-250.49
-236.20
-201.80
-157.70
-110.98
-64.64
-19.97
20.33
51.07
66.99
66.28
52.92
35.66
23.47
20.18
21.84
18.52
-0.43
-40.03
-96.50
-157.80
-208.41
-236.14
-236.56
-213.58
-175.92
-132.37
-87.75
-43.09
3.85
55.13
109.50
161.82
205.65
237.74
259.65
276.78
293.48
311.08
326.84
334.55
327.38
301.25
257.55
201.34
138.44
70.93
-0.86
-75.95
-151.07
-220.54
-277.54
-315.18
-329.82
-314.41
-273.83
-224.41
-182.49
-153.69
-131.99
-114.26
-98.39
-85.87
-77.37
-77.37
-85.73
-95.83
-96.28
-76.83
-34.36
25.60
90.38
148.76
192.17
218.48
231.17
235.40
232.93
220.68
195.83
161.08
130.52
119.53
137.17
180.55
235.52
282.50
304.50
294.72
236.39
137.15
26.14
-63.75
-116.29
-133.62
-126.57
-107.39
-86.35
-70.85
-61.14
-55.94
-54.32
-55.58
-58.08
-59.57
-58.24
-53.67
-46.62
-36.34
-24.46
-15.69
-15.29
-25.33
-43.29
-62.71
-78.46
-86.56
-83.78
-70.95
-53.52
-39.08
-33.63
-39.39
-54.06
-73.17
-92.72
-107.83
-114.82
-113.00
-103.84
-90.03
-74.72
-60.05
-49.26
-48.29
-59.44
-80.66
-108.21
-137.33
-163.59
-181.62
-184.75
-170.22
-144.00
-111.80
-77.48
-45.29
-18.14
3.58
22.17
44.91
76.85
112.87
148.45
181.52
209.32
230.26
244.55
230.04
179.89
136.65
113.96
103.57
104.83
115.98
132.30
146.06
148.74
138.02
115.22
79.54
37.17
-1.63
-30.62
-48.48
-57.57
-61.39
-59.85
-53.03
-47.08
-46.46
-53.10
-68.19
-90.08
-113.49
-131.16
-135.06
-122.25
-98.90
-72.95
-50.01
-32.24
-17.38
-0.73
21.08
48.27
76.36
97.25
105.47
100.98
88.00
72.80
60.56
53.34
50.38
49.18
47.02
42.95
37.83
32.91
28.55
23.74
16.75
6.74
-5.10
-15.59
-20.87
-17.95
-5.92
13.74
37.68
62.43
86.22
109.37
133.25
158.02
181.20
197.94
202.26
189.16
156.67
107.49
48.43
-11.38
-63.40
-101.16
-120.68
-120.82
-103.37
-76.15
-50.22
-35.07
-33.03
-40.75
-53.27
-66.26
-76.45
-81.40
-79.46
-68.69
-50.21
-27.62
-7.20
4.45
3.30
-10.31
-31.71
-53.61
-68.58
-71.84
-61.36
-39.51
-12.18
13.31
30.32
34.72
25.91
6.83
-17.71
-43.51
-67.79
-89.00
-106.00
-117.21
-120.54
-113.86
-96.39
-66.40
-29.13
4.99
27.11
35.94
36.80
36.84
41.25
51.19
65.41
78.53
86.07
86.35
80.59
71.71
62.50
54.80
48.61
41.34
31.18
17.87
2.62
-12.70
-26.31
-37.08
-43.39
-43.70
-37.68
-27.78
-18.68
-15.19
-19.52
-29.27
-39.87
-45.31
-42.97
-34.78
-26.42
-23.96
-30.24
-43.60
-56.76
-64.32
-63.41
-54.12
-37.71
-15.32
11.72
40.82
67.20
84.90
89.92
81.72
63.40
40.97
20.67
6.45
-0.62
-1.36
2.90
10.81
21.12
31.75
39.62
42.13
36.85
23.66
4.97
-14.95
-31.88
-43.00
-47.69
-47.16
-43.83
-40.40
-38.78
-39.82
-43.26
-48.14
-53.26
-57.70
-60.97
-62.81
-63.12
-61.63
-58.40
-53.84
-48.53
-42.93
-37.28
-31.64
-25.90
-19.90
-13.06
-4.74
5.97
19.97
37.38
56.64
74.25
86.32
90.00
85.36
74.57
60.92
47.18
34.66
22.99
10.64
-2.79
-16.25
-23.21
-17.51
1.02
24.91
44.25
52.58
48.77
36.48
20.29
3.73
-12.13
-28.26
-46.45
-68.21
-90.69
-111.65
-123.31
-121.12
-105.15
-80.45
-53.75
-30.09
-11.59
2.08
11.89
19.30
24.81
28.71
31.15
32.24
32.14
31.16
29.81
28.30
27.05
25.99
25.19
24.73
24.58
24.42
23.63
21.92
18.91
14.13
6.40
-5.00
-19.44
-34.40
-45.52
-48.39
-39.80
-20.03
6.86
34.86
56.90
69.99
75.10
75.24
72.36
67.35
60.44
51.74
43.48
38.72
39.54
44.36
47.69
41.81
21.99
-11.88
-55.01
-99.32
-136.70
-161.11
-169.61
-157.80
-130.16
-93.11
-53.80
-19.11
6.72
22.16
28.92
30.86
32.04
34.42
38.22
41.53
41.04
34.31
20.12
-0.53
-24.17
-46.44
-64.08
-76.18
-82.52
-85.95
-86.68
-81.42
-65.50
-34.04
12.39
66.32
115.68
149.19
157.70
143.78
116.91
87.90
63.86
46.36
34.68
26.15
21.41
22.97
33.52
51.96
73.32
90.85
96.55
89.65
73.39
53.35
34.37
20.00
11.37
8.61
11.51
19.36
30.27
39.75
41.96
31.31
6.16
-30.84
-72.68
-110.69
-137.67
-150.36
-150.55
-142.82
-133.45
-124.01
-114.86
-105.52
-95.82
-86.14
-77.04
-69.04
-61.78
-54.44
-46.32
-37.97
-30.32
-25.37
-22.59
-18.63
-9.28
8.03
32.04
57.74
78.33
88.77
88.03
79.47
68.31
58.68
51.73
46.37
40.25
32.35
23.70
16.57
12.88
12.70
14.24
15.07
13.17
7.92
0.03
-9.56
-20.29
-32.05
-44.52
-56.61
-65.97
-70.45
-69.30
-64.68
-61.49
-65.56
-81.43
-110.26
-148.67
-189.21
-222.62
-239.84
-236.56
-213.28
-174.60
-127.88
-80.53
-37.64
-0.60
32.75
64.03
93.94
125.14
161.44
204.31
250.72
292.88
320.73
324.65
302.83
254.32
184.78
105.65
28.89
-35.72
-81.64
-104.96
-105.63
-82.19
-43.90
-0.29
43.41
85.14
125.97
168.83
217.35
253.47
301.64
352.83
373.60
340.95
254.95
138.43
19.07
-75.20
-146.30
-192.03
-215.92
-219.85
-201.01
-161.78
-110.95
-61.24
-23.37
-7.43
-9.60
-22.84
-37.10
-44.85
-45.84
-43.62
-41.98
-42.46
-45.55
-46.92
-46.60
-44.54
-37.73
-24.31
-3.73
21.55
46.30
62.95
67.20
55.85
26.74
-11.00
-45.32
-67.01
-73.27
-67.39
-56.01
-44.11
-34.78
-28.61
-23.88
-19.53
-15.33
-11.69
-8.95
-7.37
-6.72
-6.83
-8.28
-11.76
-17.78
-25.94
-34.55
-40.80
-41.81
-35.70
-22.40
-4.17
15.60
33.09
45.54
52.17
54.30
54.73
56.78
63.26
75.01
90.66
106.89
119.70
126.07
125.12
118.20
107.31
96.43
88.76
85.60
86.81
91.93
100.97
113.90
129.09
142.12
146.29
134.55
102.76
52.77
-7.41
-66.32
-113.49
-143.03
-154.97
-153.77
-145.90
-137.61
-132.14
-129.80
-129.33
-129.73
-130.74
-132.32
-133.69
-132.94
-128.87
-120.02
-105.85
-87.97
-70.57
-58.87
-56.69
-64.75
-80.38
-100.90
-121.93
-139.02
-149.68
-154.85
-158.04
-163.14
-172.26
-184.33
-198.13
-209.16
-211.65
-202.07
-181.93
-157.02
-134.16
-118.00
-91.19
-47.89
5.72
57.91
100.15
128.45
141.49
140.32
128.00
109.47
87.80
67.32
53.10
48.64
54.16
66.74
81.95
94.01
96.65
84.55
56.96
19.83
-16.32
-40.69
-46.48
-33.08
-6.86
21.54
41.86
50.26
50.47
49.35
52.54
62.69
80.17
104.49
132.23
159.38
181.92
196.21
197.85
183.24
143.98
82.94
13.16
-51.94
-104.46
-144.63
-171.30
-183.14
-178.14
-156.71
-123.65
-85.57
-49.44
-18.43
10.67
45.33
90.82
137.95
185.21
217.50
222.30
194.59
140.36
76.29
22.96
-4.92
-3.66
21.25
57.83
95.06
124.86
134.70
115.88
71.12
15.12
-34.18
-64.02
-72.85
-68.37
-62.50
-64.84
-78.47
-99.80
-122.03
-139.91
-151.12
-157.30
-162.47
-170.81
-183.23
-194.95
-197.44
-183.14
-149.19
-98.11
-36.79
26.64
84.75
131.64
162.87
175.18
167.19
141.17
104.28
66.72
38.00
23.18
22.51
33.15
52.34
79.14
113.34
152.49
189.25
212.06
209.72
178.65
124.83
60.95
-0.01
-49.92
-87.00
-113.54
-132.06
-142.91
-142.74
-127.69
-96.89
-53.81
-4.40
45.68
92.40
133.22
157.42
156.69
131.45
91.72
50.55
17.77
-1.57
-6.68
-0.59
11.25
21.79
25.21
17.50
-2.61
-32.76
-67.31
-98.98
-118.79
-123.29
-114.83
-99.42
-83.95
-73.71
-71.20
-75.39
-83.07
-88.80
-87.62
-75.48
-50.96
-17.12
19.88
51.66
70.25
73.84
66.17
53.06
39.75
29.57
23.73
23.18
28.04
37.62
48.74
55.48
51.93
34.90
5.65
-30.85
-67.01
-96.69
-117.28
-129.69
-137.55
-143.00
-146.16
-141.55
-124.87
-92.84
-45.87
11.89
73.79
131.48
179.85
217.25
245.26
258.86
255.85
236.99
204.78
169.62
129.33
81.73
26.93
-34.22
-97.64
-157.96
-210.22
-249.64
-271.24
-271.60
-247.81
-201.56
-140.88
-78.79
-28.04
3.78
17.40
21.09
25.59
40.86
70.09
107.44
140.22
154.62
142.46
104.98
52.11
-2.68
-47.12
-75.34
-85.72
-81.30
-70.02
-59.44
-52.18
-47.18
-43.97
-43.27
-45.42
-49.58
-49.92
-40.12
-16.31
20.31
63.52
104.90
138.19
161.90
174.66
178.83
176.80
169.50
155.95
133.70
100.45
55.88
2.41
-54.74
-106.94
-145.07
-162.16
-155.91
-130.74
-97.39
-69.48
-58.56
-69.14
-95.21
-124.06
-142.53
-143.15
-127.12
-103.04
-81.82
-69.29
-68.98
-77.56
-87.86
-95.50
-101.71
-109.87
-122.72
-135.32
-140.00
-131.32
-108.84
-78.56
-50.25
-33.44
-32.93
-46.05
-64.73
-81.38
-93.54
-104.10
-118.92
-142.03
-171.69
-199.92
-216.13
-212.08
-185.86
-141.83
-87.23
-29.00
28.53
83.91
137.67
191.14
246.00
303.71
365.18
429.89
494.31
551.76
593.25
610.15
597.44
556.22
493.43
419.08
342.68
270.18
203.98
142.81
83.20
21.62
-43.23
-109.13
-170.20
-217.96
-243.49
-238.86
-201.98
-139.26
-64.74
4.57
54.39
77.16
73.25
49.28
17.04
-11.97
-30.08
-34.33
-24.66
-2.32
30.25
69.35
96.88
98.78
73.61
33.03
-8.78
-43.11
-67.23
-82.72
-92.82
-100.85
-106.44
-107.60
-102.64
-91.33
-74.86
-55.99
-40.00
-33.33
-42.18
-67.28
-103.62
-141.84
-171.00
-181.62
-168.49
-135.06
-88.25
-39.11
1.84
27.06
33.54
23.40
1.61
-22.41
-41.38
-52.23
-56.35
-56.57
-55.06
-53.00
-50.32
-46.66
-41.23
-33.32
-21.84
-5.97
14.25
37.92
62.19
84.54
103.37
118.67
130.14
136.24
133.52
118.02
87.76
44.32
-5.81
-53.76
-91.23
-113.21
-118.61
-109.50
-89.89
-62.07
-32.39
-5.31
16.92
33.76
45.20
50.96
50.08
41.47
25.33
4.04
-17.30
-33.34
-41.06
-41.19
-37.37
-33.55
-31.66
-30.42
-27.11
-19.29
-7.38
5.22
13.95
15.73
10.49
1.00
-8.80
-15.86
-18.72
-17.89
-14.68
-10.51
-6.32
-2.48
0.94
3.91
6.16
7.51
7.84
7.26
6.10
4.82
3.79
3.17
2.84
2.55
2.11
1.55
1.12
1.19
2.06
3.90
6.62
9.88
13.26
16.29
18.59
19.92
20.18
19.43
17.89
15.89
13.89
12.28
11.33
11.07
11.37
11.96
12.57
13.04
13.24
13.11
12.61
11.75
10.57
9.28
8.18
7.61
7.77
8.50
9.32
9.45
8.07
4.62
-0.96
-8.14
-15.87
-22.97
-28.45
-31.84
-33.30
-33.47
-33.18
-33.06
-33.35
-33.94
-34.44
-34.36
-33.29
-30.88
-26.87
-21.13
-13.80
-5.37
3.26
10.93
16.56
19.53
19.88
18.38
16.12
14.15
13.04
12.79
13.03
13.29
13.28
13.02
12.67
12.38
12.19
11.96
11.57
10.95
10.13
9.26
8.44
7.70
6.97
6.15
5.13
3.86
2.37
0.72
-1.02
-2.77
-4.50
-6.08
-7.28
-7.81
-7.38
-5.92
-3.84
-1.97
-1.37
-2.84
-6.49
-11.46
-16.12
-18.66
-17.82
-13.53
-6.97
-0.11
5.09
7.64
7.90
7.42
8.19
11.66
17.77
25.00
30.85
32.97
30.43
24.20
16.74
11.00
9.30
12.37
19.42
28.18
35.13
36.10
27.01
5.23
-28.59
-69.22
-107.86
-134.49
-142.30
-130.84
-106.52
-79.95
-61.45
-56.84
-62.70
-71.62
-74.62
-66.61
-49.34
-29.30
-12.54
-1.55
4.96
9.83
14.77
20.02
25.09
30.25
37.15
47.72
62.06
77.49
89.42
93.35
87.54
73.65
55.85
38.69
25.25
16.27
10.96
8.35
7.84
9.35
12.43
15.94
18.29
18.31
15.62
10.99
6.03
2.28
0.64
0.88
1.88
2.08
0.24
-4.05
-10.26
-17.32
-23.90
-29.41
-34.21
-39.21
-44.99
-51.03
-55.84
-57.57
-55.02
-48.19
-38.11
-26.19
-13.48
-0.61
11.92
23.12
31.37
35.35
34.66
30.14
23.62
17.07
11.72
7.89
5.24
3.35
2.10
1.52
1.57
2.13
2.83
3.38
3.65
3.91
4.75
7.14
12.18
20.31
30.89
41.86
50.13
52.77
48.24
37.23
22.69
8.79
-0.72
-4.02
-1.79
3.18
7.13
7.17
2.04
-7.80
-20.99
-35.77
-49.97
-60.84
-65.36
-60.47
-44.82
-20.02
9.27
36.73
56.76
66.42
66.03
58.34
46.66
33.46
19.98
6.98
-4.65
-13.82
-19.90
-23.47
-26.05
-29.22
-33.33
-37.28
-38.76
-35.58
-26.85
-13.60
1.47
14.88
23.29
24.36
17.50
4.00
-13.08
-29.70
-41.93
-47.27
-45.50
-38.73
-30.38
-23.74
-20.69
-21.30
-24.23
-27.49
-29.62
-29.39
-26.45
-21.35
-15.06
-8.60
-2.51
3.04
8.09
12.48
15.69
16.99
16.11
13.75
11.51
11.23
13.90
19.04
24.78
28.93
29.95
27.81
23.85
19.93
17.42
16.66
17.19
18.33
20.00
22.87
27.93
35.65
45.33
55.18
62.97
67.19
67.69
65.81
63.72
63.29
65.04
67.78
69.22
67.05
60.38
50.26
39.79
33.02
33.40
42.19
57.73
76.01
91.88
100.99
100.57
90.36
72.44
50.23
27.44
7.25
-7.50
-14.86
-14.02
-7.13
1.57
7.31
7.04
1.03
-7.05
-11.27
-7.61
3.69
15.37
17.18
1.03
-34.80
-85.01
-139.90
-188.66
-224.28
-244.37
-252.83
-255.58
-257.33
-260.25
-265.08
-272.78
-284.02
-299.99
-304.93
-285.59
-237.84
-169.17
-91.62
-15.58
47.72
97.35
131.74
151.04
157.07
154.74
149.47
147.39
153.80
169.21
193.25
223.02
252.63
271.92
270.04
241.31
189.31
127.01
70.03
29.76
7.35
-6.01
-20.90
-43.86
-72.12
-100.43
-118.61
-118.31
-96.64
-52.24
4.19
56.73
91.14
101.33
85.64
47.41
-7.00
-70.13
-134.11
-189.33
-225.78
-237.28
-223.47
-189.77
-144.05
-90.28
-38.16
3.02
28.50
40.19
42.88
40.46
34.98
28.51
23.10
20.46
23.67
34.01
51.97
75.33
97.76
110.14
104.02
75.14
25.71
-34.30
-90.51
-127.11
-131.79
-102.15
-46.12
22.19
88.67
143.44
182.42
198.43
187.82
153.64
106.14
59.02
23.75
5.40
1.60
4.16
3.21
-7.06
-27.38
-54.38
-82.46
-106.05
-121.18
-124.19
-112.47
-86.08
-47.91
-4.16
36.91
68.08
85.16
88.03
79.89
65.15
48.07
32.67
22.15
16.12
14.43
15.68
17.73
18.80
18.19
16.39
15.06
15.88
19.31
24.57
29.55
31.95
30.31
24.43
15.31
4.68
-5.67
-14.60
-21.47
-26.44
-29.79
-31.45
-30.92
-27.52
-20.87
-11.27
0.22
12.27
23.44
32.59
39.04
42.49
42.85
40.22
34.95
27.82
20.09
13.19
8.38
6.34
6.98
9.46
12.53
15.03
16.29
16.32
15.64
14.88
14.51
14.67
15.41
16.99
20.13
25.80
34.70
46.83
61.33
76.70
91.32
103.97
114.15
121.95
127.69
131.59
133.76
134.44
134.26
134.23
135.30
137.74
140.52
141.31
136.86
124.25
102.28
72.24
37.63
2.94
-27.84
-52.62
-71.50
-86.84
-101.28
-116.12
-130.43
-141.73
-148.02
-149.37
-149.46
-154.13
-169.76
-198.79
-237.29
-275.79
-303.79
-314.94
-308.84
-290.74
-266.83
-242.98
-222.00
-204.03
-188.35
-175.04
-164.56
-154.53
-140.22
-115.02
-77.46
-32.84
8.06
33.58
36.23
15.40
-21.38
-64.21
-87.81
-74.68
-24.48
45.15
112.77
167.35
202.84
229.64
253.86
275.53
287.76
282.43
257.14
214.11
159.64
100.39
42.82
-9.10
-50.90
-79.11
-90.77
-84.58
-62.64
-31.13
0.43
23.44
31.79
24.88
5.23
-23.34
-57.49
-95.06
-134.50
-174.27
-211.83
-244.12
-267.10
-277.45
-273.32
-254.73
-223.32
-181.64
-132.90
-81.05
-30.06
17.21
58.86
93.43
119.68
136.84
145.52
147.84
146.14
143.36
142.82
147.11
156.50
168.63
179.24
184.07
179.83
163.18
132.74
90.14
39.73
-13.27
-64.33
-110.58
-150.03
-171.46
-167.64
-140.58
-100.43
-58.02
-20.43
8.38
25.81
31.41
26.98
14.25
-2.93
-19.68
-31.20
-34.73
-28.28
-14.86
1.32
16.68
28.12
34.57
36.70
36.14
34.12
31.35
28.13
26.00
27.30
32.55
41.73
54.67
71.58
92.62
117.38
140.70
158.02
164.03
153.92
126.50
85.53
38.46
-7.06
-45.92
-76.81
-100.22
-115.17
-119.23
-109.61
-85.94
-52.07
-15.73
12.69
26.12
24.21
12.40
-1.85
-12.38
-16.37
-13.45
-5.26
7.11
22.40
38.63
52.75
60.67
59.26
47.88
29.46
7.72
-9.93
-17.93
-16.73
-9.68
-1.53
3.61
3.49
-1.88
-10.86
-20.63
-28.58
-32.47
-30.43
-21.82
-7.26
11.08
29.91
45.82
56.40
60.42
58.08
50.98
41.05
29.97
18.77
7.89
-2.62
-12.70
-22.30
-31.02
-37.81
-41.51
-41.20
-36.59
-28.14
-16.96
-4.60
7.32
17.53
25.50
31.29
35.30
38.07
40.09
41.73
42.69
42.58
41.35
39.55
38.12
38.04
39.93
43.82
49.17
53.92
56.06
54.61
50.22
44.73
40.33
38.93
41.76
49.38
59.71
69.54
75.21
73.32
61.08
36.91
1.75
-40.55
-83.76
-123.88
-159.20
-190.43
-219.86
-250.00
-282.38
-316.22
-348.26
-360.13
-338.12
-280.37
-199.36
-114.50
-41.98
8.62
34.34
37.36
24.93
4.64
-15.54
-28.62
-30.93
-22.19
-6.54
12.37
31.61
50.96
69.78
87.72
104.92
120.92
136.54
153.12
172.50
190.29
203.85
208.98
202.09
188.60
169.72
147.91
125.82
105.09
85.75
68.04
52.13
37.47
27.06
23.69
28.59
38.54
46.68
45.35
30.62
3.16
-31.89
-67.94
-97.46
-114.74
-120.02
-118.74
-117.11
-117.72
-119.76
-120.69
-117.98
-112.25
-102.94
-89.82
-73.00
-53.52
-33.22
-14.82
-0.33
10.29
19.00
27.91
39.45
54.95
72.31
87.48
95.85
95.84
90.20
83.36
78.45
75.34
71.57
64.62
54.14
42.32
32.79
28.65
30.93
39.00
50.81
62.97
71.05
70.37
57.22
30.74
-5.98
-46.79
-84.64
-113.31
-129.72
-134.50
-130.75
-121.94
-110.25
-94.32
-75.56
-55.50
-36.19
-20.03
-8.78
-2.54
0.17
1.61
3.85
7.38
11.76
15.82
18.22
18.17
15.73
11.74
7.30
3.06
-0.49
-3.05
-4.62
-5.53
-6.34
-7.70
-9.91
-12.57
-14.27
-13.07
-7.26
3.39
17.10
30.82
41.71
48.40
51.08
50.84
48.49
44.32
38.74
33.24
30.86
35.26
48.43
68.72
90.63
106.60
110.07
98.35
73.43
40.53
6.18
-23.35
-44.01
-54.47
-55.52
-48.90
-36.31
-19.34
0.01
18.89
33.18
39.12
34.76
20.58
-1.00
-26.40
-52.11
-75.39
-94.41
-109.00
-119.01
-124.31
-125.32
-123.62
-121.32
-120.36
-121.79
-125.28
-130.53
-135.75
-138.17
-135.25
-126.06
-110.82
-91.00
-68.72
-39.43
-4.72
30.43
61.21
85.56
103.21
114.69
119.88
118.03
108.75
91.28
67.41
40.90
15.61
-7.84
-30.35
-53.24
-77.01
-100.04
-120.50
-135.13
-141.36
-135.57
-121.70
-106.57
-96.79
-98.23
-110.43
-131.52
-157.13
-181.31
-198.03
-203.16
-194.96
-174.67
-145.44
-109.05
-69.61
-29.88
9.05
46.96
83.59
118.30
149.98
178.08
203.61
228.36
255.03
286.06
322.25
362.46
402.26
434.14
449.85
444.00
415.80
369.94
314.39
257.46
206.39
164.83
132.70
107.68
87.07
68.20
48.85
27.19
-4.90
-47.52
-93.37
-133.18
-162.75
-183.63
-198.43
-206.34
-203.24
-185.60
-154.02
-113.94
-74.55
-44.47
-27.40
-21.69
-22.88
-27.60
-34.96
-44.26
-55.05
-62.63
-59.78
-40.21
-2.89
46.05
95.50
134.83
159.26
170.28
173.21
172.91
171.51
168.15
160.70
147.85
129.97
109.28
87.80
66.07
42.71
15.86
-14.97
-47.54
-76.97
-97.55
-104.66
-96.99
-77.12
-50.60
-23.33
0.44
19.26
33.49
43.01
46.67
42.78
30.63
11.91
-8.82
-25.94
-35.09
-35.42
-31.25
-28.39
-31.07
-40.28
-54.38
-70.13
-84.60
-95.16
-99.61
-99.11
-94.74
-87.29
-78.21
-70.28
-65.95
-67.08
-72.79
-80.66
-93.18
-112.57
-138.82
-169.79
-202.71
-234.42
-265.04
-296.44
-332.21
-381.63
-448.34
-525.34
-597.83
-650.40
-672.35
-664.03
-633.06
-556.76
-435.99
-293.67
-158.85
-48.14
29.69
88.49
135.15
171.41
198.38
212.78
215.58
215.70
223.68
245.77
283.13
330.74
383.18
435.29
477.09
500.27
504.20
493.38
474.85
456.83
444.94
442.87
450.61
461.30
449.38
401.19
320.45
225.91
138.34
68.03
15.33
-24.43
-57.51
-87.15
-110.31
-123.11
-124.46
-117.13
-106.72
-97.95
-93.34
-93.72
-98.15
-102.43
-102.92
-98.34
-90.12
-81.14
-73.67
-68.63
-65.91
-64.64
-62.38
-57.32
-49.20
-39.70
-31.36
-25.87
-22.60
-19.48
-13.57
-2.65
12.18
25.90
31.27
22.08
-3.53
-41.75
-84.26
-120.85
-142.43
-143.75
-124.20
-87.29
-39.38
11.84
58.19
91.96
107.20
101.58
77.73
43.23
8.15
-18.50
-31.86
-32.42
-24.35
-12.84
-1.33
9.73
22.08
37.53
56.00
75.96
95.13
111.55
123.38
128.60
124.99
110.82
85.66
51.21
11.39
-29.42
-64.89
-89.82
-102.19
-103.32
-96.25
-84.19
-69.51
-53.79
-38.57
-25.27
-15.65
-11.38
-13.37
-21.00
-31.64
-41.06
-43.33
-33.67
-10.29
23.89
62.10
95.76
117.15
121.32
107.40
78.07
37.97
-7.27
-52.20
-91.94
-123.20
-142.01
-147.60
-141.58
-126.83
-106.44
-82.79
-58.01
-34.07
-11.74
5.36
12.91
9.51
-2.88
-22.03
-46.50
-75.00
-104.17
-128.50
-139.05
-129.64
-98.98
-51.86
2.19
52.88
88.93
104.18
100.17
84.19
64.66
48.33
39.08
37.85
44.03
54.23
64.49
70.86
70.65
63.29
51.49
40.16
34.50
37.42
50.03
71.08
95.04
114.74
124.32
122.15
110.65
93.97
75.76
58.59
44.06
32.66
23.84
16.15
7.87
-2.72
-16.97
-35.68
-58.66
-84.41
-109.55
-129.36
-139.28
-136.89
-123.65
-104.84
-87.63
-77.54
-75.79
-78.81
-79.96
-72.83
-54.12
-24.91
10.87
46.87
77.42
99.24
111.71
116.02
113.84
106.56
95.14
80.65
64.79
50.25
39.95
35.83
37.78
43.52
49.45
51.70
47.63
36.62
20.52
2.79
-12.90
-24.12
-30.28
-32.60
-33.69
-36.52
-43.21
-53.88
-66.77
-79.02
-88.00
-91.96
-90.55
-85.35
-79.79
-78.35
-84.98
-101.51
-126.32
-153.87
-174.95
-179.03
-158.20
-110.55
-41.39
38.48
116.14
180.26
220.83
231.40
212.93
174.27
127.99
84.63
49.62
24.10
7.04
-3.14
-7.45
-6.55
-1.77
4.47
9.35
10.92
8.91
4.66
0.14
-2.60
-2.23
1.00
5.23
8.04
7.62
3.58
-3.22
-11.77
-21.03
-30.70
-41.45
-53.88
-67.27
-78.95
-85.21
-83.37
-73.47
-58.50
-42.77
-30.29
-23.12
-20.79
-21.08
-21.48
-20.52
-18.01
-14.54
-10.41
-6.07
-2.37
-0.34
-0.54
-2.48
-4.28
-3.20
3.26
16.95
37.27
61.03
83.75
101.21
110.46
110.67
103.04
86.69
64.75
43.05
26.44
15.93
8.86
1.78
-6.04
-11.41
-11.39
-4.51
7.50
20.38
29.97
34.40
35.11
34.03
34.69
39.40
47.25
53.76
50.33
30.12
-8.74
-63.26
-123.47
-175.65
-207.80
-213.21
-192.60
-153.20
-105.10
-55.17
-12.76
16.23
31.95
38.38
39.42
36.73
30.51
21.56
11.97
4.44
2.82
9.89
24.86
43.11
56.58
57.45
42.12
13.77
-18.37
-41.75
-46.97
-33.00
-7.28
18.81
36.46
43.64
44.63
44.12
44.80
44.09
35.39
12.92
-23.32
-66.38
-105.46
-131.27
-139.98
-132.84
-113.35
-83.65
-43.13
9.83
74.36
144.08
206.99
248.96
260.11
239.67
197.00
147.85
107.80
86.04
82.57
89.35
94.92
90.00
70.94
39.82
1.69
-38.56
-78.00
-114.15
-142.62
-159.10
-161.68
-151.82
-133.25
-110.74
-89.38
-73.64
-65.95
-67.08
-73.94
-81.47
-84.66
-79.72
-64.96
-41.19
-11.30
20.43
49.11
69.37
77.55
72.83
58.20
39.19
21.46
8.17
-1.29
-10.59
-24.04
-42.24
-62.95
-82.23
-96.27
-102.25
-97.85
-80.66
-49.16
-5.72
47.12
102.99
153.15
189.06
205.56
203.14
187.92
168.28
146.65
125.63
104.08
79.33
50.42
20.38
-3.48
-13.11
-5.78
12.16
28.32
29.03
6.90
-35.92
-89.91
-142.44
-183.30
-203.27
-199.11
-175.50
-143.98
-115.48
-95.34
-83.97
-80.49
-78.96
-74.74
-65.57
-50.53
-30.00
-4.78
26.36
57.68
81.73
95.10
98.96
96.40
89.90
80.45
68.73
56.10
44.23
35.16
31.15
32.88
39.10
47.85
57.01
64.57
68.15
64.86
51.48
27.58
-4.15
-38.64
-69.88
-92.99
-105.98
-109.82
-108.24
-106.58
-108.18
-114.28
-124.50
-137.13
-149.88
-160.19
-164.93
-155.53
-131.09
-96.17
-58.90
-27.67
-7.50
0.57
-1.07
-6.89
-9.96
-6.34
6.57
28.81
57.05
85.63
107.14
108.76
84.24
35.99
-26.12
-86.95
-131.88
-152.51
-147.82
-121.82
-82.10
-36.49
8.04
46.26
76.53
100.41
116.83
127.84
136.00
143.23
151.82
163.65
179.56
199.25
220.44
238.74
249.60
248.82
234.42
208.22
174.81
139.52
106.65
78.09
53.18
30.72
9.41
-11.18
-30.13
-46.10
-58.37
-67.08
-73.19
-77.73
-80.51
-80.46
-75.73
-64.39
-45.44
-21.44
2.36
19.89
27.75
27.57
23.53
18.90
13.75
5.14
-10.58
-34.59
-62.96
-90.29
-110.20
-118.43
-114.76
-102.70
-87.50
-73.40
-61.79
-51.32
-39.75
-25.58
-9.84
4.38
13.72
16.48
13.60
8.17
3.67
1.99
3.16
5.39
6.27
4.28
-0.33
-5.84
-10.26
-12.62
-13.34
-12.95
-11.47
-8.04
-1.37
9.37
23.40
37.87
48.37
49.16
37.31
14.64
-13.08
-39.52
-60.63
-74.79
-80.93
-77.32
-62.11
-34.77
1.02
36.67
61.15
65.95
49.60
19.14
-12.24
-32.50
-33.85
-15.81
14.90
47.48
71.87
82.48
79.29
66.67
50.70
36.92
28.07
23.65
20.82
16.49
8.73
-3.01
-18.45
-36.83
-55.78
-72.04
-82.73
-86.90
-85.36
-79.32
-69.56
-56.52
-41.10
-24.94
-10.50
-0.16
4.75
4.75
2.23
0.09
0.67
4.68
11.07
17.23
20.38
19.09
14.61
10.56
10.88
17.26
27.87
38.26
43.69
41.75
33.25
20.77
6.75
-8.08
-24.28
-41.55
-56.85
-64.71
-60.28
-42.88
-17.23
8.41
26.50
34.00
33.06
28.89
26.16
26.27
27.00
25.21
19.78
12.49
6.93
5.45
7.78
11.40
12.72
8.27
-3.19
-20.71
-40.94
-58.56
-68.88
-69.52
-62.15
-51.81
-44.41
-43.27
-47.53
-53.42
-56.98
-57.84
-58.38
-61.62
-68.35
-76.21
-80.86
-78.94
-70.33
-54.26
-36.23
-21.94
-13.48
-9.17
-6.39
-3.85
-2.09
-2.11
-2.84
-2.09
1.25
6.69
12.93
18.54
23.01
26.96
31.97
41.96
60.44
90.20
129.24
175.05
223.94
270.98
310.30
324.66
303.21
247.23
171.09
93.50
28.46
-18.88
-50.16
-69.73
-81.15
-83.89
-76.62
-59.80
-37.22
-14.60
2.81
11.55
10.82
2.24
-9.87
-21.76
-31.38
-38.86
-45.16
-51.10
-56.79
-61.67
-65.04
-63.57
-55.58
-41.19
-22.21
-1.10
19.97
39.59
57.16
72.38
85.32
95.40
101.70
103.34
99.89
91.90
80.60
67.27
52.53
36.30
17.79
-3.28
-25.90
-47.32
-62.90
-67.26
-56.12
-28.31
13.13
61.12
106.57
141.06
158.91
159.29
145.84
124.54
100.86
78.08
57.11
37.73
20.07
3.80
-10.07
-19.93
-25.01
-26.37
-26.16
-26.02
-26.16
-25.61
-26.20
-29.35
-35.57
-44.89
-58.13
-76.39
-99.85
-126.94
-154.60
-183.56
-212.31
-236.36
-250.66
-253.46
-247.61
-239.31
-236.07
-244.57
-274.25
-326.68
-393.22
-458.72
-508.95
-535.49
-536.73
-516.60
-445.82
-322.62
-173.79
-35.91
70.65
144.52
192.22
219.89
231.56
230.58
216.19
192.66
169.72
158.02
162.41
178.63
196.09
203.36
192.91
159.96
108.24
48.80
-3.42
-37.43
-49.61
-42.75
-20.33
12.27
46.70
76.32
97.80
113.84
129.90
151.65
183.92
229.59
288.61
355.88
422.30
460.88
448.99
381.93
277.99
166.96
72.92
6.92
-32.23
-53.37
-67.55
-81.00
-96.18
-112.88
-129.81
-145.55
-157.14
-159.67
-148.99
-124.47
-88.55
-46.04
-11.57
4.81
-2.00
-31.90
-75.89
-119.88
-150.38
-158.27
-142.20
-109.02
-69.53
-34.93
-11.77
-0.30
3.27
3.92
6.15
12.49
23.02
36.82
51.74
65.93
78.10
87.00
91.70
92.63
91.95
92.87
98.62
105.52
107.63
99.37
79.08
50.46
20.70
-2.54
-13.90
-12.16
-1.38
10.53
15.72
8.53
-12.94
-46.08
-84.56
-120.16
-145.44
-152.30
-139.08
-111.43
-78.96
-50.61
-31.50
-22.71
-22.22
-26.53
-31.59
-33.58
-28.90
-15.21
7.08
34.81
62.38
83.76
95.19
96.82
91.76
84.33
77.49
71.42
64.15
52.90
36.20
14.71
-9.59
-34.88
-59.91
-83.86
-105.92
-122.72
-130.91
-128.19
-114.21
-90.83
-61.80
-31.35
-3.17
20.69
40.17
56.10
69.45
80.65
89.38
94.81
96.32
93.71
88.05
81.60
76.70
74.84
76.08
79.33
82.74
84.32
81.93
74.39
62.07
46.48
29.53
12.93
-1.85
-13.80
-22.58
-29.42
-36.30
-45.00
-56.57
-70.83
-85.84
-97.69
-101.64
-89.16
-57.91
-15.02
27.20
59.15
77.43
83.25
79.82
71.31
60.45
49.14
39.55
34.05
33.90
37.75
41.54
40.99
31.85
12.20
-16.26
-48.14
-75.30
-90.32
-90.64
-80.51
-68.68
-63.66
-68.50
-78.77
-85.35
-77.69
-49.23
-1.46
55.82
108.29
142.60
150.81
131.95
89.62
32.65
-26.66
-75.90
-106.76
-117.47
-112.84
-101.94
-94.67
-100.66
-123.82
-161.16
-205.06
-247.23
-281.27
-303.32
-311.24
-288.91
-231.86
-150.50
-64.81
7.77
59.02
88.89
102.09
104.93
103.28
98.84
92.43
85.35
79.44
75.74
73.98
73.06
71.89
69.91
65.27
57.70
48.95
41.99
39.35
41.96
48.93
58.16
66.59
70.21
66.95
57.82
46.44
37.33
34.01
38.06
48.89
63.98
79.07
89.63
91.57
81.52
57.49
19.84
-27.33
-76.03
-115.91
-137.44
-135.13
-109.60
-67.21
-17.48
29.95
66.85
86.77
86.30
65.53
28.28
-17.95
-62.36
-92.63
-98.79
-77.04
-32.67
21.34
69.33
98.61
103.39
85.78
53.39
11.96
-30.53
-67.57
-97.59
-123.30
-146.60
-164.43
-168.19
-150.62
-108.76
-48.02
18.08
73.43
106.01
112.87
100.91
79.67
62.06
57.81
69.82
93.96
123.10
151.40
176.77
193.23
197.07
188.33
169.79
144.48
114.48
82.28
51.80
27.99
14.53
13.30
23.42
41.35
62.99
82.44
94.69
95.94
84.80
63.21
37.59
16.42
6.18
8.20
18.04
28.28
31.86
25.64
10.65
-8.02
-24.50
-35.68
-42.85
-50.29
-61.89
-78.67
-97.92
-114.89
-124.87
-126.25
-121.43
-115.43
-112.92
-115.51
-121.77
-129.18
-137.11
-147.97
-165.51
-191.40
-221.97
-248.26
-259.53
-248.67
-216.06
-169.65
-121.16
-80.78
-53.38
-37.89
-29.72
-24.18
-18.81
-13.77
-10.59
-10.73
-14.85
-22.78
-33.86
-46.77
-58.76
-65.52
-62.08
-45.50
-17.41
15.40
43.35
58.26
57.50
45.65
32.26
27.22
36.27
59.25
91.80
128.65
165.94
201.69
234.57
262.38
281.41
287.39
277.18
250.25
208.92
157.01
99.09
40.22
-13.82
-56.71
-83.02
-90.18
-79.69
-57.22
-31.59
-12.18
-7.83
-22.58
-52.59
-87.32
-115.21
-127.94
-120.21
-90.38
-40.92
22.65
89.50
146.20
181.31
189.74
175.46
149.73
125.31
110.50
105.94
105.44
99.68
81.29
48.04
3.23
-46.80
-96.56
-143.11
-185.60
-218.68
-235.75
-232.26
-208.90
-171.69
-129.13
-89.22
-57.35
-35.40
-22.10
-14.60
-9.73
-5.17
-0.02
5.42
9.81
11.89
11.31
9.12
6.82
5.75
6.52
8.60
10.80
11.65
10.31
7.06
3.40
0.84
0.42
2.29
5.41
8.35
9.57
7.82
2.40
-6.40
-16.86
-25.67
-28.35
-21.59
-4.26
20.95
48.16
70.59
83.39
85.62
79.16
69.13
59.50
51.64
44.58
36.77
27.85
19.19
13.22
11.72
15.12
22.29
31.44
40.24
46.28
47.02
40.12
25.02
2.99
-22.15
-45.33
-61.94
-69.64
-68.84
-61.41
-50.97
-40.00
-29.67
-20.56
-13.88
-11.10
-13.65
-21.56
-33.05
-45.01
-54.10
-58.20
-57.20
-52.87
-48.21
-46.33
-49.12
-56.28
-64.80
-69.46
-64.55
-46.55
-15.81
22.63
61.10
92.60
113.67
125.28
131.05
134.21
135.29
132.42
122.70
104.75
79.43
48.98
15.67
-18.88
-52.91
-82.46
-98.89
-95.37
-71.04
-33.16
4.89
29.72
34.20
20.33
-3.18
-25.07
-37.39
-38.38
-31.28
-20.98
-10.50
-0.70
7.49
12.98
15.28
15.21
15.03
17.82
25.69
37.95
49.94
52.47
36.69
-0.57
-55.17
-117.34
-175.68
-220.87
-247.73
-247.45
-219.19
-171.52
-117.31
-66.10
-21.21
17.72
52.16
83.51
108.82
124.14
126.48
115.82
95.70
72.24
52.86
42.43
48.86
73.55
105.87
127.98
125.67
98.04
58.47
26.72
18.38
36.54
69.21
96.66
103.49
85.82
51.81
16.21
-12.55
-32.18
-44.31
-51.68
-53.79
-45.69
-22.66
15.49
61.74
102.24
123.85
120.76
95.66
55.87
17.06
-8.27
-16.09
-10.45
-0.51
5.49
7.70
9.16
12.34
17.54
20.56
16.53
1.98
-25.28
-65.29
-114.69
-169.05
-224.00
-274.59
-317.13
-346.50
-341.25
-291.68
-207.07
-109.50
-21.36
39.90
73.74
79.42
57.51
11.71
-52.12
-122.64
-183.83
-220.97
-225.76
-197.67
-143.81
-74.03
0.62
67.13
114.73
140.47
149.22
150.87
156.30
172.26
200.62
237.72
275.03
294.04
282.83
243.77
191.43
141.02
99.14
65.63
37.80
13.24
-8.47
-24.69
-32.69
-32.40
-26.96
-20.98
-17.81
-18.61
-22.90
-29.13
-34.29
-35.93
-33.61
-29.04
-24.67
-22.01
-21.32
-22.03
-23.37
-24.17
-23.69
-22.08
-20.19
-18.73
-17.70
-16.60
-15.08
-13.26
-11.57
-10.40
-10.17
-10.89
-12.01
-12.46
-10.93
-6.15
2.92
16.50
33.25
49.78
61.14
62.54
51.65
30.14
3.20
-21.23
-37.06
-42.25
-39.05
-32.04
-25.35
-20.85
-17.96
-15.11
-11.30
-7.19
-4.41
-4.39
-7.34
-12.08
-16.67
-19.14
-18.58
-15.33
-10.98
-7.52
-6.51
-8.44
-12.55
-17.25
-20.72
-21.84
-20.41
-17.29
-13.83
-11.23
-10.24
-11.21
-14.49
-20.16
-27.39
-33.70
-35.10
-27.32
-8.08
21.02
54.41
84.17
103.33
108.71
101.98
88.26
73.42
61.30
52.17
44.67
36.36
25.89
14.12
3.34
-3.84
-6.01
-3.53
1.45
6.60
10.41
12.70
13.71
12.68
7.17
-5.27
-24.90
-48.15
-68.12
-77.92
-74.83
-62.19
-47.92
-39.84
-40.88
-46.84
-49.27
-40.93
-20.93
4.44
25.27
33.89
29.24
16.82
4.51
-2.44
-4.44
-6.35
-13.26
-26.19
-40.75
-49.25
-45.26
-27.22
0.73
31.38
57.52
75.22
84.07
85.86
82.49
74.89
63.16
47.05
28.82
11.29
-3.09
-13.39
-20.29
-25.34
-29.05
-29.71
-23.43
-7.14
18.10
46.01
66.84
72.11
58.70
30.79
-1.88
-28.72
-43.08
-44.80
-37.70
-28.31
-20.56
-14.47
-7.94
0.41
9.04
14.57
13.29
3.46
-13.49
-33.25
-50.63
-61.69
-65.09
-62.44
-57.50
-54.75
-57.67
-67.07
-79.88
-90.12
-90.37
-74.48
-40.14
9.88
67.85
123.04
164.64
184.80
179.80
151.38
106.12
53.89
5.80
-28.21
-41.69
-33.25
-6.69
29.16
64.20
89.86
100.00
91.22
64.10
22.57
-27.28
-78.58
-126.34
-166.33
-195.77
-213.68
-220.99
-220.10
-214.23
-206.41
-191.31
-167.65
-137.87
-107.17
-80.15
-58.89
-43.27
-32.03
-23.55
-16.11
-9.73
-4.55
-1.53
-2.08
-6.91
-15.56
-25.82
-34.01
-35.92
-30.05
-16.95
0.16
16.96
29.72
36.56
38.06
36.67
36.41
37.06
39.32
43.36
49.77
60.43
78.15
105.24
141.42
183.58
224.09
253.25
262.12
246.60
208.79
155.25
93.60
29.94
-29.64
-80.03
-115.96
-132.57
-126.39
-97.79
-52.93
-2.82
40.94
73.88
98.33
120.98
148.41
184.04
226.70
271.63
312.75
329.07
309.05
256.98
190.09
124.94
69.38
24.06
-12.24
-39.67
-56.93
-60.47
-50.25
-32.01
-16.36
-13.12
-27.85
-58.90
-98.58
-136.38
-161.37
-168.34
-159.16
-141.24
-123.15
-111.07
-107.54
-112.48
-124.71
-138.52
-149.50
-154.44
-152.06
-143.08
-129.98
-116.17
-105.06
-98.83
-97.13
-98.65
-101.79
-105.53
-109.22
-112.09
-112.91
-110.28
-103.42
-92.51
-79.39
-66.57
-56.40
-49.74
-45.59
-41.55
-34.98
-24.22
-9.31
7.88
24.65
38.47
47.96
53.26
55.91
58.09
61.64
67.25
74.00
79.72
81.81
78.35
69.16
55.97
41.87
30.03
22.46
19.19
18.34
17.03
12.73
4.33
-7.40
-19.84
-29.32
-32.31
-26.51
-11.52
11.17
38.95
69.34
100.72
132.47
163.94
192.78
214.26
222.43
213.01
186.62
150.03
113.10
84.86
69.76
66.58
70.75
77.76
85.67
94.73
105.14
113.91
115.69
105.51
82.03
48.88
12.80
-19.59
-46.81
-67.98
-85.01
-100.86
-116.63
-130.87
-138.65
-134.42
-115.15
-82.61
-41.86
-3.45
21.67
26.61
10.81
-20.42
-59.00
-97.18
-129.74
-154.02
-170.04
-178.84
-181.93
-181.10
-177.76
-172.28
-163.17
-147.57
-122.45
-87.19
-44.29
0.68
40.57
68.73
80.80
76.16
58.02
32.91
8.60
-8.27
-14.99
-13.95
-11.41
-14.48
-26.67
-45.93
-64.65
-72.70
-61.52
-28.40
21.69
77.75
126.16
155.87
161.03
142.66
108.14
68.57
34.42
11.89
2.21
2.64
9.94
19.34
26.02
27.80
27.63
30.46
36.90
44.25
42.90
25.47
-9.37
-55.63
-101.57
-133.82
-139.99
-114.85
-62.37
5.60
74.21
129.92
163.76
166.50
136.55
84.73
30.48
-7.60
-20.79
-11.41
11.10
35.17
54.73
67.58
74.04
74.69
70.55
63.27
55.16
49.35
44.89
42.09
40.80
41.48
44.28
49.33
57.41
63.86
63.50
52.51
30.09
-2.42
-42.49
-88.87
-137.68
-182.93
-217.86
-235.27
-230.25
-201.81
-154.22
-91.94
-27.63
25.16
58.54
72.04
70.93
61.87
50.57
41.50
38.25
42.42
53.89
69.18
81.41
82.81
68.11
37.48
-3.38
-45.34
-79.90
-101.33
-104.93
-93.29
-73.12
-51.11
-30.99
-13.59
1.57
14.24
23.65
28.92
29.24
25.23
18.94
12.56
7.89
5.40
3.94
1.80
-2.55
-10.29
-21.45
-34.91
-48.82
-61.29
-70.27
-74.22
-72.39
-65.49
-55.83
-46.35
-39.74
-35.83
-34.60
-34.97
-35.26
-33.99
-30.81
-26.43
-21.85
-17.65
-13.72
-9.35
-3.17
5.96
18.31
32.43
45.59
54.92
58.33
55.52
48.16
39.32
33.75
36.27
48.63
68.76
93.28
119.23
144.29
166.52
184.61
194.43
193.42
180.72
158.04
129.80
102.14
81.27
71.67
74.98
89.41
110.71
132.72
148.94
153.64
142.71
114.31
69.84
14.47
-43.55
-94.39
-129.44
-143.26
-134.60
-106.71
-66.80
-24.58
9.88
29.05
30.74
18.76
1.13
-14.01
-22.68
-26.93
-32.91
-46.47
-69.10
-96.56
-121.63
-138.37
-145.46
-146.25
-146.44
-150.50
-159.50
-171.17
-181.69
-188.10
-189.58
-187.35
-183.23
-178.68
-174.28
-170.15
-166.63
-164.71
-165.69
-170.00
-176.87
-184.08
-189.05
-190.07
-186.45
-177.83
-163.87
-144.22
-118.78
-88.59
-55.03
-19.75
15.21
47.43
74.08
91.86
97.93
94.78
86.05
78.07
77.14
85.11
98.40
111.22
119.03
120.33
116.16
107.92
97.34
86.70
78.71
76.13
81.82
96.85
119.33
144.55
167.02
183.53
194.38
201.30
205.26
205.18
198.05
180.77
152.43
112.33
62.97
14.84
-20.02
-35.00
-31.82
-18.41
-3.44
7.15
11.24
8.19
-1.41
-17.87
-41.27
-70.01
-99.95
-125.22
-141.04
-137.11
-111.96
-72.76
-31.46
1.64
22.34
32.48
36.81
38.40
37.42
30.71
15.45
-7.95
-35.90
-62.80
-83.56
-91.47
-85.14
-68.39
-48.59
-32.53
-21.96
-15.29
-9.95
-5.15
-2.60
-5.41
-15.96
-35.46
-64.35
-99.64
-137.37
-172.97
-202.19
-221.07
-226.90
-218.97
-193.14
-151.74
-97.88
-35.95
30.13
96.15
157.43
209.30
247.83
271.23
265.36
223.84
151.84
66.49
-13.94
-73.38
-109.54
-121.75
-108.90
-74.60
-25.06
28.32
75.64
109.33
118.18
115.26
107.23
103.36
109.48
129.93
163.97
210.18
262.26
309.53
324.60
287.64
201.42
90.32
-2.49
-63.90
-90.06
-83.69
-52.71
-6.72
44.33
92.85
125.11
131.94
111.70
75.27
34.98
-1.10
-28.49
-44.17
-46.72
-39.30
-28.77
-25.95
-35.93
-60.14
-95.08
-132.75
-163.57
-180.35
-181.53
-164.76
-137.17
-105.79
-75.59
-49.05
-26.56
-8.06
6.09
15.00
18.81
17.63
13.93
10.12
6.95
3.91
-0.52
-8.16
-20.54
-38.23
-61.86
-90.41
-118.70
-142.64
-156.96
-156.61
-139.09
-106.42
-65.14
-24.61
7.24
26.71
34.63
35.60
34.75
35.17
37.14
39.26
39.95
39.10
37.95
37.52
38.52
40.53
42.44
43.19
42.92
42.87
44.68
49.01
53.82
55.24
49.01
32.50
6.68
-23.69
-52.06
-72.86
-83.97
-87.15
-85.72
-82.61
-79.27
-75.71
-71.55
-67.03
-62.79
-58.85
-53.85
-44.44
-28.19
-6.32
15.84
31.16
34.39
24.73
6.09
-15.33
-32.71
-42.58
-45.95
-46.42
-47.20
-48.97
-50.00
-47.76
-40.26
-24.44
2.58
42.22
93.60
152.95
213.50
266.30
302.50
305.85
271.42
211.04
147.13
97.77
66.95
46.99
27.51
2.98
-24.80
-47.79
-59.02
-58.06
-51.13
-46.49
-49.12
-58.36
-69.44
-76.68
-75.76
-66.38
-52.72
-40.90
-35.61
-37.97
-45.69
-55.12
-62.79
-65.36
-60.14
-45.90
-23.19
5.33
34.96
59.72
74.18
76.78
69.17
56.74
45.63
40.03
40.63
45.22
50.94
56.17
61.24
66.90
72.52
74.62
68.31
50.23
21.44
-11.95
-41.26
-59.02
-62.71
-55.40
-44.03
-35.86
-35.33
-42.62
-54.37
-65.57
-71.48
-69.17
-58.10
-40.27
-19.59
-1.18
9.92
10.07
-2.15
-24.83
-52.91
-79.23
-96.71
-100.73
-90.15
-67.34
-36.81
-3.33
29.44
59.26
84.88
103.29
111.67
110.68
104.34
97.87
94.98
95.95
97.19
92.38
75.72
44.29
0.69
-47.22
-89.11
-116.10
-124.45
-116.78
-103.12
-88.64
-76.03
-64.26
-50.06
-30.65
-6.15
20.02
42.80
57.90
63.89
61.80
54.59
45.11
34.74
23.41
10.61
-3.58
-15.45
-21.39
-19.53
-10.05
4.92
22.10
38.11
50.30
57.06
57.91
53.33
44.86
35.17
27.29
23.34
23.62
26.50
29.37
30.19
28.39
24.78
20.64
16.50
11.35
2.96
-11.06
-32.09
-59.42
-90.65
-122.29
-150.43
-171.40
-182.65
-183.54
-175.82
-163.21
-149.44
-137.31
-127.74
-119.64
-110.53
-97.89
-80.85
-61.01
-42.24
-28.25
-22.07
-25.84
-40.47
-64.91
-95.42
-125.64
-147.58
-154.11
-139.51
-102.35
-46.49
20.04
87.90
149.27
199.18
235.47
250.35
239.09
204.90
158.51
112.22
75.29
52.66
45.26
50.71
61.43
70.12
70.79
59.77
36.45
3.55
-33.82
-69.41
-93.06
-96.93
-78.43
-41.49
6.25
56.92
104.76
146.38
179.78
202.73
211.27
202.08
174.06
130.15
77.24
24.49
-19.47
-49.51
-65.67
-73.40
-78.90
-86.38
-95.94
-105.09
-110.89
-112.10
-109.96
-107.90
-109.28
-113.93
-117.34
-112.33
-93.93
-63.04
-26.74
5.76
26.01
29.03
14.71
-15.59
-55.79
-97.79
-132.47
-150.46
-141.69
-101.92
-37.06
37.42
101.93
140.05
142.79
110.38
50.64
-20.84
-88.98
-142.95
-176.02
-183.70
-163.35
-116.49
-49.54
27.92
110.83
194.64
274.26
344.72
403.27
449.72
484.68
508.68
492.62
425.77
323.54
215.32
121.83
48.94
-5.32
-44.13
-69.76
-83.96
-85.43
-77.89
-70.96
-75.70
-97.68
-133.55
-173.31
-205.57
-222.02
-216.28
-188.72
-145.98
-98.19
-55.29
-25.87
-14.96
-24.92
-52.97
-88.35
-117.54
-129.27
-119.14
-90.32
-51.86
-15.51
8.97
17.32
12.18
-0.02
-11.37
-16.03
-11.31
1.90
18.76
33.41
41.76
42.69
34.76
20.28
4.21
-9.31
-22.78
-43.04
-75.94
-120.97
-173.33
-225.28
-266.59
-289.63
-291.68
-265.93
-217.40
-161.04
-112.59
-78.82
-57.67
-37.41
-10.65
24.29
65.48
107.51
148.23
189.78
236.84
282.62
318.36
336.90
337.52
324.55
302.47
275.51
246.61
216.80
184.16
147.28
106.29
64.77
28.37
0.99
-15.58
-25.83
-34.57
-45.69
-58.24
-67.68
-68.02
-55.77
-33.07
-6.28
16.10
29.33
33.26
31.32
25.84
15.85
-1.49
-27.24
-57.24
-83.24
-96.45
-94.59
-83.46
-74.36
-77.38
-95.54
-123.27
-149.48
-165.49
-165.06
-148.85
-122.29
-92.55
-65.46
-44.67
-32.17
-28.23
-31.15
-35.86
-35.58
-25.10
-4.30
21.09
41.31
47.20
35.15
9.18
-20.41
-41.40
-44.34
-29.65
-6.49
14.16
26.13
30.35
32.11
36.21
43.00
48.44
47.17
36.69
19.63
2.18
-9.02
-10.31
-2.39
10.06
20.83
25.05
21.40
12.78
4.43
1.66
6.93
19.64
36.70
54.19
68.62
77.32
78.56
71.35
55.86
33.94
9.29
-13.69
-31.58
-43.29
-50.56
-55.24
-59.20
-62.32
-62.61
-58.23
-49.53
-39.75
-33.42
-34.72
-44.40
-59.10
-72.84
-79.27
-74.04
-56.41
-29.57
1.06
28.49
48.28
59.79
65.37
69.22
75.32
85.98
99.11
115.22
129.90
135.37
128.38
109.42
83.07
56.32
35.74
24.51
22.85
26.33
31.63
37.99
46.06
56.38
66.80
72.60
66.84
48.20
19.71
-11.32
-36.94
-53.07
-60.66
-65.29
-73.40
-88.98
-111.47
-137.31
-160.50
-174.54
-176.69
-164.70
-140.67
-110.36
-81.03
-58.03
-43.18
-33.83
-24.92
-12.29
4.62
22.09
34.88
39.65
37.17
31.45
27.45
28.42
34.75
43.96
52.11
56.09
54.89
49.64
42.40
33.71
22.69
9.69
-3.84
-15.86
-24.85
-30.96
-35.97
-42.14
-50.42
-58.74
-61.48
-53.73
-32.86
-0.55
37.41
73.42
101.01
117.18
118.36
107.75
91.36
74.06
57.39
40.64
23.43
7.09
-5.98
-13.86
-15.52
-12.06
-5.51
1.92
7.89
10.39
7.54
-1.99
-17.99
-37.49
-56.25
-69.65
-74.63
-71.98
-65.40
-58.92
-54.48
-51.16
-46.21
-38.14
-27.92
-18.73
-14.15
-15.92
-23.16
-32.98
-41.79
-46.44
-45.17
-37.24
-22.73
-2.83
20.61
45.23
68.46
88.20
104.72
117.95
128.43
136.19
139.32
134.71
119.36
92.30
55.99
16.28
-19.80
-46.53
-60.43
-63.73
-62.00
-60.70
-62.07
-64.05
-61.73
-50.75
-29.76
-1.49
27.93
51.85
65.51
67.21
58.32
42.05
22.42
1.86
-17.45
-34.30
-48.06
-58.73
-66.49
-71.27
-72.43
-68.86
-59.65
-44.74
-25.86
-5.70
13.09
28.73
40.70
48.78
52.80
52.69
49.27
44.39
40.44
39.36
41.60
45.68
48.81
48.16
41.64
28.59
9.92
-11.62
-31.79
-45.64
-49.37
-42.09
-26.64
-8.92
4.61
9.43
5.59
-3.70
-12.66
-15.60
-8.93
8.53
36.68
75.04
122.83
177.68
234.16
284.04
317.92
328.36
312.43
272.80
216.56
152.44
88.25
29.33
-21.27
-62.09
-92.29
-111.54
-120.25
-120.32
-115.43
-110.20
-109.00
-114.54
-127.25
-145.22
-164.96
-182.36
-193.74
-197.00
-191.55
-178.22
-159.00
-136.78
-114.85
-96.24
-82.50
-73.08
-65.88
-57.11
-42.70
-20.45
8.21
38.31
62.75
75.54
73.99
57.96
31.26
0.41
-27.60
-47.67
-57.30
-57.47
-51.12
-42.60
-39.47
-47.69
-68.92
-99.96
-134.57
-165.44
-187.99
-200.21
-203.09
-203.09
-205.83
-213.17
-223.12
-232.51
-238.44
-240.95
-240.36
-216.93
-162.88
-86.67
-7.08
61.36
110.54
149.30
183.83
217.32
250.65
277.60
291.43
288.45
270.11
242.43
214.88
194.44
185.58
188.89
198.57
207.71
211.74
209.66
202.43
191.56
175.33
153.02
127.39
103.00
85.29
77.48
78.55
83.09
84.11
73.15
45.84
3.21
-50.79
-111.41
-174.82
-237.83
-297.66
-337.41
-345.98
-326.21
-292.84
-259.32
-228.71
-195.83
-154.52
-103.75
-49.24
-2.89
25.17
32.87
27.13
18.90
16.99
25.10
42.18
65.04
88.14
107.11
118.65
120.39
110.52
88.45
56.74
21.50
-8.52
-26.06
-29.28
-21.30
-7.70
5.75
14.57
16.32
10.75
-0.07
-12.59
-22.14
-23.65
-13.65
7.52
35.24
62.21
80.34
85.20
77.59
61.91
43.60
26.69
12.80
1.76
-7.05
-13.72
-17.62
-18.36
-16.65
-14.06
-12.43
-13.14
-16.43
-21.44
-26.53
-29.91
-30.46
-28.34
-24.74
-21.35
-19.55
-19.74
-21.15
-22.01
-20.10
-13.62
-1.98
14.12
32.94
52.25
69.78
83.42
91.69
94.17
91.74
86.53
81.29
78.34
78.49
80.45
81.30
78.06
69.40
56.44
42.30
30.36
22.25
16.90
10.62
-1.38
-22.85
-54.58
-93.60
-133.40
-165.48
-181.61
-176.02
-147.70
-101.47
-47.09
3.22
38.34
51.59
42.51
15.07
-21.69
-56.91
-81.39
-89.98
-82.17
-61.01
-31.60
0.47
29.93
52.53
64.88
64.77
52.00
28.54
-1.81
-34.43
-65.00
-90.19
-107.67
-116.28
-116.22
-109.63
-101.11
-97.08
-103.88
-124.71
-157.14
-192.66
-219.29
-225.86
-205.76
-158.93
-91.51
-13.35
64.54
131.89
180.24
203.93
201.08
174.71
132.63
85.82
45.79
21.85
19.52
40.20
81.39
137.06
198.30
254.45
295.38
314.27
309.65
285.59
249.62
209.66
171.16
135.91
102.67
68.87
32.58
-6.46
-46.20
-82.18
-108.39
-118.84
-109.79
-82.13
-42.39
-1.50
28.55
39.15
28.33
1.27
-32.02
-60.96
-78.41
-82.58
-76.44
-65.20
-53.39
-43.37
-35.52
-29.80
-27.35
-30.79
-42.99
-65.23
-95.80
-129.85
-160.85
-182.77
-192.08
-188.71
-175.84
-158.66
-142.56
-131.25
-125.29
-121.80
-115.37
-100.16
-72.42
-32.43
15.10
62.42
101.31
125.75
133.56
126.46
108.97
86.70
64.86
47.39
36.59
33.33
37.30
47.40
61.96
78.95
96.01
110.58
120.30
123.69
120.71
113.14
104.12
97.06
94.18
95.58
99.24
101.93
100.54
93.24
80.00
62.57
43.83
27.00
14.79
8.55
7.90
10.62
13.26
12.22
4.91
-9.32
-28.84
-50.08
-68.52
-80.01
-82.01
-74.43
-59.67
-41.80
-25.19
-13.11
-7.01
-6.60
-10.57
-17.39
-25.74
-34.42
-42.11
-47.29
-48.69
-46.06
-40.66
-35.22
-33.18
-37.49
-49.33
-67.25
-87.23
-103.59
-110.85
-105.76
-88.81
-64.31
-38.88
-18.70
-6.93
-2.47
-0.96
2.41
9.89
19.73
27.27
28.10
21.24
10.41
2.57
4.29
18.24
41.63
67.68
89.06
101.49
105.35
104.74
104.75
108.54
115.77
123.19
126.57
122.82
111.17
93.08
71.28
48.69
27.85
10.84
-0.70
-6.03
-6.17
-4.46
-6.08
-16.29
-37.88
-69.23
-104.10
-133.76
-150.29
-149.72
-133.26
-106.14
-74.94
-44.82
-18.12
5.25
26.10
44.36
58.51
66.29
66.26
58.99
47.21
34.83
25.30
20.14
18.30
16.50
10.20
-5.09
-32.26
-71.41
-119.13
-168.69
-211.23
-237.91
-242.31
-222.33
-180.74
-124.30
-61.90
-2.42
46.76
80.37
95.13
89.59
64.59
24.12
-24.14
-69.50
-100.66
-109.14
-92.22
-53.75
-2.25
52.64
103.64
147.38
183.66
213.19
235.65
248.83
249.46
234.77
204.12
159.77
106.95
53.12
6.57
-25.66
-39.67
-36.08
-19.93
0.78
17.63
24.45
19.00
3.28
-17.70
-38.00
-52.99
-60.72
-61.92
-58.77
-53.25
-45.99
-36.36
-23.77
-9.11
4.64
13.39
13.87
5.51
-9.02
-24.78
-36.74
-41.89
-40.23
-34.60
-29.41
-29.03
-36.37
-52.00
-73.79
-97.42
-117.46
-128.90
-128.80
-117.35
-97.92
-76.01
-57.28
-45.26
-39.96
-37.81
-33.58
-23.27
-6.68
11.98
25.94
29.53
21.55
6.42
-7.72
-12.93
-5.28
13.75
38.90
64.58
87.93
109.72
132.66
158.59
186.29
211.18
227.03
228.36
212.58
181.18
139.54
95.61
57.80
32.58
22.23
23.66
28.96
27.90
11.80
-22.83
-72.45
-127.52
-175.94
-207.35
-216.51
-204.16
-175.65
-138.28
-98.79
-62.07
-31.23
-8.28
5.23
8.34
1.30
-13.87
-33.43
-52.78
-67.69
-75.52
-75.91
-70.95
-64.66
-61.94
-67.02
-81.74
-104.26
-128.89
-147.60
-152.97
-141.31
-114.59
-79.70
-45.33
-17.90
1.14
15.16
29.49
47.68
69.16
89.75
104.57
111.50
112.84
114.39
122.32
139.78
165.03
192.04
213.16
222.20
216.80
199.00
174.12
148.60
127.65
113.65
105.60
99.83
91.55
76.85
54.40
25.99
-3.96
-30.11
-47.78
-54.32
-49.60
-36.12
-18.80
-4.21
0.95
-7.92
-31.03
-63.19
-94.98
-116.12
-119.63
-104.55
-75.96
-42.37
-11.98
9.94
21.49
22.88
14.89
-1.60
-25.00
-52.00
-77.53
-96.11
-104.15
-102.05
-94.67
-90.01
-96.20
-117.95
-154.11
-197.22
-235.48
-256.43
-251.24
-217.92
-162.21
-95.73
-32.07
17.76
48.53
61.65
63.27
60.95
60.34
63.56
69.57
76.20
82.25
88.54
97.31
110.41
127.55
145.61
159.89
166.30
163.50
153.80
142.23
134.22
132.90
137.49
143.24
143.13
130.60
102.38
60.38
11.78
-33.04
-64.10
-75.60
-68.29
-49.31
-29.58
-19.74
-26.42
-50.04
-85.25
-123.21
-154.79
-173.35
-176.17
-164.44
-141.89
-113.04
-81.66
-50.11
-19.62
8.63
32.63
49.52
56.49
52.30
38.43
19.21
0.60
-11.84
-15.02
-9.62
-0.16
6.42
3.18
-13.91
-43.96
-80.46
-113.01
-130.81
-126.47
-98.74
-52.97
0.95
52.22
92.78
119.33
133.09
137.80
137.43
134.71
131.19
128.18
127.51
131.43
141.39
156.59
173.37
185.99
188.85
178.80
156.20
124.26
87.07
47.70
7.48
-33.10
-72.85
-109.31
-139.19
-159.84
-170.50
-172.15
-166.18
-152.75
-130.73
-99.38
-60.75
-21.31
8.92
19.63
4.60
-35.03
-90.31
-147.27
-191.69
-213.65
-210.06
-184.46
-144.57
-98.94
-54.16
-13.59
22.29
54.30
83.07
108.04
127.54
139.60
143.17
139.08
130.07
120.12
112.73
109.11
107.16
101.75
86.26
55.09
5.92
-58.70
-131.25
-200.89
-255.93
-286.70
-287.75
-259.25
-207.12
-141.90
-76.43
-22.57
11.93
25.87
24.56
17.47
13.66
18.02
29.34
41.93
49.37
48.36
40.90
32.84
30.13
34.86
44.32
52.76
55.27
50.65
41.62
33.15
29.11
30.38
34.41
37.35
36.41
31.16
24.08
16.72
8.46
-3.64
-19.53
-35.94
-45.95
-42.74
-23.62
7.33
39.87
62.45
67.89
57.19
38.26
21.58
14.67
18.95
30.44
43.19
53.36
60.73
67.36
74.31
79.75
79.39
68.68
45.56
11.65
-28.49
-69.56
-107.80
-141.84
-171.96
-198.07
-218.08
-227.55
-221.06
-194.68
-148.41
-87.39
-21.12
39.25
84.52
110.28
117.89
112.96
102.49
91.80
83.02
75.57
68.15
60.79
55.46
54.98
61.06
72.60
85.92
96.33
100.53
98.07
91.38
84.34
80.10
79.50
80.59
79.62
72.73
57.75
35.47
9.66
-13.91
-29.48
-33.26
-24.85
-7.63
11.98
26.20
28.13
13.91
-15.78
-55.42
-95.98
-127.54
-142.54
-138.19
-117.20
-86.29
-53.25
-24.08
-1.46
14.89
26.37
33.74
36.38
33.04
23.15
7.94
-9.62
-25.87
-38.03
-45.32
-49.12
-52.26
-58.05
-69.26
-87.38
-111.96
-140.24
-167.16
-186.12
-190.61
-176.30
-142.69
-93.58
-36.06
21.40
70.94
106.44
123.87
121.35
99.47
62.03
16.62
-26.19
-55.03
-61.13
-41.36
0.54
55.15
110.57
156.28
186.10
199.11
198.82
191.01
181.29
173.26
167.50
161.48
150.40
128.90
93.39
44.40
-12.27
-66.57
-107.32
-126.44
-122.40
-101.21
-74.21
-53.73
-48.43
-60.37
-84.93
-113.25
-135.87
-145.97
-140.93
-122.18
-93.77
-60.57
-26.90
4.00
29.93
49.16
60.33
62.78
57.30
46.45
34.22
24.92
21.73
25.64
35.27
47.44
58.03
62.81
58.15
41.87
14.42
-20.24
-54.68
-79.79
-88.02
-76.65
-49.41
-15.21
15.63
35.66
42.93
40.60
34.13
27.92
23.46
19.74
15.28
10.02
5.89
5.57
10.68
20.40
31.60
40.21
43.16
39.70
31.46
21.44
12.34
5.44
0.25
-4.69
-10.52
-17.02
-22.13
-22.71
-15.92
-0.88
20.33
42.56
58.83
62.44
49.44
20.57
-18.22
-57.12
-85.53
-95.65
-85.27
-58.34
-23.28
10.37
35.41
48.91
52.23
49.27
44.15
39.52
36.05
33.05
29.47
24.70
18.77
12.05
4.78
-3.17
-12.22
-22.55
-33.71
-44.45
-53.01
-57.83
-58.37
-55.44
-51.07
-47.70
-47.11
-49.64
-53.99
-57.83
-58.98
-56.55
-51.52
-46.53
-44.85
-49.16
-60.42
-77.46
-96.99
-114.17
-123.45
-120.03
-101.48
-69.25
-29.00
10.84
42.04
59.89
65.02
62.70
59.89
61.52
68.41
77.53
84.39
85.81
81.48
73.55
64.91
57.54
51.82
47.10
42.72
38.72
35.78
34.60
35.22
36.67
37.21
34.93
28.50
17.81
4.14
-10.10
-22.19
-29.85
-31.99
-28.88
-21.88
-12.98
-4.29
2.36
5.74
5.46
2.13
-2.61
-6.48
-7.19
-3.10
6.23
19.87
35.72
50.87
62.35
67.88
66.67
59.91
50.50
42.21
38.29
40.23
47.23
56.64
65.11
69.75
68.93
62.30
50.48
34.70
16.64
-1.57
-17.48
-28.69
-33.55
-31.76
-24.67
-15.03
-6.22
-1.27
-1.97
-8.57
-19.94
-34.18
-49.31
-63.76
-76.54
-87.00
-94.72
-99.37
-100.85
-99.55
-96.41
-92.71
-89.56
-87.40
-85.66
-82.97
-77.76
-68.89
-56.30
-41.01
-24.78
-9.51
3.38
13.22
19.99
24.15
26.21
26.66
25.85
24.07
21.67
19.14
17.14
16.39
17.37
20.06
23.80
27.46
29.84
30.19
28.53
25.58
22.35
19.60
17.54
15.79
13.78
11.12
7.86
4.43
1.33
-1.07
-2.69
-3.58
-3.85
-3.53
-2.66
-1.34
0.22
1.79
3.22
4.46
5.58
6.64
7.56
8.22
8.49
8.42
8.20
8.11
8.27
8.62
8.89
8.76
8.06
6.84
5.34
3.87
2.66
1.72
0.94
0.08
-1.04
-2.43
-3.93
-5.26
-6.18
-6.57
-6.51
-6.24
-6.03
-6.06
-6.37
-6.79
-7.06
-6.96
-6.36
-5.27
-3.86
-2.31
-0.79
0.74
2.48
4.68
7.49
10.83
14.40
17.69
20.20
21.52
21.58
20.63
19.21
17.87
17.04
16.95
17.44
18.03
18.11
17.26
15.62
13.91
13.01
13.66
16.08
19.64
22.98
24.17
21.32
13.05
-1.20
-21.10
-45.48
-71.16
-93.55
-107.84
-111.19
-104.10
-89.78
-72.04
-53.69
-36.08
-19.64
-4.90
7.07
14.95
17.95
16.61
12.81
9.05
7.31
8.54
12.17
16.48
19.44
19.63
16.67
11.18
4.47
-1.59
-4.48
-1.68
8.36
25.02
45.04
63.24
74.31
75.60
67.18
52.29
35.78
21.92
12.73
7.64
4.52
1.21
-3.26
-8.35
-12.49
-14.31
-13.54
-11.21
-9.21
-9.01
-11.02
-14.37
-17.52
-19.09
-18.92
-18.14
-18.54
-21.69
-28.03
-36.47
-45.49
-53.70
-60.19
-64.96
-68.59
-71.67
-75.46
-79.96
-85.35
-92.29
-101.92
-115.40
-133.18
-153.97
-174.10
-188.36
-191.63
-181.13
-157.41
-124.08
-86.13
-47.87
-13.75
14.21
36.60
55.69
74.01
93.78
116.65
143.82
175.67
211.10
247.33
279.82
303.32
313.72
310.10
295.39
275.28
255.79
240.73
230.66
223.14
214.33
201.06
182.29
158.98
133.13
106.55
80.28
54.74
29.99
5.84
-17.79
-40.70
-62.52
-82.91
-101.70
-119.03
-135.05
-149.76
-162.96
-173.79
-180.78
-182.51
-178.44
-169.40
-157.36
-144.61
-132.88
-123.20
-115.51
-109.04
-102.92
-96.70
-90.30
-83.55
-75.77
-63.67
-45.70
-23.13
0.15
19.87
33.29
39.79
40.46
37.38
32.75
27.91
23.55
19.99
17.36
15.64
14.61
13.93
13.38
12.87
12.26
11.57
10.95
10.55
10.30
9.92
9.10
7.77
6.17
4.58
3.48
3.54
5.63
10.35
17.53
25.90
33.02
36.01
32.78
23.21
9.51
-4.60
-15.46
-21.06
-21.62
-19.06
-15.69
-13.01
-11.27
-9.84
-8.07
-5.88
-3.81
-2.52
-2.30
-2.81
-3.34
-3.20
-2.17
-0.54
0.97
1.72
1.35
-0.02
-1.87
-3.53
-4.48
-4.57
-3.93
-2.99
-2.12
-1.51
-1.19
-1.05
-0.95
-0.78
-0.51
-0.14
0.22
0.43
0.30
-0.34
-1.49
-2.98
-4.42
-5.38
-5.62
-5.21
-4.53
-4.07
-4.19
-4.96
-6.19
-7.50
-8.52
-8.96
-8.66
-7.54
-5.58
-2.87
0.33
3.65
6.65
8.94
10.31
10.74
10.42
9.67
8.83
8.24
8.07
8.32
8.79
9.17
9.18
8.63
7.54
6.08
4.46
2.87
1.42
0.15
-0.94
-1.79
-2.37
-2.70
-2.85
-2.94
-3.11
-3.44
-3.97
-4.68
-5.52
-6.48
-7.48
-8.46
-9.31
-9.91
-10.14
-9.89
-9.15
-7.93
-6.36
-4.59
-2.78
-1.04
0.58
2.13
3.65
5.14
6.47
7.46
7.97
7.92
7.39
6.56
5.59
4.62
3.70
2.84
2.03
1.31
0.66
0.05
-0.56
-1.24
-2.02
-2.83
-3.57
-4.15
-4.47
-4.59
-4.59
-4.61
-4.80
-5.23
-5.93
-6.84
-7.91
-9.07
-10.27
-11.43
-12.42
-13.07
-13.17
-12.54
-11.12
-9.02
-6.44
-3.66
-0.89
1.77
4.23
6.44
8.26
9.48
9.94
9.65
8.79
7.69
6.72
6.12
5.92
5.97
6.03
5.93
5.56
4.99
4.32
3.67
3.07
2.46
1.72
0.77
-0.37
-1.57
-2.69
-3.61
-4.31
-4.91
-5.59
-6.56
-7.92
-9.66
-11.64
-13.60
-15.24
-16.26
-16.47
-15.78
-14.27
-12.11
-9.55
-6.82
-4.09
-1.50
0.87
2.86
4.39
5.42
6.03
6.43
6.89
7.59
8.54
9.55
10.32
10.63
10.42
9.84
9.18
8.71
8.52
8.50
8.41
8.02
7.22
6.10
4.87
3.76
2.94
2.40
1.95
1.37
0.48
-0.74
-2.17
-3.63
-5.03
-6.38
-7.78
-9.30
-10.87
-12.25
-13.11
-13.17
-12.29
-10.54
-8.15
-5.40
-2.49
0.43
3.26
5.89
8.21
10.08
11.42
12.25
12.65
12.79
12.85
12.95
13.16
13.43
13.60
13.51
12.99
12.01
10.63
9.06
7.57
6.32
5.38
4.66
4.00
3.22
2.25
1.10
-0.15
-1.42
-2.62
-3.71
-4.70
-5.63
-6.56
-7.60
-8.81
-10.22
-11.74
-13.18
-14.28
-14.80
-14.61
-13.69
-12.12
-10.02
-7.54
-4.80
-1.98
0.73
3.14
5.05
6.35
7.01
7.14
6.92
6.58
6.29
6.17
6.19
6.26
6.22
5.96
5.46
4.78
4.08
3.50
3.11
2.85
2.57
2.15
1.51
0.70
-0.18
-1.04
-1.81
-2.55
-3.33
-4.20
-5.13
-6.08
-6.99
-7.85
-8.73
-9.67
-10.67
-11.59
-12.25
-12.45
-12.05
-11.01
-9.39
-7.32
-4.97
-2.49
-0.02
2.34
4.54
6.49
8.11
9.25
9.84
9.87
9.52
9.09
8.88
9.09
9.62
10.24
10.62
10.56
10.08
9.38
8.71
8.23
7.94
7.66
7.20
6.44
5.40
4.25
3.18
2.32
1.66
1.05
0.30
-0.74
-2.10
-3.66
-5.25
-6.72
-8.02
-9.16
-10.16
-10.94
-11.37
-11.28
-10.59
-9.34
-7.71
-5.89
-4.05
-2.28
-0.55
1.16
2.86
4.45
5.82
6.82
7.40
7.59
7.57
7.57
7.84
8.54
9.63
10.90
12.00
12.64
12.69
12.22
11.40
10.43
9.41
8.29
7.01
5.56
4.07
2.74
1.75
1.14
0.74
0.30
-0.41
-1.44
-2.72
-4.03
-5.23
-6.32
-7.43
-8.76
-10.38
-12.17
-13.78
-14.77
-14.80
-13.73
-11.73
-9.15
-6.42
-3.85
-1.62
0.23
1.72
2.87
3.70
4.20
4.36
4.22
3.90
3.53
3.22
3.03
2.92
2.83
2.65
2.39
2.05
1.72
1.49
1.40
1.47
1.65
1.85
1.97
1.91
1.60
1.06
0.38
-0.29
-0.82
-1.17
-1.38
-1.61
-1.98
-2.56
-3.32
-4.16
-4.94
-5.55
-5.91
-5.97
-5.74
-5.22
-4.37
-3.17
-1.57
0.41
2.65
4.92
6.92
8.38
9.20
9.45
9.35
9.10
8.84
8.55
8.20
7.76
7.29
6.90
6.66
6.55
6.47
6.31
5.95
5.42
4.75
4.00
3.19
2.27
1.22
0.06
-1.18
-2.43
-3.67
-4.87
-6.03
-7.12
-8.12
-9.06
-9.97
-10.93
-12.01
-13.22
-14.48
-15.66
-16.57
-17.02
-16.83
-15.88
-14.08
-11.43
-8.04
-4.17
-0.18
3.52
6.61
8.91
10.41
11.25
11.64
11.76
11.74
11.63
11.39
10.98
10.33
9.43
8.29
7.04
5.83
4.79
3.99
3.35
2.72
1.93
0.87
-0.41
-1.79
-3.02
-3.96
-4.52
-4.74
-4.75
-4.69
-4.72
-4.95
-5.49
-6.35
-7.51
-8.88
-10.28
-11.54
-12.44
-12.82
-12.53
-11.50
-9.74
-7.39
-4.66
-1.84
0.82
3.11
4.91
6.24
7.16
7.80
8.24
8.54
8.74
8.82
8.76
8.52
8.11
7.56
6.98
6.42
5.92
5.47
5.04
4.60
4.16
3.73
3.31
2.87
2.37
1.75
1.05
0.35
-0.24
-0.69
-1.01
-1.36
-1.91
-2.81
-4.06
-5.55
-7.01
-8.10
-8.56
-8.26
-7.26
-5.75
-3.94
-2.01
0.01
2.13
4.32
6.49
8.42
9.89
10.77
11.11
11.15
11.14
11.30
11.66
12.10
12.40
12.42
12.12
11.59
11.00
10.48
10.02
9.54
8.96
8.19
7.26
6.23
5.19
4.15
3.05
1.79
0.26
-1.52
-3.45
-5.34
-7.03
-8.46
-9.72
-10.96
-12.24
-13.52
-14.55
-15.07
-14.87
-13.90
-12.31
-10.32
-8.09
-5.72
-3.28
-0.80
1.55
3.61
5.17
6.19
6.71
6.93
7.00
7.04
7.09
7.05
6.84
6.37
5.63
4.68
3.68
2.82
2.22
1.93
1.86
1.83
1.62
1.07
0.14
-1.08
-2.39
-3.60
-4.57
-5.29
-5.91
-6.63
-7.68
-9.12
-10.89
-12.71
-14.29
-15.34
-15.75
-15.49
-14.63
-13.22
-11.28
-8.88
-6.10
-3.14
-0.22
2.46
4.75
6.59
7.97
8.90
9.40
9.50
9.23
8.69
7.99
7.28
6.70
6.35
6.26
6.34
6.46
6.44
6.19
5.74
5.19
4.66
4.18
3.68
3.05
2.26
1.35
0.46
-0.27
-0.82
-1.31
-1.94
-2.87
-4.19
-5.78
-7.40
-8.76
-9.63
-9.82
-9.32
-8.23
-6.74
-5.06
-3.35
-1.67
-0.04
1.54
3.06
4.45
5.63
6.53
7.16
7.61
7.97
8.33
8.64
8.79
8.67
8.19
7.43
6.57
5.84
5.38
5.20
5.18
5.11
4.84
4.30
3.54
2.66
1.76
0.91
0.13
-0.57
-1.22
-1.88
-2.60
-3.48
-4.55
-5.79
-7.09
-8.23
-8.98
-9.18
-8.73
-7.70
-6.22
-4.49
-2.64
-0.74
1.23
3.28
5.35
7.28
8.86
9.92
10.38
10.33
9.97
9.53
9.18
8.91
8.62
8.19
7.54
6.77
6.02
5.47
5.12
4.86
4.48
3.81
2.83
1.68
0.59
-0.28
-0.89
-1.34
-1.77
-2.31
-3.00
-3.83
-4.77
-5.84
-7.11
-8.63
-10.34
-12.06
-13.46
-14.22
-14.09
-13.07
-11.33
-9.21
-7.07
-5.20
-3.73
-2.62
-1.76
-0.99
-0.19
0.67
1.51
2.26
2.83
3.21
3.48
3.72
3.92
3.97
3.77
3.21
2.37
1.49
0.82
0.58
0.73
1.05
1.24
1.04
0.35
-0.72
-1.93
-3.03
-3.90
-4.50
-4.92
-5.28
-5.67
-6.17
-6.82
-7.61
-8.50
-9.38
-10.10
-10.48
-10.41
-9.82
-8.79
-7.41
-5.77
-3.94
-1.97
0.11
2.21
4.19
5.92
7.34
8.46
9.38
10.14
10.72
11.03
10.94
10.45
9.68
8.84
8.16
7.75
7.53
7.34
6.97
6.30
5.32
4.17
2.97
1.86
0.89
0.03
-0.77
-1.58
-2.43
-3.33
-4.26
-5.23
-6.27
-7.43
-8.72
-10.04
-11.17
-11.87
-11.89
-11.16
-9.78
-7.99
-6.03
-4.06
-2.14
-0.24
1.65
3.48
5.11
6.40
7.24
7.69
7.86
7.94
8.07
8.30
8.56
8.75
8.74
8.50
8.05
7.52
7.03
6.67
6.44
6.28
6.05
5.69
5.11
4.33
3.38
2.29
1.18
0.13
-0.78
-1.52
-2.13
-2.73
-3.48
-4.49
-5.71
-6.97
-8.02
-8.61
-8.62
-8.06
-7.08
-5.84
-4.49
-3.07
-1.54
0.11
1.83
3.48
4.85
5.76
6.15
6.07
5.70
5.23
4.83
4.57
4.41
4.25
3.99
3.58
3.07
2.57
2.19
2.00
1.97
1.98
1.85
1.44
0.74
-0.19
-1.23
-2.27
-3.15
-3.74
-4.03
-4.07
-4.05
-4.18
-4.66
-5.57
-6.80
-7.77
-7.80
-6.42
-3.58
0.25
4.32
7.82
10.27
11.65
12.99
15.49
19.88
26.02
32.87
39.07
43.49
45.73
46.01
45.84
46.62
49.33
54.37
61.89
71.96
84.52
98.87
113.55
127.91
141.69
155.16
168.62
181.75
193.29
201.13
203.02
190.10
157.71
107.01
45.49
-16.12
-68.95
-109.02
-137.04
-156.22
-169.96
-179.08
-182.41
-177.70
-163.31
-139.67
-109.80
-78.70
-51.77
-32.76
-22.25
-18.34
-17.61
-16.98
-14.62
-10.04
-3.46
4.79
13.83
22.58
29.02
30.37
24.01
8.87
-13.91
-41.16
-68.15
-91.71
-110.87
-126.52
-139.41
-148.68
-151.70
-145.72
-130.25
-108.13
-85.32
-67.41
-56.83
-51.94
-48.79
-43.92
-36.77
-30.18
-28.46
-35.78
-53.07
-77.21
-101.97
-120.45
-127.43
-120.87
-102.19
-71.78
-34.15
3.67
34.88
56.68
70.63
80.41
90.38
101.31
111.91
119.81
123.50
122.57
118.07
109.33
96.35
79.45
59.61
39.21
21.45
10.30
8.91
19.28
40.93
70.07
100.16
123.63
134.43
129.35
111.77
84.41
50.47
13.65
-22.20
-53.74
-77.96
-93.23
-99.83
-99.25
-93.55
-83.72
-69.89
-52.21
-32.05
-12.37
2.81
9.92
7.56
-3.01
-17.65
-31.27
-39.98
-42.46
-39.92
-34.89
-29.63
-25.06
-21.13
-17.18
-12.99
-9.18
-6.85
-6.70
-8.49
-11.04
-12.84
-12.94
-11.35
-8.96
-7.06
-6.64
-7.84
-9.93
-11.68
-12.01
-10.50
-7.48
-3.86
-0.72
1.10
1.25
-0.14
-2.62
-5.54
-8.20
-9.98
-10.43
-9.34
-6.77
-3.08
1.19
5.50
9.39
12.64
15.20
17.11
18.41
19.10
19.19
18.80
18.15
17.50
17.04
16.73
16.39
15.76
14.75
13.47
12.21
11.25
10.64
10.20
9.59
8.54
7.01
5.18
3.34
1.74
0.44
-0.66
-1.70
-2.78
-3.87
-4.94
-5.96
-6.97
-8.04
-9.18
-10.30
-11.18
-11.57
-11.29
-10.31
-8.76
-6.88
-4.94
-3.14
-1.61
-0.32
0.79
1.83
2.90
3.99
5.06
5.96
6.55
6.75
6.61
6.26
5.89
5.64
5.52
5.44
5.27
4.95
4.51
4.06
3.69
3.41
3.20
2.90
2.43
1.73
0.84
-0.14
-1.08
-1.89
-2.56
-3.13
-3.71
-4.38
-5.19
-6.10
-7.00
-7.80
-8.38
-8.73
-8.82
-8.66
-8.17
-7.30
-6.00
-4.31
-2.39
-0.47
1.24
2.60
3.61
4.37
4.98
5.51
5.89
6.04
5.93
5.63
5.25
4.92
4.68
4.50
4.34
4.16
4.02
3.94
3.88
3.75
3.40
2.74
1.80
0.76
-0.20
-0.95
-1.44
-1.73
-1.86
-1.87
-1.81
-1.72
-1.72
-1.95
-2.50
-3.33
-4.23
-4.93
-5.18
-4.85
-3.96
-2.66
-1.09
0.59
2.31
3.98
5.50
6.71
7.47
7.69
7.38
6.69
5.86
5.13
4.67
4.54
4.67
4.96
5.31
5.64
5.91
6.04
5.95
5.57
4.89
3.98
2.97
2.02
1.19
0.49
-0.14
-0.75
-1.36
-1.96
-2.57
-3.25
-4.12
-5.25
-6.63
-8.15
-9.60
-10.76
-11.45
-11.59
-11.22
-10.44
-9.37
-8.14
-6.79
-5.34
-3.81
-2.19
-0.55
0.97
2.22
3.03
3.32
3.11
2.52
1.74
0.93
0.19
-0.49
-1.08
-1.56
-1.81
-1.64
-0.98
0.10
1.36
2.41
2.89
2.60
1.50
-0.23
-2.30
-4.42
-6.36
-7.98
-9.27
-10.29
-11.11
-11.85
-12.57
-13.26
-13.87
-14.32
-14.53
-14.43
-13.94
-12.98
-11.45
-9.29
-6.52
-3.31
0.06
3.28
6.07
8.32
10.04
11.31
12.19
12.75
12.96
12.84
12.47
11.98
11.50
11.12
10.81
10.47
10.01
9.33
8.44
7.41
6.32
5.25
4.24
3.26
2.28
1.25
0.12
-1.13
-2.46
-3.77
-4.94
-5.89
-6.59
-7.12
-7.61
-8.18
-8.86
-9.53
-9.99
-10.04
-9.55
-8.54
-7.12
-5.48
-3.79
-2.14
-0.58
0.83
2.09
3.16
4.02
4.67
5.14
5.48
5.75
6.00
6.25
6.54
6.84
7.16
7.48
7.81
8.13
8.40
8.55
8.47
8.07
7.32
6.26
4.95
3.50
2.01
0.59
-0.67
-1.69
-2.46
-3.04
-3.57
-4.14
-4.78
-5.43
-5.98
-6.36
-6.57
-6.65
-6.59
-6.27
-5.47
-4.04
-2.01
0.37
2.68
4.50
5.63
6.07
6.03
5.75
5.42
5.10
4.81
4.55
4.32
4.10
3.83
3.40
2.77
2.03
1.41
1.13
1.32
1.88
2.50
2.83
2.59
1.75
0.51
-0.84
-2.02
-2.92
-3.58
-4.13
-4.66
-5.18
-5.58
-5.77
-5.68
-5.38
-5.02
-4.78
-4.75
-4.82
-4.78
-4.30
-3.15
-1.31
1.00
3.38
5.44
6.89
7.64
7.78
7.48
6.89
6.16
5.39
4.66
4.02
3.50
3.03
2.50
1.83
1.04
0.29
-0.17
-0.17
0.35
1.20
2.04
2.47
2.17
1.04
-0.80
-3.03
-5.28
-7.21
-8.62
-9.50
-9.99
-10.29
-10.53
-10.71
-10.70
-10.32
-9.49
-8.23
-6.65
-4.87
-2.99
-1.07
0.82
2.57
4.04
5.09
5.66
5.78
5.55
5.07
4.42
3.63
2.73
1.71
0.59
-0.59
-1.76
-2.78
-3.45
-3.57
-3.02
-1.82
-0.15
1.68
3.35
4.58
5.22
5.25
4.79
3.99
2.99
1.89
0.70
-0.56
-1.84
-3.04
-4.09
-4.91
-5.51
-5.96
-6.31
-6.52
-6.44
-5.87
-4.69
-2.94
-0.88
1.13
2.74
3.76
4.23
4.35
4.42
4.63
5.07
5.66
6.26
6.68
6.82
6.68
6.37
6.00
5.70
5.52
5.42
5.33
5.17
4.88
4.47
3.96
3.37
2.71
1.95
1.09
0.16
-0.79
-1.67
-2.42
-3.01
-3.43
-3.74
-4.02
-4.32
-4.67
-5.01
-5.22
-5.13
-4.62
-3.63
-2.19
-0.45
1.39
3.14
4.68
5.93
6.89
7.52
7.81
7.79
7.50
7.03
6.51
6.05
5.72
5.52
5.40
5.29
5.09
4.76
4.25
3.58
2.82
2.10
1.51
1.06
0.62
0.03
-0.85
-2.03
-3.40
-4.62
-5.38
-5.56
-5.35
-5.20
-5.61
-6.88
-8.95
-11.40
-13.34
-13.93
-12.74
-9.97
-6.38
-2.98
-0.53
0.69
0.87
0.99
2.06
4.72
8.89
13.77
18.13
20.84
21.27
19.45
16.79
15.27
16.86
22.83
33.37
47.70
64.50
82.32
96.01
101.18
95.37
79.68
58.66
38.10
22.30
12.72
8.13
5.87
3.87
1.06
-2.50
-6.28
-9.89
-13.34
-16.83
-20.52
-24.25
-27.24
-28.67
-28.12
-25.83
-22.64
-19.63
-17.60
-16.95
-17.53
-18.67
-19.61
-19.75
-18.90
-17.33
-15.53
-13.92
-12.78
-11.99
-11.18
-9.94
-8.09
-5.70
-3.19
-1.06
0.57
1.22
0.76
-0.63
-2.70
-5.16
-7.82
-10.53
-13.24
-15.89
-18.43
-20.64
-22.23
-22.99
-22.83
-21.86
-20.38
-18.78
-17.43
-16.61
-16.28
-16.29
-16.34
-16.14
-15.46
-14.25
-12.61
-10.74
-8.93
-7.37
-6.15
-5.25
-4.60
-4.12
-3.76
-3.52
-3.43
-3.53
-3.76
-4.03
-4.19
-4.08
-3.65
-2.91
-1.97
-1.01
-0.19
0.34
0.53
0.39
-0.02
-0.60
-1.25
-1.83
-2.22
-2.32
-2.09
-1.62
-1.06
-0.61
-0.46
-0.71
-1.35
-2.28
-3.32
-4.27
-5.01
-5.49
-5.73
-5.82
-5.77
-5.52
-4.91
-3.79
-2.12
-0.03
2.23
4.37
6.15
7.48
8.34
8.83
9.00
8.89
8.52
7.91
7.14
6.29
5.45
4.66
3.90
3.15
2.40
1.68
1.09
0.71
0.57
0.62
0.75
0.84
0.81
0.63
0.32
-0.14
-0.81
-1.78
-3.09
-4.70
-6.51
-8.35
-10.09
-11.61
-12.88
-13.82
-14.37
-14.47
-14.07
-13.24
-12.14
-10.97
-9.92
-9.08
-8.47
-8.07
-7.89
-7.93
-8.15
-8.43
-8.50
-8.17
-7.37
-6.35
-5.60
-5.65
-6.75
-8.62
-10.46
-11.09
-9.42
-4.61
3.72
15.49
30.17
46.69
63.41
78.23
88.84
93.18
90.05
79.50
62.88
42.58
21.46
2.30
-12.61
-21.82
-24.96
-22.83
-17.31
-11.12
-7.12
-7.63
-13.80
-25.20
-40.03
-55.67
-69.46
-79.39
-84.45
-84.58
-80.26
-72.24
-61.20
-47.77
-32.71
-17.13
-2.52
9.43
17.26
20.28
18.76
13.88
7.29
0.51
-5.48
-10.35
-14.15
-16.98
-18.68
-18.91
-17.51
-14.84
-11.91
-10.26
-11.32
-15.69
-22.63
-29.96
-34.62
-33.69
-25.56
-10.65
8.49
27.98
43.75
52.75
53.65
46.80
33.75
16.54
-2.72
-21.93
-38.95
-51.56
-57.87
-56.73
-48.25
-33.94
-16.36
1.62
17.57
30.11
39.03
45.03
49.13
52.10
54.05
54.47
52.66
48.22
41.55
34.00
27.46
23.74
23.85
27.67
34.08
41.35
47.64
51.23
50.80
45.57
35.89
23.75
12.76
7.12
9.70
20.08
33.92
44.31
44.80
32.63
10.35
-15.16
-35.71
-45.39
-42.61
-29.97
-12.22
6.08
22.08
34.67
43.65
48.86
49.96
46.85
40.31
32.06
24.31
18.84
16.22
15.64
15.43
13.90
10.26
5.00
-0.24
-3.60
-4.02
-2.04
0.00
-1.27
-9.05
-24.66
-46.19
-68.39
-84.13
-86.94
-73.74
-46.46
-11.57
22.06
46.38
57.19
54.94
43.55
28.12
12.82
-0.12
-9.93
-16.63
-20.31
-20.42
-16.29
-8.03
2.88
13.96
22.49
26.76
26.28
21.75
15.36
10.27
9.10
12.89
20.86
30.76
40.13
46.43
43.84
28.12
-0.64
-37.48
-74.48
-103.53
-119.55
-119.88
-103.91
-74.38
-36.92
2.41
37.68
63.68
78.40
80.13
71.64
57.92
45.83
35.25
24.86
12.98
-0.02
-12.86
-24.51
-34.21
-42.33
-49.95
-57.92
-65.31
-70.53
-72.27
-70.32
-65.76
-60.12
-55.27
-53.00
-54.43
-58.80
-64.27
-68.31
-68.58
-63.47
-52.38
-36.21
-17.24
1.51
17.73
29.99
38.02
42.46
44.58
45.96
47.82
50.53
53.47
55.52
55.60
53.30
49.21
44.74
41.44
40.12
40.31
40.63
39.59
36.46
31.64
26.30
21.55
17.77
14.35
10.07
3.86
-4.43
-13.75
-22.25
-28.19
-30.75
-30.36
-28.33
-26.09
-24.54
-23.89
-23.87
-24.09
-24.17
-23.58
-21.55
-17.27
-10.34
-1.26
8.50
17.04
22.83
25.26
24.63
21.67
16.85
10.31
2.09
-7.37
-17.05
-25.55
-31.72
-35.12
-36.23
-36.36
-37.21
-40.40
-46.94
-56.67
-67.89
-77.48
-81.68
-77.43
-63.73
-42.31
-17.20
6.77
25.68
37.79
43.66
45.45
45.75
46.67
49.34
53.86
59.52
65.09
69.24
71.00
70.17
67.31
63.37
59.08
54.47
48.93
41.71
32.68
22.71
13.37
6.20
1.88
-0.19
-1.55
-3.92
-8.40
-14.88
-22.11
-28.27
-31.75
-31.88
-29.02
-24.47
-19.95
-17.09
-17.12
-20.66
-27.52
-36.61
-46.01
-53.30
-56.35
-54.02
-46.68
-36.05
-24.51
-14.11
-5.99
-0.29
3.34
5.25
5.50
4.04
1.14
-2.48
-5.78
-7.83
-8.24
-7.33
-6.01
-5.36
-6.36
-9.53
-14.78
-21.25
-27.34
-30.92
-30.00
-23.43
-11.48
4.17
20.98
36.54
49.26
58.76
65.49
70.06
72.69
73.03
70.53
65.08
57.65
50.20
45.21
44.63
48.99
57.00
65.94
72.64
74.71
71.44
63.90
54.34
45.18
38.00
33.04
29.34
25.34
19.65
11.71
2.01
-8.05
-16.67
-22.10
-23.08
-19.15
-11.03
-0.94
7.40
9.33
0.76
-20.17
-51.80
-88.88
-124.07
-150.39
-163.48
-162.66
-150.45
-131.10
-108.87
-87.03
-67.61
-51.82
-40.39
-33.68
-31.37
-32.40
-34.95
-36.96
-36.78
-33.62
-27.85
-20.65
-13.61
-8.18
-5.26
-5.07
-7.16
-10.51
-13.62
-14.73
-12.22
-5.26
5.73
18.92
31.68
41.63
47.68
50.58
52.59
56.42
63.99
75.39
88.53
99.71
104.64
99.90
84.21
59.15
28.98
-0.42
-23.29
-35.67
-36.37
-26.86
-10.32
9.54
29.37
46.53
59.03
65.52
65.41
59.19
48.62
36.37
25.34
17.72
14.24
13.86
14.05
11.50
3.36
-11.51
-31.66
-52.91
-69.52
-76.16
-70.08
-52.49
-28.34
-4.58
12.35
18.60
13.95
1.23
-15.18
-30.99
-43.33
-50.97
-54.11
-53.66
-50.63
-45.78
-39.67
-32.78
-25.69
-19.13
-13.78
-10.06
-7.97
-7.05
-6.59
-5.84
-4.32
-1.94
0.77
2.79
2.76
-0.58
-7.81
-18.35
-30.28
-40.73
-46.65
-45.89
-38.00
-24.46
-8.38
6.50
16.92
21.07
19.10
13.11
6.51
3.15
6.31
17.82
37.44
62.77
89.58
112.87
128.20
133.14
128.03
115.83
100.97
87.52
77.69
71.17
65.85
59.37
50.54
40.03
29.81
21.83
16.84
14.04
11.66
8.23
3.38
-2.06
-6.95
-10.78
-14.24
-18.71
-25.33
-34.03
-43.58
-52.23
-58.78
-63.00
-65.35
-66.18
-65.07
-61.03
-53.26
-42.02
-28.95
-16.56
-7.25
-2.41
-2.26
-6.10
-12.87
-21.48
-30.69
-39.03
-44.84
-46.72
-44.12
-37.71
-29.16
-20.55
-13.55
-8.84
-6.13
-4.49
-3.13
-1.93
-1.66
-3.71
-9.48
-19.65
-33.62
-49.25
-63.18
-71.49
-70.85
-59.75
-39.50
-14.46
8.79
23.46
24.99
12.99
-8.32
-31.41
-48.25
-53.10
-44.38
-24.74
0.44
25.22
44.90
56.82
60.27
55.95
45.67
32.22
19.31
11.04
10.80
20.00
37.20
58.28
77.70
90.33
93.16
86.07
71.41
52.83
33.85
16.94
3.17
-7.45
-15.32
-20.78
-23.71
-23.41
-18.73
-8.70
6.80
26.13
45.60
60.08
64.28
54.28
28.55
-11.66
-62.42
-117.33
-168.16
-205.87
-222.66
-214.33
-182.14
-132.79
-76.38
-22.87
21.18
53.86
76.93
93.25
104.50
110.57
110.40
103.59
91.38
76.39
61.36
48.00
36.54
25.99
15.21
3.79
-7.66
-17.65
-24.67
-27.94
-27.80
-25.81
-24.23
-25.19
-29.89
-37.95
-47.35
-55.11
-58.31
-55.30
-46.24
-33.01
-18.23
-4.16
8.07
18.42
27.36
34.99
40.63
42.96
40.75
33.65
22.63
9.82
-2.11
-10.68
-14.36
-12.88
-7.14
1.17
10.09
17.99
23.88
27.48
29.03
28.88
27.15
23.68
18.20
10.69
1.72
-7.50
-15.42
-20.64
-22.49
-21.22
-17.85
-13.74
-9.99
-7.07
-4.76
-2.37
0.85
5.28
10.78
16.67
21.86
24.97
24.48
18.89
7.17
-10.61
-32.70
-55.65
-75.06
-86.94
-89.05
-81.60
-66.90
-48.14
-28.12
-8.53
9.95
26.94
41.76
53.30
60.52
63.10
61.72
57.77
52.74
47.55
42.31
36.56
29.77
21.92
13.60
5.88
-0.22
-4.17
-6.22
-7.20
-8.12
-9.63
-11.75
-13.87
-15.17
-15.02
-13.38
-10.77
-7.93
-5.51
-3.74
-2.40
-1.01
0.86
3.37
6.35
9.27
11.25
11.08
7.42
-0.74
-13.40
-29.06
-44.72
-56.61
-61.41
-57.44
-45.44
-28.22
-9.54
7.29
20.45
29.74
36.09
40.75
44.80
48.60
52.13
55.17
57.56
59.26
60.13
59.64
57.09
51.98
44.18
34.31
23.63
13.53
4.69
-3.65
-13.84
-28.95
-48.77
-70.39
-88.52
-98.39
-98.29
-89.80
-76.49
-62.24
-49.80
-40.07
-32.67
-26.68
-21.39
-16.70
-12.88
-10.24
-9.04
-9.30
-10.78
-13.18
-15.85
-17.64
-16.93
-11.96
-1.62
13.77
32.30
50.82
65.56
73.23
71.93
61.70
44.66
24.28
4.22
-12.61
-24.78
-32.35
-36.21
-37.24
-35.86
-32.30
-27.07
-21.65
-17.85
-16.85
-18.27
-20.09
-19.49
-14.20
-3.56
11.40
28.41
44.91
58.86
69.02
74.96
76.88
75.50
71.32
65.99
60.38
54.66
48.65
42.10
35.29
29.08
24.52
22.48
23.50
27.53
34.02
41.52
47.46
48.20
40.51
23.19
-1.68
-28.86
-52.05
-66.02
-69.27
-64.07
-54.73
-45.16
-37.25
-30.85
-24.89
-18.91
-13.49
-9.89
-8.84
-9.93
-11.77
-12.81
-11.75
-8.50
-3.99
0.34
3.22
4.09
3.28
1.73
0.42
-0.09
0.11
0.43
0.09
-1.27
-3.53
-6.08
-8.11
-9.02
-8.72
-7.59
-6.36
-5.68
-5.95
-7.15
-8.99
-11.14
-13.29
-15.44
-17.65
-19.99
-22.51
-25.22
-28.17
-31.21
-33.84
-35.07
-33.74
-29.10
-21.39
-12.04
-3.11
3.55
7.26
8.56
8.74
8.83
8.97
8.50
6.77
3.97
1.25
0.23
1.92
6.02
11.02
15.09
17.04
16.84
15.56
14.51
14.60
15.96
18.17
20.65
22.96
24.90
26.31
27.03
26.93
26.15
25.20
24.80
25.55
27.56
30.33
32.93
34.11
32.66
27.86
19.79
9.29
-2.26
-13.35
-22.83
-30.15
-35.46
-39.38
-42.59
-45.44
-47.80
-49.21
-49.13
-47.28
-43.73
-38.72
-32.41
-24.61
-14.94
-3.16
10.44
24.75
38.09
48.71
55.44
58.04
57.24
54.33
50.59
46.84
43.30
39.74
35.87
31.70
27.68
24.56
23.07
23.48
25.48
28.14
30.39
31.38
30.81
28.97
26.47
23.88
21.48
19.23
16.95
14.58
12.44
11.07
11.01
12.18
13.71
13.78
10.17
1.01
-14.43
-35.27
-59.18
-82.98
-103.61
-118.84
-127.75
-130.55
-128.18
-121.79
-112.45
-101.13
-88.83
-76.71
-65.98
-57.53
-51.46
-46.98
-42.61
-36.84
-28.87
-18.97
-8.34
1.51
9.57
15.72
20.69
25.48
30.75
36.43
41.78
45.83
47.76
47.28
44.58
40.22
34.79
28.80
22.58
16.29
10.03
3.90
-1.93
-7.28
-11.96
-15.76
-18.46
-19.80
-19.57
-17.68
-14.23
-9.64
-4.44
0.75
5.47
9.47
12.72
15.27
17.22
18.66
19.63
20.28
20.77
21.34
22.20
23.40
24.86
26.28
27.31
27.57
26.88
25.25
22.91
20.18
17.38
14.71
12.26
10.08
8.25
6.92
6.28
6.36
6.97
7.60
7.70
6.78
4.75
1.96
-0.91
-3.19
-4.48
-4.98
-5.39
-6.61
-9.29
-13.52
-18.71
-23.85
-27.99
-30.66
-32.04
-32.92
-34.19
-36.54
-40.09
-44.47
-48.93
-52.70
-55.20
-56.18
-55.78
-54.43
-52.65
-50.67
-48.11
-43.79
-35.97
-23.14
-4.86
17.54
41.07
61.95
76.82
83.59
81.78
72.36
57.32
39.26
20.85
4.21
-9.68
-21.25
-31.91
-42.94
-54.29
-64.07
-69.14
-66.79
-56.30
-39.56
-20.26
-2.25
12.02
22.05
28.68
33.02
35.62
36.33
34.81
31.10
25.93
20.57
16.30
13.92
13.51
14.48
15.86
16.79
16.83
16.19
15.63
16.14
18.45
22.64
27.98
33.24
37.15
38.98
38.81
37.39
35.75
34.67
34.46
34.98
35.89
36.77
37.16
36.43
33.80
28.72
21.23
12.33
3.75
-2.70
-5.95
-6.16
-4.71
-3.47
-3.90
-6.51
-10.70
-15.36
-19.42
-22.35
-24.16
-25.15
-25.61
-25.70
-25.60
-25.63
-26.38
-28.47
-32.25
-37.50
-43.36
-48.50
-51.62
-51.85
-49.02
-43.61
-36.52
-28.66
-20.78
-13.30
-6.42
-0.26
5.14
9.71
13.46
16.45
18.81
20.67
22.09
23.00
23.36
23.13
22.44
21.51
20.62
20.00
19.71
19.68
19.72
19.71
19.58
19.35
18.99
18.41
17.44
15.91
13.79
11.19
8.36
5.56
2.94
0.56
-1.61
-3.60
-5.50
-7.38
-9.45
-11.90
-14.95
-18.62
-22.85
-27.41
-32.03
-36.40
-40.14
-42.84
-44.05
-43.40
-40.68
-35.96
-29.60
-22.09
-14.04
-5.94
1.79
8.89
15.16
20.51
24.88
28.22
30.54
31.84
32.23
31.85
30.92
29.67
28.34
27.11
26.08
25.31
24.78
24.52
24.50
24.74
25.10
25.25
24.66
22.82
19.55
15.24
10.79
7.27
5.47
5.50
6.65
7.77
7.66
5.58
1.43
-4.33
-10.95
-17.68
-23.96
-29.57
-34.47
-38.84
-42.85
-46.60
-50.06
-53.03
-55.18
-56.18
-55.73
-53.65
-49.87
-44.50
-37.70
-29.71
-20.87
-11.51
-2.07
6.95
15.05
21.80
26.98
30.59
32.88
34.19
34.86
35.08
34.92
34.41
33.59
32.60
31.65
30.93
30.51
30.34
30.21
29.84
29.00
27.59
25.67
23.42
21.07
18.82
16.72
14.73
12.71
10.51
8.03
5.23
2.20
-0.90
-3.87
-6.53
-8.79
-10.77
-12.70
-14.92
-17.70
-21.13
-25.03
-28.99
-32.46
-34.88
-35.81
-34.98
-32.30
-27.87
-21.96
-14.96
-7.38
0.25
7.43
13.80
19.18
23.57
27.06
29.74
31.62
32.62
32.69
31.90
30.47
28.76
27.10
25.70
24.63
23.82
23.17
22.59
22.03
21.38
20.50
19.20
17.32
14.86
11.98
9.00
6.22
3.82
1.74
-0.26
-2.44
-4.98
-7.80
-10.70
-13.41
-15.79
-17.88
-19.86
-21.92
-24.24
-26.90
-29.95
-33.31
-36.74
-39.84
-42.00
-42.55
-40.95
-36.99
-30.92
-23.35
-15.12
-7.00
0.48
7.08
12.76
17.54
21.41
24.40
26.46
27.56
27.79
27.41
26.74
26.07
25.44
24.84
24.30
23.86
23.43
22.89
22.05
20.80
19.07
16.94
14.68
12.79
11.53
10.70
9.79
8.42
6.46
4.05
1.41
-1.22
-3.06
-3.86
-4.18
-4.90
-6.40
-8.60
-11.29
-14.35
-17.68
-19.69
-19.44
-17.31
-14.23
-10.51
-5.83
0.10
7.18
15.14
25.88
40.07
55.90
70.52
82.24
90.99
97.39
102.13
106.07
113.06
125.27
141.57
159.10
175.69
189.99
200.35
204.92
184.34
135.51
76.18
29.65
6.59
4.35
14.25
28.12
39.12
44.37
47.00
50.24
54.37
57.72
58.52
57.30
54.84
50.92
44.34
35.19
22.39
3.94
-20.49
-47.16
-69.08
-79.54
-75.20
-57.20
-29.07
3.40
34.14
59.23
77.90
90.96
98.38
98.37
88.48
67.99
38.09
1.64
-37.54
-75.33
-108.14
-133.59
-150.65
-159.35
-160.42
-155.44
-146.51
-135.78
-124.86
-114.94
-107.06
-102.17
-100.69
-102.10
-104.85
-106.65
-105.51
-100.61
-92.68
-83.59
-75.42
-69.48
-65.80
-63.40
-60.81
-56.89
-51.25
-44.23
-36.71
-29.61
-23.60
-18.92
-15.53
-13.16
-11.56
-10.50
-9.84
-9.45
-9.24
-9.03
-8.68
-8.12
-7.49
-7.15
-7.62
-9.35
-12.53
-16.98
-22.22
-27.69
-32.93
-37.68
-41.80
-45.12
-47.39
-48.30
-47.66
-45.51
-42.20
-38.28
-34.25
-30.43
-26.88
-23.49
-20.13
-16.79
-13.60
-10.84
-8.81
-7.60
-7.13
-7.13
-7.29
-7.38
-7.40
-7.44
-7.62
-7.97
-8.38
-8.67
-8.75
-8.65
-8.52
-8.50
-8.67
-9.00
-9.44
-10.03
-10.88
-12.10
-13.71
-15.56
-17.39
-18.97
-20.18
-21.13
-22.02
-23.03
-24.24
-25.52
-26.63
-27.28
-27.23
-26.32
-24.57
-22.11
-19.22
-16.26
-13.56
-11.43
-9.99
-9.24
-9.01
-9.05
-9.08
-8.90
-8.42
-7.65
-6.69
-5.63
-4.54
-3.49
-2.58
-1.93
-1.61
-1.57
-1.55
-1.19
-0.20
1.46
3.51
5.45
6.85
7.54
7.68
7.61
7.59
7.69
7.71
7.40
6.55
5.20
3.55
1.80
0.05
-1.76
-3.83
-6.37
-9.46
-12.97
-16.65
-20.15
-23.20
-25.70
-27.74
-29.39
-30.67
-31.36
-31.10
-29.43
-26.00
-20.74
-13.85
-5.78
2.98
11.91
20.60
28.70
35.90
41.91
46.47
49.48
50.94
51.12
50.45
49.41
48.46
47.78
47.34
46.87
46.05
44.61
42.50
39.83
36.84
33.76
30.69
27.63
24.46
21.15
17.72
14.35
11.24
8.53
6.20
4.06
1.86
-0.59
-3.37
-6.37
-9.42
-12.37
-15.13
-17.64
-19.87
-21.76
-23.33
-24.70
-26.11
-27.91
-30.28
-33.25
-36.46
-39.33
-41.08
-40.99
-38.57
-33.66
-26.48
-17.58
-7.76
2.13
11.30
19.18
25.43
29.98
32.91
34.45
34.68
33.87
32.52
31.08
29.78
28.50
27.05
25.27
23.14
20.64
17.98
15.49
13.46
11.87
10.50
9.08
7.38
5.23
2.10
-2.05
-6.54
-10.47
-13.26
-14.94
-15.89
-16.71
-17.92
-21.11
-26.62
-33.09
-38.70
-42.58
-44.96
-46.56
-48.10
-50.18
-55.95
-66.46
-79.35
-90.96
-98.98
-102.81
-102.71
-99.34
-93.58
-90.91
-93.89
-99.99
-105.06
-107.28
-107.33
-106.67
-106.48
-107.40
-115.89
-134.79
-160.66
-187.62
-211.82
-231.39
-244.91
-251.20
-212.29
-121.81
-10.59
84.65
150.34
191.11
216.11
232.14
242.50
248.21
243.80
227.96
206.25
186.10
171.12
160.97
153.82
148.20
143.45
135.08
121.62
106.25
93.21
84.01
77.72
72.98
69.13
66.43
62.59
56.84
50.75
46.13
43.03
40.33
37.13
33.61
30.85
28.82
27.77
28.28
30.13
31.79
31.48
28.37
23.32
18.44
15.30
14.80
16.99
21.10
25.67
28.83
27.97
20.00
2.33
-25.00
-57.46
-86.32
-102.13
-100.08
-82.08
-57.07
-35.97
-25.75
-25.78
-29.17
-27.94
-18.56
-3.78
9.79
16.41
15.03
9.29
4.37
3.39
5.58
7.52
6.17
1.05
-5.61
-10.38
-10.65
-5.90
2.31
11.21
18.03
21.00
19.74
15.20
9.45
4.92
3.45
5.72
10.75
16.29
19.88
19.59
14.98
7.70
0.76
-2.76
-1.05
5.32
13.53
20.05
21.74
17.64
9.77
2.16
-1.22
2.23
12.61
28.17
46.81
66.41
85.38
102.94
118.86
130.77
138.36
144.73
152.19
165.81
186.98
209.60
222.89
218.28
195.25
161.76
129.87
109.04
102.37
105.91
111.79
115.62
117.12
118.42
121.28
125.56
129.17
129.69
125.17
115.14
100.55
82.06
64.60
49.48
35.64
20.86
3.14
-18.64
-44.19
-71.81
-99.32
-125.37
-149.64
-173.32
-198.16
-225.42
-254.89
-284.32
-309.53
-325.93
-331.20
-324.07
-307.26
-285.31
-262.74
-242.58
-225.63
-210.96
-197.10
-185.30
-173.55
-163.07
-154.98
-149.72
-146.83
-145.17
-143.49
-140.85
-140.37
-138.80
-137.55
-138.14
-141.80
-148.72
-157.84
-167.34
-175.55
-186.25
-195.27
-204.43
-215.00
-226.32
-235.25
-237.09
-227.86
-178.57
-129.51
-79.14
-31.07
13.24
54.28
92.88
128.36
157.97
178.97
187.56
197.48
218.58
255.67
301.59
339.64
353.16
334.88
290.49
235.71
185.91
146.15
114.74
85.65
53.52
17.29
-19.79
-51.22
-73.99
-84.74
-86.27
-84.28
-85.09
-92.78
-107.57
-125.93
-141.98
-150.87
-148.04
-132.82
-107.59
-77.21
-47.32
-22.64
-5.99
1.98
2.02
-3.22
-10.23
-15.20
-15.17
-8.79
3.80
21.38
42.35
65.09
87.87
109.06
127.17
140.27
146.56
145.44
138.23
127.90
117.70
109.95
105.36
104.21
104.82
104.20
99.81
91.31
80.69
71.12
65.35
64.81
71.99
86.63
105.38
123.64
137.81
145.94
146.82
139.55
124.18
106.16
89.78
76.09
64.84
57.38
57.51
69.19
94.63
134.18
191.27
263.51
341.07
410.39
459.94
483.95
481.63
456.35
379.92
252.25
103.05
-28.94
-124.14
-185.86
-225.72
-253.25
-272.01
-279.86
-267.64
-231.35
-176.08
-113.00
-53.66
-4.46
33.43
54.21
58.99
58.59
60.58
63.10
61.43
45.36
11.67
-36.09
-91.18
-146.70
-193.25
-226.46
-247.98
-261.79
-270.71
-274.06
-270.86
-262.78
-253.68
-247.56
-247.80
-255.03
-266.07
-275.37
-276.27
-264.73
-240.93
-208.10
-170.58
-132.25
-96.11
-64.56
-39.98
-23.56
-15.32
-14.49
-19.42
-27.55
-34.33
-35.19
-28.04
-14.89
-0.18
11.75
17.65
16.40
10.22
6.20
13.18
37.53
80.31
138.22
205.71
275.04
336.96
368.42
350.75
286.11
199.80
121.88
70.25
47.78
48.04
55.81
59.04
52.89
37.74
15.41
-13.66
-52.35
-97.08
-140.79
-175.73
-195.34
-195.31
-175.72
-142.14
-103.91
-69.55
-42.08
-21.23
-5.66
6.21
16.30
26.25
36.45
45.71
52.98
59.51
66.03
71.89
75.98
78.15
79.32
80.29
80.95
81.54
84.51
91.24
101.07
111.94
121.97
130.22
136.09
139.23
130.21
107.42
77.03
48.47
28.01
17.20
14.40
18.17
21.15
16.91
2.92
-21.01
-52.93
-89.03
-124.74
-150.21
-158.16
-149.79
-133.03
-116.56
-106.04
-102.36
-102.29
-100.94
-94.39
-81.98
-66.00
-48.76
-31.25
-14.56
-0.23
10.86
19.57
29.11
42.74
60.77
80.23
95.43
99.80
89.27
65.00
33.32
3.57
-15.65
-21.69
-15.44
-1.32
14.38
25.59
28.73
22.97
9.08
-8.88
-28.01
-46.75
-64.75
-81.40
-95.27
-101.39
-94.92
-73.46
-38.75
2.30
39.78
63.72
67.99
52.94
26.01
-1.51
-19.21
-21.20
-8.15
14.37
38.74
58.30
67.49
65.72
56.27
43.32
30.09
17.56
4.79
-9.99
-27.73
-47.12
-64.26
-74.26
-74.96
-67.93
-57.28
-47.16
-39.36
-32.73
-24.26
-11.16
6.39
23.52
33.63
32.22
18.76
-3.93
-31.66
-60.51
-86.57
-103.52
-106.54
-92.43
-59.22
-6.64
62.62
139.75
206.72
244.87
245.13
209.96
150.18
81.74
21.45
-17.92
-32.03
-26.13
-12.16
-0.58
0.84
-11.11
-33.42
-59.41
-82.54
-99.47
-110.21
-116.04
-118.05
-113.33
-102.02
-85.16
-64.54
-42.96
-23.74
-9.38
-0.43
4.81
8.67
12.72
18.14
25.20
32.63
38.06
39.41
36.21
30.17
24.14
20.68
21.60
27.23
35.50
42.83
45.91
43.42
36.71
28.80
22.76
20.85
23.96
30.78
38.71
44.96
47.62
46.19
41.15
33.78
23.75
13.94
9.05
12.77
24.46
39.01
49.34
49.22
36.17
12.75
-14.06
-36.79
-49.63
-51.04
-45.12
-36.90
-31.40
-31.83
-38.88
-50.62
-64.24
-75.44
-79.96
-74.95
-59.72
-36.52
-10.06
13.77
30.84
33.54
20.67
0.51
-13.93
-13.02
3.74
27.87
46.61
49.51
32.58
1.30
-32.81
-58.13
-67.72
-61.49
-44.33
-24.21
-3.44
17.86
41.22
66.56
89.92
104.63
105.07
90.60
67.29
45.69
35.21
40.27
57.93
78.96
92.07
88.92
66.05
26.61
-22.26
-73.65
-122.10
-163.18
-191.99
-202.48
-189.08
-150.28
-91.60
-25.85
30.50
64.05
69.91
52.69
22.93
-8.98
-37.25
-61.21
-82.33
-100.29
-110.79
-107.25
-84.93
-44.69
6.09
55.87
93.74
113.18
113.55
99.15
76.24
50.33
24.83
1.24
-19.72
-36.96
-48.96
-54.44
-53.35
-47.38
-39.60
-33.33
-30.79
-32.24
-35.96
-39.15
-39.21
-34.81
-26.34
-15.57
-4.85
3.86
9.66
12.89
14.69
16.41
18.90
22.23
25.79
28.65
30.10
29.91
28.42
26.30
24.23
22.68
21.85
21.78
22.53
24.22
26.82
30.05
33.19
35.28
35.48
33.51
29.83
25.52
21.77
19.27
17.91
16.83
14.87
11.14
5.49
-1.39
-8.36
-14.28
-18.43
-20.63
-21.06
-20.04
-17.80
-14.47
-10.27
-5.78
-2.04
-0.55
-2.72
-9.17
-19.10
-30.14
-39.05
-42.98
-40.92
-34.23
-26.12
-20.00
-17.68
-18.37
-19.08
-16.29
-8.02
5.07
19.98
32.86
40.98
43.75
42.59
39.80
37.29
36.03
36.13
37.40
39.78
43.02
46.02
46.49
41.57
29.39
10.55
-11.59
-32.06
-46.60
-53.87
-56.29
-58.42
-64.23
-74.18
-84.40
-88.22
-78.89
-52.44
-9.81
42.58
94.47
134.44
153.44
147.23
116.73
67.65
9.35
-47.58
-93.85
-123.26
-133.96
-127.63
-109.01
-85.66
-65.35
-52.87
-48.36
-47.86
-44.38
-32.62
-8.61
27.22
68.38
104.99
128.12
132.89
119.16
91.15
54.85
13.60
-25.55
-57.05
-80.05
-96.37
-106.47
-110.07
-103.56
-84.15
-49.39
0.23
60.32
122.60
177.26
216.34
234.94
233.22
204.69
155.44
100.43
52.57
15.51
-13.83
-38.36
-58.33
-71.79
-78.07
-76.39
-68.45
-57.67
-46.34
-34.16
-17.62
3.62
26.83
46.95
60.64
65.68
60.90
46.59
24.43
-0.94
-27.14
-51.18
-71.01
-85.72
-96.43
-104.57
-105.72
-96.68
-75.51
-44.43
-9.44
21.64
42.34
48.93
42.63
28.12
10.09
-6.79
-19.88
-26.58
-23.92
-10.26
12.00
38.35
62.20
74.44
68.62
43.28
2.99
-41.96
-80.76
-103.97
-103.66
-76.83
-29.59
28.12
86.73
133.08
161.05
179.87
189.98
193.56
197.56
198.57
192.37
177.27
150.07
112.73
68.45
17.06
-39.13
-94.12
-143.56
-180.60
-196.35
-183.97
-142.70
-68.69
19.59
83.79
111.45
102.62
63.10
4.95
-57.73
-114.23
-158.94
-193.04
-217.10
-228.53
-227.10
-212.89
-186.89
-153.15
-121.30
-102.02
-103.67
-125.53
-158.05
-191.18
-217.18
-232.93
-225.09
-191.04
-140.47
-90.37
-51.41
-23.71
-3.66
12.68
28.73
48.65
73.64
103.63
136.13
166.94
191.17
204.48
208.58
204.93
195.99
180.67
156.66
122.61
80.87
37.76
1.63
-20.01
-23.71
-8.80
16.96
42.72
60.13
66.69
64.71
58.94
53.64
50.63
49.95
49.48
47.75
44.77
41.31
37.50
32.28
23.58
9.66
-9.04
-30.21
-49.86
-64.12
-70.82
-70.97
-65.92
-57.73
-48.21
-38.29
-28.66
-19.74
-12.08
-6.00
-1.33
2.97
7.98
14.15
20.99
26.77
29.62
27.87
20.97
9.94
-2.63
-13.66
-20.76
-23.07
-21.78
-19.33
-19.61
-25.32
-37.78
-55.24
-73.28
-86.41
-89.85
-81.18
-60.47
-32.03
-2.39
21.82
36.21
41.18
40.43
39.71
44.71
59.67
83.63
111.62
136.68
152.01
153.94
142.89
123.18
94.35
65.24
45.18
39.66
47.54
61.18
70.63
67.11
46.15
9.28
-34.58
-77.56
-111.92
-132.46
-139.45
-136.96
-130.66
-124.78
-120.38
-114.77
-105.33
-90.75
-65.48
-31.28
4.89
34.14
50.62
53.70
47.23
35.50
22.18
9.59
-2.04
-12.62
-21.48
-27.47
-29.69
-27.77
-22.76
-16.38
-10.85
-8.74
-11.23
-17.62
-25.90
-33.90
-40.10
-45.01
-49.32
-53.84
-59.06
-64.12
-67.26
-66.87
-62.64
-55.35
-47.03
-39.63
-34.45
-31.95
-31.71
-32.70
-33.77
-33.70
-30.85
-24.11
-12.78
3.37
23.92
47.87
73.80
100.36
121.69
133.92
134.76
125.00
108.94
93.17
84.00
84.81
94.59
109.05
121.79
125.80
117.08
96.58
69.44
42.33
20.72
6.94
1.00
-0.38
-3.14
-12.23
-28.65
-49.42
-69.25
-82.22
-83.07
-66.58
-31.76
16.07
67.53
112.75
143.70
155.56
147.68
111.57
53.41
-7.47
-54.65
-84.83
-102.68
-112.65
-116.42
-113.98
-105.97
-93.20
-79.30
-70.49
-71.61
-83.63
-102.32
-122.42
-139.21
-148.99
-147.48
-132.23
-105.07
-71.34
-37.27
-9.03
8.09
11.28
1.87
-17.52
-39.13
-55.24
-60.89
-53.36
-31.93
2.29
46.78
98.20
152.26
201.95
236.41
244.60
222.42
175.51
117.80
66.02
34.74
31.99
57.08
100.67
140.24
154.43
136.87
100.16
61.68
32.18
13.79
3.39
-3.87
-11.08
-15.57
-13.83
-2.88
15.83
36.94
53.66
60.32
53.76
34.56
7.65
-22.30
-49.57
-72.04
-90.28
-104.89
-114.63
-117.17
-111.21
-98.65
-86.06
-82.59
-96.36
-128.70
-171.78
-211.28
-233.01
-229.24
-201.39
-158.39
-111.51
-69.73
-36.42
-9.78
14.16
38.04
61.60
82.10
96.25
102.52
101.28
94.61
85.24
75.55
66.98
60.12
54.94
50.91
47.02
41.49
32.27
17.76
-2.20
-25.85
-49.57
-68.79
-79.40
-78.98
-67.66
-47.94
-23.76
0.69
21.97
37.83
47.19
49.83
46.19
37.26
24.51
9.76
-5.14
-18.29
-27.71
-31.12
-26.28
-11.67
12.41
43.02
74.82
101.24
116.55
117.63
104.93
81.95
53.97
26.24
2.73
-14.44
-24.92
-29.52
-29.64
-26.81
-22.38
-17.48
-12.98
-9.41
-6.89
-5.14
-3.52
-1.33
1.88
6.19
11.18
16.16
20.35
23.15
24.32
24.08
23.00
21.75
20.80
20.15
19.29
17.49
14.21
9.35
3.40
-2.92
-8.97
-14.44
-19.29
-23.52
-27.02
-29.48
-30.60
-30.25
-28.62
-26.15
-23.37
-20.85
-19.09
-18.45
-19.01
-20.56
-22.47
-23.90
-24.04
-22.44
-19.14
-14.62
-9.58
-4.60
-0.02
4.09
7.81
11.24
14.39
17.19
19.55
21.34
22.56
23.25
23.50
23.34
22.73
21.55
19.63
16.88
13.40
9.47
5.54
2.08
-0.52
-2.10
-2.65
-2.41
-1.74
-1.03
-0.71
-1.08
-2.22
-3.88
-5.50
-6.30
-5.62
-3.16
0.73
5.08
8.58
10.00
8.69
4.75
-1.01
-7.41
-13.36
-18.09
-21.33
-23.21
-24.14
-24.67
-25.39
-26.75
-28.90
-31.49
-33.68
-34.39
-32.63
-28.00
-20.77
-11.89
-2.57
6.00
12.99
17.94
20.75
21.65
21.06
19.61
17.89
16.40
15.35
14.69
14.18
13.49
12.49
11.18
9.83
8.77
8.38
8.83
10.09
11.81
13.47
14.55
14.71
13.88
12.23
10.04
7.63
5.22
2.96
0.86
-1.07
-2.92
-4.74
-6.56
-8.37
-10.09
-11.60
-12.80
-13.67
-14.31
-14.91
-15.71
-16.92
-18.60
-20.60
-22.55
-23.87
-24.05
-22.75
-19.94
-15.94
-11.23
-6.38
-1.81
2.16
5.42
7.98
9.92
11.39
12.56
13.53
14.32
14.91
15.14
14.93
14.22
13.11
11.81
10.60
9.71
9.29
9.30
9.53
9.71
9.61
9.12
8.27
7.20
6.02
4.82
3.59
2.29
0.87
-0.63
-2.16
-3.61
-4.91
-6.05
-7.10
-8.16
-9.35
-10.74
-12.35
-14.17
-16.14
-18.21
-20.27
-22.13
-23.44
-23.82
-22.92
-20.60
-16.98
-12.44
-7.51
-2.66
1.78
5.63
8.84
11.40
13.30
14.57
15.27
15.50
15.38
15.03
14.54
13.98
13.41
12.88
12.38
11.87
11.29
10.62
9.92
9.29
8.81
8.46
8.11
7.56
6.64
5.36
3.87
2.42
1.25
0.44
-0.16
-0.83
-1.92
-3.61
-5.92
-8.66
-11.54
-14.25
-16.56
-18.45
-20.07
-21.69
-23.58
-25.93
-28.62
-31.25
-33.10
-33.34
-31.24
-26.49
-19.40
-10.89
-2.23
5.37
11.14
14.93
17.15
18.43
19.33
20.04
20.49
20.45
19.82
18.72
17.50
16.58
16.29
16.72
17.70
18.78
19.38
18.96
17.25
14.41
11.01
7.89
5.87
5.54
7.04
10.14
14.31
18.97
23.56
27.55
30.47
31.89
31.49
29.20
25.26
20.27
15.01
10.22
6.37
3.45
1.06
-1.49
-4.82
-9.30
-14.91
-21.26
-27.68
-33.39
-37.74
-40.27
-40.82
-39.57
-36.86
-33.15
-28.85
-24.35
-19.94
-15.81
-12.04
-8.59
-5.37
-2.29
0.63
3.24
5.37
6.85
7.65
7.89
7.80
7.55
7.36
7.29
7.42
7.75
8.23
8.77
9.23
9.48
9.39
9.00
8.41
7.87
7.64
7.93
8.78
10.05
11.45
12.62
13.32
13.47
13.21
12.75
12.29
11.89
11.41
10.64
9.32
7.28
4.52
1.26
-2.13
-5.17
-7.40
-8.51
-8.38
-7.14
-5.06
-2.50
0.17
2.64
4.71
6.32
7.43
8.09
8.31
8.09
7.41
6.31
4.91
3.44
2.15
1.18
0.50
-0.09
-0.82
-1.75
-2.77
-3.60
-3.99
-3.89
-3.50
-3.20
-3.35
-4.14
-5.49
-7.18
-8.95
-10.68
-12.36
-14.08
-15.82
-17.43
-18.63
-19.14
-18.84
-17.90
-16.71
-15.85
-15.82
-16.88
-19.00
-21.83
-24.86
-27.49
-29.14
-29.41
-28.03
-25.07
-20.82
-15.86
-10.84
-6.33
-2.71
-0.03
1.88
3.34
4.58
5.70
6.62
7.21
7.42
7.33
7.13
6.98
6.95
6.90
6.63
5.97
4.94
3.71
2.54
1.64
1.04
0.67
0.40
0.13
-0.12
-0.33
-0.50
-0.68
-0.97
-1.42
-2.03
-2.72
-3.41
-4.04
-4.64
-5.25
-5.93
-6.72
-7.65
-8.82
-10.33
-12.22
-14.35
-16.39
-17.86
-18.29
-17.45
-15.37
-12.36
-8.84
-5.14
-1.43
2.23
5.84
9.30
12.39
14.87
16.50
17.23
17.16
16.52
15.54
14.43
13.29
12.12
10.96
9.83
8.85
8.18
7.94
8.15
8.67
9.28
9.69
9.70
9.29
8.54
7.65
6.74
5.85
4.90
3.78
2.45
0.96
-0.59
-2.16
-3.78
-5.55
-7.50
-9.50
-11.27
-12.52
-13.12
-13.22
-13.21
-13.51
-14.35
-15.63
-16.93
-17.76
-17.72
-16.65
-14.61
-11.79
-8.35
-4.48
-0.39
3.68
7.39
10.48
12.75
14.14
14.70
14.53
13.77
12.56
11.13
9.71
8.54
7.79
7.52
7.64
8.00
8.43
8.80
9.03
9.07
8.85
8.33
7.47
6.37
5.18
4.10
3.29
2.77
2.41
1.97
1.24
0.11
-1.35
-2.92
-4.37
-5.55
-6.45
-7.24
-8.16
-9.49
-11.45
-14.07
-17.11
-20.08
-22.27
-22.97
-21.79
-18.75
-14.34
-9.33
-4.46
-0.19
3.35
6.34
8.99
11.46
13.77
15.87
17.69
19.17
20.16
20.44
19.78
18.09
15.55
12.58
9.78
7.62
6.28
5.62
5.31
4.96
4.37
3.52
2.48
1.38
0.26
-0.93
-2.25
-3.72
-5.25
-6.76
-8.14
-9.41
-10.63
-11.89
-13.21
-14.49
-15.53
-16.18
-16.44
-16.49
-16.64
-17.07
-17.73
-18.30
-18.29
-17.31
-15.19
-12.08
-8.31
-4.28
-0.33
3.35
6.65
9.51
11.84
13.55
14.52
14.73
14.21
13.14
11.77
10.38
9.20
8.29
7.63
7.12
6.70
6.34
6.06
5.84
5.64
5.37
4.94
4.36
3.70
3.01
2.34
1.67
0.93
0.10
-0.79
-1.72
-2.66
-3.59
-4.54
-5.47
-6.30
-6.90
-7.21
-7.24
-7.15
-7.25
-7.87
-9.21
-11.26
-13.78
-16.31
-18.34
-19.43
-19.28
-17.80
-15.11
-11.48
-7.31
-3.07
0.81
3.94
6.10
7.35
7.95
8.21
8.42
8.68
8.93
9.05
8.89
8.37
7.54
6.56
5.63
4.88
4.37
4.05
3.77
3.26
2.33
1.01
-0.45
-1.66
-2.30
-2.26
-1.54
-0.54
0.15
0.07
-0.79
-2.01
-2.94
-3.04
-2.03
0.27
3.40
6.44
8.45
9.10
8.82
8.44
8.79
10.46
14.07
19.33
25.36
31.33
37.21
43.85
52.23
62.80
75.47
90.28
106.52
122.71
136.75
146.30
149.17
143.47
128.31
101.52
67.76
37.13
18.79
15.05
21.97
34.13
47.43
60.02
71.62
83.02
92.89
100.33
104.33
104.53
102.14
98.94
96.41
94.97
94.16
91.79
84.46
73.28
58.91
43.00
27.14
12.36
-1.52
-15.69
-32.39
-53.74
-80.75
-113.23
-149.33
-186.84
-223.40
-257.26
-287.83
-316.00
-343.77
-373.57
-407.68
-446.26
-486.90
-522.96
-545.50
-546.82
-523.58
-478.00
-416.77
-348.58
-280.55
-217.04
-157.69
-99.82
-41.59
16.50
72.04
122.28
165.30
205.38
239.18
261.63
271.16
270.39
263.09
252.14
239.29
225.50
211.10
195.21
178.15
161.06
145.21
131.89
122.25
116.94
115.72
116.78
116.86
114.29
108.61
99.92
88.71
75.47
60.78
45.38
29.52
13.20
-2.38
-15.07
-22.42
-21.48
-9.79
13.51
46.46
82.91
113.98
131.75
132.01
112.27
75.94
30.63
-15.24
-50.65
-68.79
-70.73
-62.86
-51.62
-40.23
-28.56
-15.83
-2.31
10.48
20.04
24.69
24.65
21.82
18.52
16.69
16.88
17.95
18.51
16.79
11.61
3.08
-7.55
-18.90
-29.84
-39.83
-48.54
-55.52
-59.77
-59.96
-54.91
-44.38
-29.57
-12.89
2.59
16.81
28.28
36.46
42.07
46.66
51.74
57.41
62.23
63.65
59.53
49.21
34.40
17.67
0.28
-19.25
-44.30
-77.65
-118.86
-163.39
-204.54
-236.01
-254.65
-260.96
-257.51
-246.41
-228.11
-201.83
-167.32
-126.46
-82.68
-39.28
2.54
44.26
88.39
135.59
182.14
220.07
240.12
236.46
210.52
171.45
132.71
106.27
97.86
105.87
124.32
147.73
174.56
206.61
245.31
287.76
325.78
348.78
348.73
323.96
279.61
224.66
167.31
111.74
57.81
3.28
-53.15
-110.05
-163.47
-208.71
-242.25
-262.74
-270.99
-269.63
-262.44
-253.79
-248.51
-251.33
-265.68
-292.23
-327.71
-365.22
-395.78
-410.48
-402.68
-369.63
-313.99
-243.75
-171.02
-109.10
-68.24
-51.79
-54.35
-64.12
-68.24
-59.07
-36.14
-3.95
31.90
67.74
101.82
132.94
158.74
176.60
185.45
188.96
195.60
213.70
245.67
284.68
317.84
332.54
322.45
288.11
235.84
174.25
109.95
46.28
-16.07
-75.51
-130.89
-173.82
-198.64
-208.33
-210.24
-212.94
-215.27
-212.21
-197.12
-165.76
-116.77
-57.35
1.52
51.06
86.62
108.25
118.78
124.24
129.44
137.09
147.29
160.22
179.27
207.36
243.86
281.88
312.07
323.83
310.79
274.26
223.59
174.12
137.63
117.57
94.86
58.94
11.96
-35.16
-68.67
-94.81
-121.72
-155.04
-195.37
-234.76
-258.92
-257.24
-228.37
-181.17
-130.10
-86.54
-56.54
-40.26
-34.71
-34.76
-37.31
-40.59
-42.70
-40.90
-31.22
-11.45
17.77
52.69
89.08
122.53
150.33
171.11
183.94
187.60
180.13
160.61
129.53
90.73
50.61
17.39
-4.55
-9.63
2.35
24.77
49.41
68.71
79.82
78.86
63.43
33.79
-6.60
-52.87
-98.95
-132.58
-143.41
-130.06
-101.37
-68.99
-40.78
-18.97
-2.66
7.12
12.20
12.59
7.55
-3.82
-21.71
-45.92
-77.16
-112.63
-150.70
-187.08
-216.48
-233.84
-236.57
-225.25
-203.08
-175.29
-147.65
-126.30
-114.02
-111.06
-115.89
-126.39
-140.01
-152.29
-158.76
-147.54
-115.43
-69.55
-23.54
11.45
31.23
37.53
37.21
36.78
40.69
47.31
54.00
59.64
65.29
73.39
86.35
108.74
143.83
187.10
231.55
270.79
301.33
322.64
335.91
327.23
291.46
234.61
170.58
111.85
63.92
25.51
-8.99
-45.93
-89.07
-134.00
-171.67
-192.96
-193.07
-173.59
-141.11
-105.55
-73.32
-49.21
-34.13
-28.34
-32.62
-47.41
-71.16
-98.81
-123.04
-136.72
-135.86
-119.00
-88.36
-48.52
-4.03
40.13
81.36
119.33
154.53
186.08
211.63
226.98
227.55
210.64
176.71
129.37
73.38
13.22
-47.20
-102.65
-145.69
-167.46
-160.95
-125.13
-67.25
-1.95
53.35
84.57
85.97
61.52
22.40
-17.86
-48.22
-62.44
-59.39
-41.41
-12.43
23.32
61.57
97.67
126.47
142.85
143.27
127.16
97.52
60.19
21.74
-12.95
-42.16
-67.16
-90.60
-114.38
-138.55
-161.56
-181.65
-197.94
-210.47
-219.12
-222.42
-217.34
-200.73
-171.80
-133.89
-94.29
-61.92
-43.82
-42.60
-55.58
-76.39
-97.31
-111.54
-114.37
-103.20
-77.04
-36.16
17.71
81.07
148.47
213.00
267.67
307.17
329.35
335.67
330.33
318.30
303.29
286.14
264.56
234.43
192.30
138.14
77.00
18.70
-24.95
-44.40
-36.52
-6.98
30.86
60.34
67.64
46.87
1.96
-55.28
-109.73
-148.20
-163.21
-153.82
-123.88
-79.25
-26.11
29.43
81.03
122.54
148.87
156.86
146.11
119.53
82.75
42.35
4.12
-28.26
-52.69
-69.00
-79.96
-91.71
-110.98
-141.84
-182.74
-226.29
-261.78
-278.27
-268.46
-231.34
-172.21
-98.88
-18.92
60.89
133.82
186.77
204.54
181.99
130.84
71.65
21.97
-10.76
-27.76
-33.89
-32.76
-23.21
-2.35
33.07
81.28
136.54
190.63
235.74
265.88
276.86
267.95
240.31
196.73
136.09
63.97
-10.06
-74.93
-121.99
-148.90
-158.75
-160.55
-165.37
-182.07
-212.58
-251.87
-290.18
-317.38
-327.36
-317.25
-289.41
-248.39
-198.84
-143.53
-84.20
-23.37
38.86
89.12
122.49
134.58
124.49
95.72
55.90
14.63
-20.42
-45.88
-63.38
-75.44
-85.81
-95.69
-101.89
-97.94
-76.90
-37.15
15.17
67.35
106.72
124.08
118.92
100.50
81.10
75.43
89.99
115.67
132.93
127.49
99.15
61.71
35.32
30.86
48.90
80.29
112.15
135.27
148.77
158.16
167.79
180.00
192.54
200.07
195.63
174.38
136.80
89.19
40.82
0.26
-27.14
-40.44
-41.58
-34.76
-25.19
-17.91
-16.95
-24.74
-41.26
-63.38
-85.21
-99.06
-98.05
-78.18
-39.32
14.86
77.51
139.25
188.59
214.59
210.24
175.15
116.04
44.47
-27.13
-89.76
-140.29
-182.36
-222.34
-265.12
-311.25
-357.35
-398.34
-429.15
-445.32
-443.19
-422.33
-385.39
-337.83
-287.20
-242.19
-211.02
-198.74
-205.49
-211.34
-198.07
-157.76
-98.36
-36.78
13.20
46.92
68.62
87.50
110.57
142.34
180.65
219.09
250.76
270.78
277.61
273.17
261.96
244.60
222.49
195.96
164.76
129.26
91.06
53.07
18.95
-7.85
-25.41
-34.24
-37.82
-40.41
-44.70
-50.76
-56.32
-58.38
-55.10
-46.77
-34.97
-21.97
-9.27
3.16
16.25
30.88
46.74
61.87
73.72
81.06
84.30
84.96
84.77
84.40
83.36
79.54
69.52
50.17
20.71
-16.35
-56.15
-92.66
-120.51
-135.71
-135.58
-121.24
-99.73
-79.99
-66.50
-58.43
-50.15
-39.88
-28.34
-17.05
-6.66
4.87
19.67
42.28
75.98
120.65
171.67
221.55
261.69
285.00
288.34
273.92
248.52
219.71
193.07
170.39
150.71
131.63
110.85
87.38
62.11
37.83
18.04
6.34
5.14
14.41
30.10
43.88
45.32
26.03
-16.09
-75.51
-139.92
-195.00
-229.64
-239.42
-226.31
-195.80
-153.33
-102.67
-47.15
9.88
63.13
105.30
128.98
129.94
109.22
73.24
31.39
-7.95
-38.10
-56.45
-65.79
-73.70
-89.35
-120.02
-167.45
-227.10
-289.74
-341.71
-369.73
-365.51
-327.98
-262.15
-176.96
-82.70
14.37
96.62
146.49
158.45
141.86
112.95
87.85
74.24
75.95
93.40
123.27
162.19
205.07
245.78
278.19
298.36
305.73
303.46
295.76
284.79
271.31
253.55
227.31
187.61
132.03
63.43
-9.00
-72.53
-115.35
-130.22
-118.48
-91.12
-65.57
-58.31
-78.13
-122.35
-178.87
-231.64
-266.53
-275.93
-259.65
-222.95
-172.12
-113.06
-52.11
2.39
40.76
54.80
40.69
0.99
-56.69
-121.08
-181.34
-230.42
-266.08
-288.80
-299.98
-301.21
-294.11
-281.00
-262.11
-235.46
-197.76
-146.41
-80.89
-4.20
76.05
152.40
208.46
230.49
218.17
184.92
147.22
115.56
92.60
76.35
65.43
61.34
69.23
92.23
129.06
171.17
206.75
226.83
228.80
216.62
197.26
178.00
162.52
149.56
134.19
110.03
75.59
33.52
-10.70
-50.95
-81.13
-96.67
-95.93
-81.30
-58.58
-35.51
-20.08
-17.96
-30.54
-53.81
-79.87
-99.90
-107.44
-99.97
-78.79
-48.04
-12.91
21.71
51.94
74.59
86.44
84.04
64.42
26.38
-28.33
-94.45
-163.72
-226.70
-275.37
-305.52
-317.94
-317.57
-311.06
-303.53
-296.27
-286.31
-268.22
-236.92
-190.15
-129.74
-61.16
7.83
68.91
115.14
142.54
151.42
146.48
135.69
127.67
128.80
141.40
163.66
191.33
219.90
245.96
267.22
281.66
287.14
281.96
266.14
242.43
215.99
192.65
176.61
168.66
165.77
162.18
151.56
129.48
95.42
53.51
11.51
-21.80
-40.11
-42.46
-34.26
-25.48
-26.46
-43.31
-74.99
-113.61
-147.84
-167.67
-168.04
-149.90
-118.43
-80.14
-40.46
-2.98
29.93
56.02
72.69
77.73
70.57
53.20
29.90
5.76
-15.22
-31.63
-45.07
-59.53
-79.65
-108.77
-147.03
-190.51
-231.58
-260.79
-269.92
-255.10
-218.76
-169.07
-117.11
-72.52
-40.05
-18.31
-1.75
15.45
35.81
57.19
74.66
84.08
85.38
83.22
84.66
95.16
115.48
141.10
164.80
180.64
186.93
186.80
186.01
189.42
198.12
208.56
213.86
206.74
182.72
142.53
92.66
43.73
7.02
-9.55
-4.53
16.26
41.62
58.98
58.73
37.43
-1.47
-49.34
-95.57
-130.86
-149.39
-149.48
-132.81
-103.20
-65.38
-24.49
14.15
45.26
64.16
67.81
55.53
29.38
-6.19
-45.17
-81.10
-108.42
-124.11
-129.15
-128.94
-131.64
-144.60
-169.93
-201.88
-227.92
-233.90
-211.04
-160.97
-96.07
-34.86
5.41
15.03
-5.44
-46.45
-93.63
-132.50
-152.12
-146.81
-116.20
-64.20
2.64
76.65
150.27
216.66
270.17
306.66
324.27
324.05
310.23
289.36
268.00
