1.594043417000000000e+09
-2.999999999999999889e-02
5.059999999999999609e+00
1.791000000000000014e+01
7.934000000000000341e+01
2.282500000000000000e+02
-4.865000000000000000e+02
-5.900000000000000355e+00
1.561500000000000057e+02
4.678000000000000114e+01
4.049999999999999822e+00
8.999999999999999667e-02
3.099999999999999978e-01
1.139999999999999902e+00
5.339999999999999858e+00
1.267999999999999972e+01
-6.542000000000000171e+01
-5.134000000000000341e+01
1.964999999999999858e+01
2.812999999999999901e+01
-4.634000000000000341e+01
-1.172300000000000040e+02
1.869999999999999929e+01
6.654999999999999716e+01
-9.876000000000000512e+01
7.443000000000000682e+01
2.476999999999999957e+01
6.404999999999999716e+01
-6.139999999999999858e+01
-1.398199999999999932e+02
2.017999999999999972e+01
4.278799999999999955e+02
1.239000000000000057e+02
-2.260900000000000034e+02
-5.031000000000000227e+01
-8.862000000000000455e+01
1.051500000000000057e+02
1.020900000000000034e+02
5.128999999999999915e+01
-5.480000000000000426e+00
-6.232999999999999829e+01
7.509999999999999432e+01
2.553000000000000114e+01
-8.450000000000000000e+01
-1.798000000000000043e+01
5.169999999999999929e+00
-4.350000000000000000e+01
3.539999999999999858e+01
4.199999999999999845e-01
3.860000000000000142e+01
7.290000000000000036e+00
-7.748999999999999488e+01
-6.487999999999999545e+01
1.064099999999999966e+02
1.649999999999999911e+00
-2.783999999999999986e+01
8.404999999999999716e+01
-5.753999999999999915e+01
-9.554999999999999716e+01
2.726399999999999864e+02
-1.331599999999999966e+02
-2.821000000000000085e+01
-2.256999999999999886e+02
1.455800000000000125e+02
2.203499999999999943e+02
-2.922400000000000091e+02
3.713000000000000256e+01
1.701000000000000156e+01
2.130999999999999943e+02
-1.640900000000000034e+02
-6.770999999999999375e+01
-9.770999999999999375e+01
8.812000000000000455e+01
1.911999999999999886e+02
-1.783899999999999864e+02
-1.071400000000000006e+02
4.011999999999999744e+01
2.983700000000000045e+02
8.919999999999999929e+00
-1.954600000000000080e+02
3.041000000000000014e+01
6.317000000000000171e+01
1.199500000000000028e+02
-1.715200000000000102e+02
-1.642100000000000080e+02
5.296100000000000136e+02
-1.339699999999999989e+02
-2.521000000000000085e+01
-4.979999999999999716e+01
4.828000000000000114e+01
-2.728999999999999915e+01
6.167999999999999972e+01
-5.610999999999999943e+01
-6.971999999999999886e+01
5.121000000000000085e+01
9.100000000000000311e-01
-1.444999999999999929e+01
-4.500000000000000000e+01
8.348000000000000398e+01
3.474000000000000199e+01
-1.439999999999999947e+00
1.919999999999999929e+01
-1.518000000000000114e+02
-1.027399999999999949e+02
6.598000000000000398e+01
1.301999999999999957e+01
2.399999999999999911e-01
-7.684999999999999432e+01
1.488499999999999943e+02
1.116000000000000014e+01
-1.233299999999999983e+02
-3.450000000000000000e+01
2.063799999999999955e+02
1.522199999999999989e+02
-2.373400000000000034e+02
-2.044999999999999929e+01
1.241899999999999977e+02
4.328999999999999915e+01
-1.350000000000000089e+00
-6.440000000000000391e+00
-5.349999999999999645e+00
9.599999999999999645e+00
-1.094999999999999929e+01
-1.344999999999999929e+01
1.125000000000000000e+01
5.209999999999999964e+00
-1.272000000000000064e+01
1.119999999999999929e+01
1.623000000000000043e+01
-1.085999999999999943e+01
-5.190000000000000391e+00
4.200000000000000178e+00
4.849999999999999645e+00
4.225000000000000000e+01
-1.228299999999999983e+02
-7.379000000000000625e+01
-8.851999999999999602e+01
-1.552999999999999936e+01
4.442000000000000171e+01
-1.851999999999999957e+01
9.000000000000000000e+00
4.250000000000000000e+00
1.083999999999999986e+01
-6.830000000000000071e+00
-3.999000000000000199e+01
3.609999999999999876e+00
2.000000000000000000e+00
1.623000000000000043e+01
5.078999999999999915e+01
-2.631700000000000159e+02
1.507700000000000102e+02
1.383000000000000007e+01
1.275499999999999972e+02
9.717000000000000171e+01
-2.227100000000000080e+02
-1.441000000000000014e+01
-4.888000000000000256e+01
5.657799999999999727e+02
-1.780000000000000000e+02
-1.299000000000000021e+01
-1.304600000000000080e+02
-1.130000000000000000e+02
-3.970899999999999750e+02
2.149099999999999966e+02
8.084199999999999591e+02
-5.551799999999999500e+02
2.439600000000000080e+02
-9.028000000000000114e+01
-2.679399999999999977e+02
1.292800000000000011e+02
1.283000000000000114e+02
-4.019999999999999574e+00
-9.928000000000000114e+01
-2.358999999999999986e+01
-1.584999999999999964e+01
3.445000000000000284e+01
5.267999999999999972e+01
-4.695000000000000284e+01
-5.339000000000000057e+01
-7.320000000000000284e+01
-1.308000000000000007e+01
5.136999999999999744e+01
-6.860000000000000320e+00
-3.900999999999999801e+01
-2.519000000000000128e+01
2.289000000000000057e+01
2.868899999999999864e+02
-8.184000000000000341e+01
-5.230000000000000426e+00
-1.899000000000000057e+02
-1.630600000000000023e+02
2.270900000000000034e+02
-1.207999999999999972e+02
-2.474699999999999989e+02
2.775000000000000000e+02
6.178000000000000114e+01
-1.633499999999999943e+02
-4.874000000000000199e+01
3.298000000000000114e+02
-4.790000000000000036e+00
8.029999999999999361e+00
2.192000000000000171e+01
-5.753000000000000114e+01
-7.921999999999999886e+01
1.643700000000000045e+02
1.028299999999999983e+02
-1.306399999999999864e+02
7.323999999999999488e+01
6.450000000000000000e+01
-3.005999999999999872e+01
-1.707000000000000028e+01
7.910000000000000142e+00
-5.480000000000000426e+00
4.080000000000000071e+00
-2.242999999999999972e+01
-2.689999999999999947e+00
5.969999999999999751e+00
-3.169000000000000128e+01
5.400000000000000355e-01
1.090400000000000063e+02
3.735999999999999943e+01
-9.914000000000000057e+01
-2.514000000000000057e+01
1.171000000000000085e+01
-3.542000000000000171e+01
-1.792000000000000171e+01
1.978000000000000114e+01
1.439000000000000057e+01
4.047999999999999687e+01
2.194000000000000128e+01
-4.877000000000000313e+01
-1.051400000000000006e+02
-1.558899999999999864e+02
1.225799999999999983e+02
-6.168999999999999773e+01
1.333000000000000007e+01
-9.162000000000000455e+01
8.065999999999999659e+01
6.830000000000000071e+00
-2.432000000000000028e+01
-1.159999999999999964e+01
2.201999999999999957e+01
-1.149000000000000021e+01
-1.896599999999999966e+02
2.859200000000000159e+02
-3.931000000000000227e+01
2.876000000000000156e+01
-1.080199999999999960e+02
-2.327800000000000011e+02
2.551000000000000156e+01
9.480000000000000426e+00
4.174000000000000199e+01
1.459999999999999964e+00
9.385999999999999943e+01
-2.127700000000000102e+02
-1.230600000000000023e+02
4.268999999999999773e+01
2.122899999999999920e+02
-1.413100000000000023e+02
-3.778000000000000114e+01
-1.407599999999999909e+02
-5.872999999999999687e+01
1.485200000000000102e+02
-1.333600000000000136e+02
1.484799999999999898e+02
-2.361999999999999886e+02
-4.299999999999999933e-01
2.056500000000000057e+02
-1.510699999999999932e+02
-8.573000000000000398e+01
1.305200000000000102e+02
-8.634999999999999432e+01
-4.328999999999999915e+01
-1.038400000000000034e+02
-7.748000000000000398e+01
1.139599999999999937e+02
-5.985000000000000142e+01
-7.299999999999999822e-01
3.290999999999999659e+01
1.580200000000000102e+02
-3.507000000000000028e+01
-5.360999999999999943e+01
-1.172099999999999937e+02
8.634999999999999432e+01
-2.778000000000000114e+01
-5.411999999999999744e+01
1.081000000000000050e+01
-3.982000000000000028e+01
-1.989999999999999858e+01
1.064000000000000057e+01
-6.820999999999999375e+01
3.224000000000000199e+01
-5.000000000000000000e+00
5.174000000000000199e+01
-9.310999999999999943e+01
-4.643999999999999773e+01
8.790000000000000568e+01
2.000000000000000000e+01
-1.428199999999999932e+02
-1.862999999999999901e+01
1.657000000000000028e+01
-6.468000000000000682e+01
3.275000000000000000e+01
-8.164000000000000057e+01
2.549499999999999886e+02
-3.710000000000000142e+01
6.720000000000000284e+01
-8.949999999999999289e+00
4.553999999999999915e+01
8.559999999999999432e+01
-1.537700000000000102e+02
-5.886999999999999744e+01
-2.020699999999999932e+02
6.731999999999999318e+01
2.153999999999999915e+01
8.293999999999999773e+01
1.379499999999999886e+02
7.112000000000000455e+01
-1.832299999999999898e+02
3.800000000000000000e+01
-8.700000000000000000e+01
5.054999999999999716e+01
-9.942000000000000171e+01
5.306000000000000227e+01
-1.296899999999999977e+02
2.369900000000000091e+02
-7.879000000000000625e+01
-7.534000000000000341e+01
1.049000000000000057e+02
-1.559099999999999966e+02
-8.785999999999999943e+01
-9.354000000000000625e+01
2.460000000000000000e+02
8.320000000000000284e+01
1.703999999999999915e+01
-9.281999999999999318e+01
-1.684900000000000091e+02
-5.032000000000000028e+01
8.776000000000000512e+01
5.007999999999999829e+01
1.394999999999999929e+01
7.839999999999999858e+00
1.325999999999999979e+01
1.324000000000000021e+01
-1.586999999999999922e+01
-1.380000000000000071e+01
1.266999999999999993e+01
-1.020000000000000018e+00
-1.782000000000000028e+01
1.673999999999999844e+01
-1.065199999999999960e+02
2.508999999999999986e+01
7.839999999999999858e+00
-1.025999999999999979e+01
1.191999999999999993e+01
2.830000000000000071e+00
-7.199999999999999734e-01
9.269999999999999574e+00
-3.332999999999999829e+01
-4.550000000000000000e+01
8.089999999999999858e+00
1.742000000000000171e+01
6.504000000000000625e+01
7.243999999999999773e+01
1.536999999999999922e+01
-2.999900000000000091e+02
1.692100000000000080e+02
-1.004300000000000068e+02
-2.372800000000000011e+02
3.400999999999999801e+01
1.434399999999999977e+02
-1.060499999999999972e+02
1.612000000000000099e+01
4.679999999999999716e+00
4.249000000000000199e+01
1.488000000000000078e+01
1.315900000000000034e+02
-5.261999999999999744e+01
-3.149399999999999977e+02
3.357999999999999829e+01
2.824300000000000068e+02
2.487999999999999901e+01
-8.104999999999999716e+01
1.840699999999999932e+02
8.380000000000000782e+00
3.614000000000000057e+01
1.265000000000000000e+02
1.240000000000000036e+01
-1.792999999999999972e+01
4.582000000000000028e+01
-3.659000000000000341e+01
3.811999999999999744e+01
7.520999999999999375e+01
-3.381200000000000045e+02
3.160999999999999943e+01
1.258199999999999932e+02
-9.745999999999999375e+01
-3.300000000000000155e-01
5.414000000000000057e+01
-1.297199999999999989e+02
1.175999999999999979e+01
-1.426999999999999957e+01
4.842999999999999972e+01
1.000000000000000021e-02
-1.213199999999999932e+02
8.556000000000000227e+01
-1.351299999999999955e+02
-1.090499999999999972e+02
4.341399999999999864e+02
-4.752000000000000313e+01
-2.760000000000000142e+01
1.681500000000000057e+02
-5.060000000000000142e+01
-3.107000000000000028e+01
-9.318000000000000682e+01
-6.330599999999999454e+02
2.831299999999999955e+02
3.204499999999999886e+02
-9.815000000000000568e+01
-2.260000000000000142e+01
-3.938000000000000256e+01
2.207999999999999829e+01
-1.021899999999999977e+02
-1.028999999999999915e+01
-1.268299999999999983e+02
-1.296399999999999864e+02
7.085999999999999943e+01
5.859000000000000341e+01
-1.048400000000000034e+02
1.065600000000000023e+02
-2.412000000000000099e+01
-1.015100000000000051e+02
8.462999999999999545e+01
1.000000000000000000e+00
-5.850000000000000000e+01
-4.280000000000000249e+00
8.859999999999999432e+00
5.032999999999999829e+01
3.942000000000000171e+01
-4.696999999999999886e+01
-1.399799999999999898e+02
8.256999999999999318e+01
-8.937999999999999545e+01
5.820000000000000284e+01
4.711999999999999744e+01
-5.780000000000000249e+00
-8.048999999999999488e+01
5.610000000000000142e+01
-9.298999999999999488e+01
-2.767000000000000171e+01
-8.695000000000000284e+01
1.636500000000000057e+02
-1.117999999999999972e+01
2.757000000000000028e+01
-5.132000000000000028e+01
-5.839999999999999858e+00
-3.952000000000000313e+01
-1.581000000000000050e+01
-3.682999999999999829e+01
8.999999999999999667e-02
2.076999999999999957e+01
2.626999999999999957e+01
-6.951999999999999602e+01
-5.425999999999999801e+01
2.696000000000000085e+01
-1.887999999999999901e+01
-3.885999999999999943e+01
9.540000000000000568e+01
-2.830999999999999872e+01
-1.992999999999999972e+01
-1.835600000000000023e+02
-5.166000000000000227e+02
1.786299999999999955e+02
1.138400000000000034e+02
-5.336999999999999744e+01
-3.189999999999999858e+01
3.682000000000000028e+01
-2.540000000000000036e+00
-5.060999999999999943e+01
8.432999999999999829e+01
-9.082999999999999829e+01
7.484000000000000341e+01
-4.500000000000000000e+01
4.914000000000000057e+01
-6.365999999999999659e+01
-1.067600000000000051e+02
-6.481000000000000227e+01
6.526999999999999602e+01
4.889000000000000057e+01
2.994999999999999929e+01
8.578000000000000114e+01
1.128700000000000045e+02
8.228000000000000114e+01
8.199999999999999289e+00
-1.262500000000000000e+02
-1.696500000000000057e+02
-6.551999999999999602e+01
2.016899999999999977e+02
-5.721999999999999886e+01
1.897400000000000091e+02
-2.357500000000000000e+02
1.131000000000000050e+01
9.570000000000000284e+00
5.950000000000000000e+01
2.990000000000000213e+00
-4.500999999999999801e+01
9.259999999999999432e+01
-9.537000000000000455e+01
1.298000000000000043e+01
-2.474499999999999886e+02
4.242999999999999972e+01
1.621000000000000085e+01
-8.269999999999999574e+00
-2.240000000000000000e+02
-1.838300000000000125e+02
2.750299999999999727e+02
-1.780999999999999872e+01
-2.019000000000000128e+01
3.325000000000000000e+01
-1.130000000000000071e+01
-2.071999999999999886e+01
5.440999999999999659e+01
-3.529999999999999805e+00
-3.984000000000000341e+01
-2.619000000000000128e+01
1.128999999999999915e+01
-2.871999999999999886e+01
-6.168999999999999773e+01
1.848000000000000114e+02
2.257000000000000028e+01
-5.889000000000000057e+01
1.600000000000000033e-01
2.240900000000000034e+02
4.093999999999999773e+01
-1.224000000000000021e+01
-1.231500000000000057e+02
-1.017900000000000063e+02
-9.310000000000000497e+00
4.186999999999999744e+01
6.934000000000000341e+01
8.567000000000000171e+01
-1.386500000000000057e+02
-1.819300000000000068e+02
8.599999999999999645e+00
1.610300000000000011e+02
4.289999999999999858e+01
3.048000000000000043e+01
4.079999999999999716e+01
-2.302500000000000000e+02
8.140999999999999659e+01
2.364999999999999858e+01
-7.026999999999999602e+01
-1.372000000000000064e+01
9.328000000000000114e+01
1.327199999999999989e+02
2.905000000000000071e+01
-1.505000000000000000e+02
-1.840800000000000125e+02
9.478000000000000114e+01
9.684999999999999432e+01
-3.500000000000000000e+01
-7.276000000000000512e+01
-6.839000000000000057e+01
-2.210699999999999932e+02
6.648999999999999488e+01
1.299300000000000068e+02
9.284999999999999432e+01
-1.327500000000000000e+02
1.011999999999999922e+01
-2.460999999999999943e+01
4.318999999999999773e+01
-8.260999999999999943e+01
-1.533000000000000007e+01
2.663000000000000114e+02
-4.649000000000000199e+01
-4.589999999999999858e+01
6.690000000000000568e+01
-6.556999999999999318e+01
-6.734000000000000341e+01
4.428999999999999915e+01
5.789999999999999858e+01
5.029999999999999716e+01
1.134999999999999964e+01
-1.196400000000000006e+02
-1.023499999999999943e+02
6.142999999999999972e+01
1.797800000000000011e+02
-1.108900000000000006e+02
-5.578999999999999915e+01
-1.760200000000000102e+02
3.235400000000000205e+02
-2.220200000000000102e+02
-1.550999999999999979e+01
-9.310000000000000497e+00
-3.740999999999999659e+01
2.168000000000000114e+02
-6.280000000000000249e+00
-9.554000000000000625e+01
-4.299999999999999822e+00
4.300000000000000000e+01
6.929999999999999716e+00
-5.920000000000000284e+01
2.848999999999999844e+01
2.451000000000000156e+01
-6.529000000000000625e+01
-1.228999999999999915e+01
3.371000000000000085e+01
7.342000000000000171e+01
1.919999999999999929e+00
-3.814000000000000057e+01
8.820000000000000284e+01
-6.070000000000000284e+01
-3.429999999999999716e+01
5.268999999999999773e+01
-4.209000000000000341e+01
2.840400000000000205e+02
-1.102000000000000028e+02
-7.307999999999999829e+01
-5.746999999999999886e+01
-2.325099999999999909e+02
2.884499999999999886e+02
1.030000000000000000e+02
-3.262099999999999795e+02
6.504000000000000625e+01
1.632000000000000028e+01
1.280000000000000071e+01
-2.473999999999999844e+01
9.173999999999999488e+01
-2.285000000000000142e+01
-5.690999999999999659e+01
-9.018999999999999773e+01
-1.334999999999999964e+01
2.544499999999999886e+02
-1.188400000000000034e+02
-4.336999999999999744e+01
-1.312500000000000000e+02
4.739000000000000057e+01
9.557999999999999829e+01
-9.320000000000000284e+00
-3.442000000000000171e+01
-6.431000000000000227e+01
4.163000000000000256e+01
2.785000000000000142e+01
-7.493999999999999773e+01
1.019999999999999929e+01
9.512999999999999545e+01
2.356500000000000057e+02
1.900000000000000000e+01
5.509999999999999787e+00
-1.173499999999999943e+02
-1.292999999999999972e+01
9.560999999999999943e+01
-1.382800000000000011e+02
-6.193999999999999773e+01
6.915999999999999659e+01
1.276500000000000057e+02
9.499999999999999556e-01
-2.500000000000000000e+01
-1.622100000000000080e+02
1.275499999999999972e+02
-3.303999999999999915e+01
-1.130400000000000063e+02
6.419999999999999929e+00
1.374300000000000068e+02
7.480000000000000426e+00
4.599999999999999645e+00
1.275400000000000063e+02
-2.559300000000000068e+02
4.936999999999999744e+01
3.640999999999999659e+01
3.825999999999999801e+01
-6.956000000000000227e+01
1.129599999999999937e+02
8.434000000000000341e+01
2.812999999999999901e+01
3.638000000000000256e+01
-1.861200000000000045e+02
-6.113000000000000256e+01
9.339000000000000057e+01
-1.409300000000000068e+02
3.527000000000000313e+01
4.292999999999999972e+01
3.146000000000000085e+01
4.943999999999999773e+01
3.604999999999999716e+01
-5.107000000000000028e+01
-1.234500000000000028e+02
8.148000000000000398e+01
4.139999999999999680e+00
-3.100000000000000089e+00
6.975000000000000000e+01
-8.570000000000000284e+00
-8.296999999999999886e+01
1.914000000000000057e+01
1.111999999999999922e+01
6.639999999999999680e+00
1.719999999999999973e+00
-6.959999999999999964e+00
2.062999999999999901e+01
2.417000000000000171e+01
-4.900000000000000355e+00
-1.590000000000000080e+00
1.209999999999999964e+00
-2.169000000000000128e+01
-1.539699999999999989e+02
1.438199999999999932e+02
1.822899999999999920e+02
-1.629600000000000080e+02
-7.576999999999999602e+01
1.460999999999999943e+01
5.629999999999999893e+00
-1.126999999999999957e+01
-1.870000000000000107e+00
2.999999999999999889e-01
-8.660000000000000142e+00
8.789999999999999147e+00
-3.109999999999999876e+00
-2.779999999999999805e+00
2.029999999999999805e+00
-5.929999999999999716e+00
4.230000000000000426e+00
4.320000000000000284e+00
-1.164000000000000057e+01
6.030000000000000249e+00
7.219999999999999751e+00
-1.086999999999999922e+01
1.265000000000000036e+01
4.000000000000000000e+00
-1.427999999999999936e+01
6.580000000000000071e+00
6.999999999999999556e-01
-1.244999999999999929e+01
9.089999999999999858e+00
4.250000000000000000e+00
-1.127999999999999936e+01
7.570000000000000284e+00
2.740000000000000213e+00
-1.476999999999999957e+01
3.529999999999999805e+00
1.600000000000000089e+00
-5.740000000000000213e+00
8.199999999999999289e+00
-1.179999999999999938e+00
-1.682999999999999829e+01
1.139000000000000057e+01
-3.959999999999999964e+00
-1.150000000000000000e+01
8.519999999999999574e+00
3.499999999999999778e-01
-2.009999999999999787e+00
1.211999999999999922e+01
-3.450000000000000178e+00
-3.279999999999999805e+00
3.680000000000000160e+00
-7.679999999999999716e+00
4.750000000000000000e+00
6.190000000000000391e+00
-5.780000000000000249e+00
6.530000000000000249e+00
4.839999999999999858e+00
-8.980000000000000426e+00
9.970000000000000639e+00
5.899999999999999689e-01
-1.408999999999999986e+01
3.479999999999999982e+00
-1.929999999999999938e+00
-8.789999999999999147e+00
1.044999999999999929e+01
-1.580000000000000071e+00
-4.059999999999999609e+00
8.500000000000000000e+00
-1.520000000000000018e+00
1.100000000000000006e-01
2.569999999999999840e+00
-4.179999999999999716e+00
2.601999999999999957e+01
1.416899999999999977e+02
-1.699600000000000080e+02
-3.459999999999999964e+00
-1.516999999999999886e+02
-1.019699999999999989e+02
1.235000000000000000e+02
1.344300000000000068e+02
-3.204999999999999716e+01
-1.299000000000000021e+01
-1.050000000000000000e+01
5.500000000000000000e+00
1.347000000000000064e+01
-4.940000000000000391e+00
7.900000000000000355e-01
4.509999999999999787e+00
-5.190000000000000391e+00
3.609999999999999876e+00
3.879999999999999893e+00
-2.500000000000000000e+00
7.379999999999999893e+00
2.970000000000000195e+00
-1.144999999999999929e+01
2.520000000000000018e+00
-2.300000000000000100e-01
-1.298000000000000043e+01
1.198000000000000043e+01
-1.129999999999999893e+00
-5.480000000000000426e+00
7.160000000000000142e+00
-2.459999999999999964e+00
2.680000000000000160e+00
1.409999999999999920e+00
-5.580000000000000071e+00
7.639999999999999680e+00
3.499999999999999778e-01
-1.069999999999999929e+01
4.419999999999999929e+00
5.219999999999999751e+00
-6.440000000000000391e+00
6.820000000000000284e+00
1.600000000000000033e-01
-4.500000000000000111e-01
5.290000000000000036e+00
-5.559999999999999609e+00
9.899999999999999911e-01
8.231999999999999318e+01
-1.333999999999999986e+01
-1.889999999999999858e+01
-2.700000000000000178e+00
-1.628000000000000114e+01
-3.430000000000000160e+00
-1.250000000000000000e+00
-5.730000000000000426e+00
8.519999999999999574e+00
8.100000000000000533e-01
-1.407000000000000028e+01
-5.599999999999999645e+00
9.004999999999999716e+01
-4.003000000000000114e+01
1.876000000000000156e+01
-2.262999999999999901e+01
-3.895000000000000284e+01
5.265999999999999659e+01
1.275999999999999979e+01
2.207999999999999829e+01
-2.399999999999999911e-01
4.638000000000000256e+01
2.676000000000000156e+01
-1.035300000000000011e+02
1.298000000000000043e+01
-5.442999999999999972e+01
4.782000000000000028e+01
2.155000000000000071e+01
-2.408999999999999986e+01
-7.370000000000000107e+00
-4.231000000000000227e+01
6.731000000000000227e+01
-2.210999999999999943e+01
-4.667999999999999972e+01
-6.009999999999999787e+00
6.548999999999999488e+01
6.389999999999999858e+01
-9.399999999999999467e-01
-5.182000000000000028e+01
-1.050999999999999979e+01
9.970999999999999375e+01
6.551999999999999602e+01
-7.615999999999999659e+01
-4.578000000000000114e+01
-5.799999999999999600e-01
3.149999999999999911e+00
5.936999999999999744e+01
-3.403000000000000114e+01
-6.099999999999999645e+00
-1.929999999999999938e+00
1.299000000000000021e+01
1.103999999999999915e+01
-2.078000000000000114e+01
-2.058700000000000045e+02
7.639000000000000057e+01
-3.795000000000000284e+01
3.364999999999999858e+01
2.367999999999999972e+01
5.280000000000000249e+00
-4.814000000000000057e+01
2.192000000000000171e+01
-5.509999999999999787e+00
-6.140999999999999659e+01
6.013000000000000256e+01
-9.829000000000000625e+01
-1.584999999999999964e+01
-2.478000000000000114e+01
2.841000000000000014e+01
2.248000000000000043e+01
-4.515999999999999659e+01
4.089999999999999858e+00
-5.679999999999999716e+00
-2.910000000000000142e+01
6.019999999999999574e+00
2.614999999999999858e+01
-3.546000000000000085e+01
3.809000000000000341e+01
2.548000000000000043e+01
1.371000000000000085e+01
-8.882999999999999829e+01
3.075000000000000000e+01
-1.196000000000000085e+01
1.962999999999999901e+01
1.225999999999999979e+01
-5.389999999999999680e+00
-5.520000000000000284e+01
8.178000000000000114e+01
-2.026000000000000156e+01
1.585999999999999943e+01
3.446000000000000085e+01
-3.899999999999999911e+00
-4.335999999999999943e+01
1.880999999999999872e+01
1.898999999999999844e+01
-1.494999999999999929e+01
1.790000000000000036e+00
2.478000000000000114e+01
7.660000000000000142e+00
-5.572999999999999687e+01
3.485999999999999943e+01
2.107000000000000028e+01
-1.769999999999999929e+01
1.917999999999999972e+01
2.203000000000000114e+01
-1.341000000000000014e+01
-2.335000000000000142e+01
2.483999999999999986e+01
4.049999999999999822e+00
-1.050999999999999979e+01
1.415699999999999932e+02
4.700000000000000000e+01
-7.520000000000000284e+01
-1.081400000000000006e+02
-1.055100000000000051e+02
-1.552999999999999936e+01
-2.221999999999999886e+01
-2.012999999999999901e+01
-8.750000000000000000e+00
-2.201999999999999957e+01
-9.009999999999999787e+00
-2.000000000000000111e-01
5.000000000000000278e-02
-2.600000000000000000e+01
4.846000000000000085e+01
1.124000000000000021e+01
-2.610999999999999943e+01
2.542999999999999972e+01
1.346000000000000085e+01
-2.662000000000000099e+01
-9.357999999999999829e+01
-2.449099999999999966e+02
1.711200000000000045e+02
5.075000000000000000e+01
1.530000000000000071e+01
-3.596999999999999886e+01
1.050000000000000044e+00
1.628999999999999915e+01
2.229999999999999982e+00
2.182800000000000011e+02
1.151400000000000006e+02
-2.254199999999999875e+02
-1.630699999999999932e+02
-1.862500000000000000e+02
1.579699999999999989e+02
5.352000000000000313e+01
-1.075900000000000034e+02
8.787000000000000455e+01
8.068999999999999773e+01
6.484000000000000341e+01
1.030499999999999972e+02
5.899000000000000199e+01
-2.708600000000000136e+02
-3.997999999999999687e+01
1.317999999999999972e+01
5.903999999999999915e+01
-2.123000000000000043e+01
8.154000000000000625e+01
1.817000000000000171e+01
-1.009399999999999977e+02
8.926999999999999602e+01
-6.475000000000000000e+01
-8.150000000000000355e+00
-7.495999999999999375e+01
-8.656999999999999318e+01
-3.203000000000000114e+01
-6.454000000000000625e+01
2.067999999999999972e+01
4.618999999999999773e+01
-5.103999999999999915e+01
3.353999999999999915e+01
-2.421000000000000085e+01
8.892000000000000171e+01
5.268999999999999773e+01
9.915000000000000568e+01
-3.914999999999999858e+01
2.991000000000000014e+01
2.551999999999999957e+01
-1.447000000000000064e+01
-1.837000000000000099e+01
4.302000000000000313e+01
-7.889000000000000057e+01
-1.090100000000000051e+02
5.485000000000000142e+01
2.349399999999999977e+02
-3.415999999999999659e+01
-1.045699999999999932e+02
-1.025999999999999979e+01
1.330800000000000125e+02
-1.805999999999999943e+02
-2.285300000000000011e+02
-9.037000000000000455e+01
1.806699999999999875e+02
5.063000000000000256e+01
-6.592000000000000171e+01
2.096999999999999886e+01
-6.046999999999999886e+01
1.231800000000000068e+02
-1.369600000000000080e+02
9.589999999999999858e+00
-4.500999999999999801e+01
-3.370000000000000284e+01
8.481000000000000227e+01
-4.942000000000000171e+01
-8.482999999999999829e+01
-1.322299999999999898e+02
9.820000000000000284e+01
1.001599999999999966e+02
7.650000000000000355e+00
-2.330099999999999909e+02
8.523999999999999488e+01
-6.765999999999999659e+01
-2.628000000000000114e+01
-2.964000000000000057e+01
2.432000000000000028e+01
-2.701999999999999957e+01
-1.914000000000000057e+01
2.273000000000000043e+01
-2.220000000000000195e+00
-2.132999999999999829e+01
1.299000000000000021e+01
8.380000000000000782e+00
-4.740000000000000213e+00
-2.275000000000000000e+01
1.492999999999999972e+01
3.589999999999999858e+00
-2.026999999999999957e+01
1.526999999999999957e+01
8.109999999999999432e+00
-1.655999999999999872e+01
1.114000000000000057e+01
1.937999999999999901e+01
3.148999999999999844e+01
-3.774000000000000199e+01
5.370000000000000107e+00
8.410000000000000142e+00
9.320000000000000284e+00
7.429999999999999716e+00
-3.990000000000000213e+00
-1.883999999999999986e+01
-1.083999999999999986e+01
6.629999999999999893e+00
-2.029999999999999805e+00
-1.744999999999999929e+01
1.442999999999999972e+01
6.740000000000000213e+00
-1.321000000000000085e+01
1.275000000000000000e+01
9.070000000000000284e+00
-5.549999999999999822e+00
-1.900000000000000022e-01
7.620000000000000107e+00
-9.410000000000000142e+00
-1.208000000000000007e+01
8.289999999999999147e+00
1.000000000000000056e-01
-1.377999999999999936e+01
8.419999999999999929e+00
-4.500000000000000111e-01
8.449999999999999289e+00
1.065199999999999960e+02
7.162000000000000455e+01
2.714000000000000057e+01
-4.076800000000000068e+02
7.204000000000000625e+01
1.452100000000000080e+02
-2.379999999999999893e+00
-6.879000000000000625e+01
1.794999999999999929e+01
-1.289000000000000057e+01
-1.925000000000000000e+01
-3.928000000000000114e+01
1.477299999999999898e+02
-1.100499999999999972e+02
-4.104800000000000182e+02
6.773999999999999488e+01
1.742500000000000000e+02
-5.735000000000000142e+01
3.238299999999999841e+02
-2.347599999999999909e+02
-1.144999999999999929e+01
-9.630000000000000782e+00
-6.898999999999999488e+01
-2.338400000000000034e+02
-6.954999999999999716e+01
1.870999999999999943e+02
-1.340000000000000000e+02
-1.367199999999999989e+02
1.293700000000000045e+02
-1.785999999999999943e+01
-1.294999999999999929e+01
-9.429000000000000625e+01
2.676700000000000159e+02
-3.652000000000000313e+01
8.103000000000000114e+01
-1.827400000000000091e+02
2.196999999999999886e+01
1.967299999999999898e+02
-3.172500000000000000e+02
-4.588000000000000256e+01
7.543000000000000682e+01
1.800000000000000000e+02
-2.473999999999999844e+01
4.446999999999999886e+01
-2.871999999999999886e+02
1.806500000000000057e+02
-2.541000000000000014e+01
4.674000000000000199e+01
-1.205100000000000051e+02
7.598000000000000398e+01
6.210999999999999943e+01
-2.263100000000000023e+02
-6.579000000000000625e+01
1.464900000000000091e+02
2.957599999999999909e+02
-7.812999999999999545e+01
-5.668999999999999773e+01
7.604999999999999716e+01
2.067500000000000000e+02
-9.593000000000000682e+01
5.193999999999999773e+01
-2.962699999999999818e+02
1.414000000000000057e+02
1.621800000000000068e+02
-1.676699999999999875e+02
-3.162999999999999901e+01
-1.830999999999999872e+01
1.868000000000000114e+02
5.897999999999999687e+01
6.781000000000000227e+01
-2.110399999999999920e+02
1.502700000000000102e+02
3.656000000000000227e+01
-1.710399999999999920e+02
-7.309999999999999609e+00
1.029000000000000057e+02
1.247000000000000064e+01
-1.096599999999999966e+02
-6.854999999999999716e+01
1.392500000000000000e+02
4.915999999999999659e+01
-2.989000000000000057e+01
-1.208799999999999955e+02
-1.201800000000000068e+02
-2.970000000000000195e+00
1.010400000000000063e+02
-2.716000000000000227e+02
1.825099999999999909e+02
-3.148000000000000043e+01
-6.475000000000000000e+01
-1.014899999999999949e+02
-7.589999999999999858e+00
-3.435000000000000142e+01
-5.292999999999999972e+01
-1.348000000000000043e+01
1.067999999999999972e+01
1.208000000000000007e+01
-2.169000000000000128e+01
-4.310000000000000142e+01
2.844999999999999929e+01
2.073000000000000043e+01
8.299999999999999600e-01
-5.940000000000000391e+00
5.450000000000000178e+00
1.145100000000000051e+02
-8.490000000000000568e+01
-4.218999999999999773e+01
3.727000000000000313e+01
2.750000000000000000e+01
-3.761999999999999744e+01
-3.628000000000000114e+01
-3.250000000000000000e+01
-7.904999999999999716e+01
1.406800000000000068e+02
2.553999999999999915e+01
-5.967999999999999972e+01
4.878000000000000114e+01
1.383999999999999986e+01
-3.521000000000000085e+01
2.814000000000000057e+01
4.992000000000000171e+01
4.288000000000000256e+01
6.473000000000000398e+01
1.436500000000000057e+02
-2.142000000000000171e+01
-1.463000000000000114e+02
-1.211200000000000045e+02
4.446000000000000085e+01
3.330000000000000071e+00
1.992000000000000171e+01
-9.917000000000000171e+01
1.300000000000000000e+01
4.485999999999999943e+01
9.293000000000000682e+01
-3.814999999999999858e+01
-5.192000000000000171e+01
4.361999999999999744e+01
-1.566999999999999993e+01
2.990000000000000213e+00
-2.919999999999999929e+01
2.296000000000000085e+01
-2.901999999999999957e+01
9.554000000000000625e+01
-4.021999999999999886e+01
2.794000000000000128e+01
-3.715999999999999659e+01
-1.507000000000000028e+01
7.562000000000000455e+01
-3.420000000000000284e+01
-3.661999999999999744e+01
1.267999999999999972e+01
1.065000000000000036e+01
-1.919000000000000128e+01
2.390000000000000124e+00
2.051999999999999957e+01
-2.759999999999999787e+00
-5.309999999999999609e+00
7.160000000000000142e+00
-5.049999999999999822e+00
-6.979000000000000625e+01
-7.287999999999999545e+01
1.768000000000000114e+02
9.295000000000000284e+01
6.639999999999999680e+00
-1.208900000000000006e+02
-5.999999999999999778e-02
2.125000000000000000e+01
4.032999999999999829e+01
-1.318999999999999950e+01
-1.257000000000000028e+01
-5.578999999999999915e+01
-3.392999999999999972e+01
3.292000000000000171e+01
-4.634000000000000341e+01
-4.060000000000000142e+01
4.465999999999999659e+01
-2.800000000000000000e+01
-3.660000000000000142e+00
7.209999999999999964e+00
3.051999999999999957e+01
8.820000000000000284e+00
-3.281000000000000227e+01
-1.261999999999999922e+01
1.082000000000000028e+01
-1.089000000000000057e+01
-1.130799999999999983e+02
-5.907000000000000028e+01
3.717000000000000171e+01
6.693000000000000682e+01
1.241299999999999955e+02
-1.263799999999999955e+02
-4.874000000000000199e+01
5.657000000000000028e+01
-1.135999999999999943e+02
-6.357999999999999829e+01
-1.009999999999999964e+01
1.901000000000000156e+01
-2.557000000000000028e+01
5.068999999999999773e+01
1.521000000000000085e+01
3.770000000000000018e+00
-3.679999999999999716e+01
-5.056000000000000227e+01
9.526000000000000512e+01
-8.056000000000000227e+01
-1.583999999999999986e+01
1.359300000000000068e+02
9.978000000000000114e+01
-3.189999999999999858e+01
-2.336999999999999886e+02
-1.630999999999999872e+01
9.630000000000000782e+00
3.076999999999999957e+01
-1.203999999999999915e+01
-1.094999999999999929e+01
3.871999999999999886e+01
-2.987000000000000099e+01
-5.974000000000000199e+01
1.992000000000000171e+01
1.381299999999999955e+02
-3.001999999999999957e+01
-6.400000000000000000e+01
-1.183000000000000007e+01
-1.165900000000000034e+02
4.131000000000000227e+01
4.635299999999999727e+02
-1.691899999999999977e+02
-1.718199999999999932e+02
1.561399999999999864e+02
-1.695999999999999943e+02
2.372199999999999989e+02
-2.189399999999999977e+02
-2.471999999999999886e+01
1.681500000000000057e+02
7.959000000000000341e+01
-2.277400000000000091e+02
-8.609000000000000341e+01
1.299600000000000080e+02
-9.035999999999999943e+01
-8.643000000000000682e+01
2.773600000000000136e+02
-4.471999999999999886e+01
-3.889000000000000057e+01
-4.096000000000000085e+01
-8.042000000000000171e+01
1.563499999999999943e+02
2.893799999999999955e+02
-3.439700000000000273e+02
-2.720500000000000114e+02
2.912500000000000000e+02
1.074200000000000017e+02
7.843999999999999773e+01
-2.119399999999999977e+02
9.842000000000000171e+01
-4.552000000000000313e+01
1.835999999999999943e+01
-1.682999999999999829e+01
6.139000000000000057e+01
-2.608999999999999986e+01
7.085999999999999943e+01
-1.064200000000000017e+02
-1.651399999999999864e+02
1.282100000000000080e+02
7.910999999999999943e+01
-8.754000000000000625e+01
1.114000000000000057e+01
-1.306000000000000050e+01
4.102000000000000313e+01
9.269999999999999574e+00
-7.650000000000000355e+00
7.780000000000000249e+00
-3.119999999999999929e+01
2.025000000000000000e+01
-5.529999999999999716e+01
1.300999999999999979e+01
-4.784000000000000341e+01
8.999999999999999667e-02
-2.048999999999999844e+01
-4.722999999999999687e+01
4.310000000000000142e+01
2.721000000000000085e+01
-1.381000000000000050e+01
-9.315000000000000568e+01
1.535999999999999943e+01
2.185000000000000000e+02
-1.539900000000000091e+02
1.405500000000000114e+02
3.492000000000000171e+01
-4.149000000000000199e+01
-2.217999999999999972e+01
-5.925000000000000000e+01
-1.499699999999999989e+02
1.264200000000000017e+02
-5.870000000000000284e+01
-3.370000000000000284e+01
5.767999999999999972e+01
-3.105999999999999872e+01
-2.451999999999999957e+01
-2.982000000000000028e+01
-1.572000000000000064e+01
-3.553999999999999915e+01
3.232000000000000028e+01
-2.662999999999999901e+01
4.461999999999999744e+01
-1.291500000000000057e+02
-3.400000000000000244e-01
7.719999999999999751e+00
3.504999999999999716e+01
7.395000000000000284e+01
1.805000000000000071e+01
1.012199999999999989e+02
-2.188400000000000034e+02
9.267000000000000171e+01
-7.019999999999999574e+00
1.892500000000000000e+02
-8.192000000000000171e+01
-1.121000000000000085e+01
-2.547199999999999989e+02
3.026100000000000136e+02
-3.442000000000000171e+01
-7.032999999999999829e+01
4.152000000000000313e+01
2.220300000000000011e+02
-1.688600000000000136e+02
-2.269000000000000057e+02
2.916100000000000136e+02
9.234999999999999432e+01
1.212500000000000000e+02
7.806000000000000227e+01
-1.416299999999999955e+02
-4.092999999999999972e+01
-7.806999999999999318e+01
-1.716000000000000014e+01
3.368999999999999773e+01
1.221299999999999955e+02
-4.974000000000000199e+01
-1.511999999999999922e+01
-5.418999999999999773e+01
4.150999999999999801e+01
-2.148000000000000043e+01
-6.464000000000000057e+01
8.454999999999999716e+01
4.353999999999999915e+01
-9.730000000000000426e+00
-4.440999999999999659e+01
7.910999999999999943e+01
1.593999999999999950e+01
3.339000000000000057e+01
9.259999999999999432e+01
-8.057999999999999829e+01
9.740000000000000568e+01
-3.089999999999999858e+00
-4.434000000000000341e+01
-1.027300000000000040e+02
5.046999999999999886e+01
9.330000000000000071e+00
-2.419999999999999929e+01
3.589999999999999858e+01
3.739000000000000057e+01
3.636999999999999744e+01
4.750999999999999801e+01
-6.754999999999999716e+01
-5.322999999999999687e+01
-3.696000000000000085e+01
-9.204000000000000625e+01
2.485699999999999932e+02
-9.101999999999999602e+01
-3.389999999999999858e+01
-5.159000000000000341e+01
-3.372999999999999687e+01
-2.421999999999999886e+01
-3.725999999999999801e+01
6.609000000000000341e+01
1.166299999999999955e+02
-1.804000000000000057e+02
8.914000000000000057e+01
-3.205199999999999818e+02
7.565000000000000568e+01
1.072099999999999937e+02
-1.328899999999999864e+02
-6.109000000000000341e+01
1.390399999999999920e+02
7.481999999999999318e+01
-7.856999999999999318e+01
6.476000000000000512e+01
-4.565999999999999659e+01
2.598000000000000043e+01
1.906599999999999966e+02
-1.668499999999999943e+02
-6.257000000000000028e+01
-3.800999999999999801e+01
4.100000000000000000e+01
-5.322999999999999687e+01
9.943000000000000682e+01
2.751000000000000156e+01
-6.546999999999999886e+01
6.339000000000000057e+01
-4.181000000000000227e+01
1.434999999999999964e+01
4.925999999999999801e+01
1.865600000000000023e+02
-1.752500000000000000e+02
1.134899999999999949e+02
-3.577000000000000313e+01
-1.479999999999999982e+00
-2.479999999999999982e+00
3.890999999999999659e+01
8.246999999999999886e+01
1.008000000000000007e+01
-7.859999999999999432e+01
-9.400000000000000355e+00
3.777000000000000313e+01
-1.810999999999999943e+01
1.247000000000000064e+01
-4.550999999999999801e+01
5.677000000000000313e+01
8.575000000000000000e+01
-2.128000000000000114e+02
7.873000000000000398e+01
3.567999999999999972e+01
-8.978000000000000114e+01
5.769999999999999574e+00
5.921999999999999886e+01
-1.105000000000000071e+01
3.171000000000000085e+01
-7.995999999999999375e+01
-8.835999999999999943e+01
1.747500000000000000e+02
7.585999999999999943e+01
-4.778000000000000114e+01
-2.724800000000000182e+02
-1.178999999999999915e+01
2.468000000000000114e+02
6.781000000000000227e+01
-1.120499999999999972e+02
-6.582999999999999829e+01
2.793100000000000023e+02
-1.104200000000000017e+02
1.143999999999999950e+01
-3.220000000000000195e+00
7.034000000000000341e+01
-2.682999999999999829e+01
1.335999999999999943e+01
-5.914000000000000057e+01
-3.413000000000000256e+01
-3.030000000000000071e+01
2.937999999999999901e+01
1.127399999999999949e+02
-1.258999999999999986e+01
-8.971999999999999886e+01
-2.723000000000000043e+01
9.460000000000000853e+00
9.220000000000000639e+00
3.609000000000000341e+01
-1.218999999999999950e+01
1.500000000000000000e+00
-4.799999999999999822e+00
3.325000000000000000e+01
-5.009000000000000341e+01
-1.830999999999999872e+01
2.526999999999999957e+01
-1.119999999999999929e+01
2.107999999999999829e+01
-8.480000000000000426e+00
2.023999999999999844e+01
7.009999999999999787e+00
2.032000000000000028e+01
-2.014000000000000057e+01
-1.091000000000000014e+01
4.519999999999999574e+00
2.442999999999999972e+01
-8.857999999999999829e+01
-1.641000000000000014e+01
3.110999999999999943e+01
1.227999999999999936e+01
4.728000000000000114e+01
1.561999999999999922e+01
5.730000000000000426e+00
-9.250000000000000000e+00
2.246999999999999886e+01
-2.358999999999999986e+01
-4.436999999999999744e+01
1.976000000000000156e+01
-7.959999999999999964e+00
2.805000000000000071e+01
3.485000000000000142e+01
2.019000000000000128e+01
-9.400000000000000355e+00
-7.829000000000000625e+01
6.509999999999999787e+00
1.308000000000000007e+01
-3.361999999999999744e+01
1.224000000000000021e+01
3.700999999999999801e+01
5.580000000000000071e+00
-1.721999999999999886e+01
-2.076999999999999957e+01
-3.839999999999999858e+00
2.412999999999999901e+01
-1.139999999999999902e+00
-1.610999999999999943e+01
1.331000000000000050e+01
-3.680000000000000160e+00
2.430000000000000160e+00
-2.816000000000000014e+01
-8.730000000000000426e+00
6.330000000000000071e+00
9.689999999999999503e+00
9.810000000000000497e+00
-1.676999999999999957e+01
1.808999999999999986e+01
3.819999999999999840e+00
-2.216000000000000014e+01
-1.038000000000000078e+01
-1.357000000000000028e+01
-6.200000000000000178e+00
5.521999999999999886e+01
-4.638000000000000256e+01
-1.350999999999999979e+01
-2.250000000000000000e+00
1.379999999999999893e+00
1.817999999999999972e+01
-6.200999999999999801e+01
-4.059999999999999609e+00
1.152099999999999937e+02
8.976999999999999602e+01
-3.629999999999999716e+01
-9.110999999999999943e+01
3.639000000000000057e+01
4.469999999999999751e+00
-2.669999999999999929e+00
-1.010000000000000009e+00
-7.067000000000000171e+01
4.717000000000000171e+01
2.401999999999999957e+01
-8.769999999999999574e+00
-4.739999999999999858e+01
-2.300000000000000100e-01
2.312000000000000099e+01
2.470000000000000195e+00
-2.910000000000000142e+01
-9.987000000000000455e+01
1.390000000000000036e+01
5.469999999999999751e+00
3.139999999999999858e+01
-4.475000000000000000e+01
9.200000000000000400e-01
1.520000000000000018e+00
4.447999999999999687e+01
1.889000000000000057e+01
-5.753999999999999915e+01
4.453000000000000114e+01
-1.739999999999999991e+00
5.669999999999999929e+00
-2.408999999999999986e+01
5.669999999999999929e+00
-3.418999999999999773e+01
1.607000000000000028e+01
-3.149999999999999911e+00
-3.440999999999999659e+01
1.177999999999999936e+01
-7.900000000000000355e+00
1.717000000000000171e+01
-2.490000000000000213e+00
8.160000000000000142e+00
-2.032999999999999829e+01
2.967999999999999972e+01
-2.464999999999999858e+01
-3.740000000000000213e+00
2.890000000000000124e+00
1.716000000000000014e+01
4.282999999999999829e+01
4.089999999999999858e+00
-1.193999999999999950e+01
2.817999999999999972e+01
-2.270000000000000018e+00
-3.961999999999999744e+01
-6.314000000000000057e+01
1.780000000000000071e+01
1.448000000000000043e+01
4.489999999999999858e+01
-5.100000000000000089e-01
-3.085999999999999943e+01
2.326000000000000156e+01
-3.144000000000000128e+01
3.064000000000000057e+01
-1.778999999999999915e+01
6.860000000000000320e+00
1.236999999999999922e+01
1.689999999999999858e+01
1.349000000000000021e+01
-4.496999999999999886e+01
1.941000000000000014e+01
-5.820000000000000284e+00
1.097000000000000064e+01
-1.418999999999999950e+01
-8.359999999999999432e+00
3.572999999999999687e+01
-1.830999999999999872e+01
6.629999999999999893e+00
-6.200000000000000178e+00
-4.440000000000000391e+00
-5.219999999999999751e+00
2.378999999999999915e+01
-2.578000000000000114e+01
-2.185000000000000142e+01
3.001999999999999957e+01
1.552199999999999989e+02
-7.426999999999999602e+01
-9.168000000000000682e+01
6.787999999999999545e+01
-5.150000000000000355e+00
8.299999999999999600e-01
-2.899999999999999911e+00
-2.803999999999999915e+01
1.639999999999999858e+01
-1.141999999999999993e+01
1.373000000000000043e+01
1.289000000000000057e+01
-2.262000000000000099e+01
2.530999999999999872e+01
-2.964000000000000057e+01
3.754999999999999716e+01
-7.929999999999999716e+00
-5.397999999999999687e+01
1.092999999999999972e+01
5.684000000000000341e+01
1.942999999999999972e+01
2.730000000000000071e+01
1.029300000000000068e+02
-4.756000000000000227e+01
-3.094000000000000128e+01
-8.873999999999999488e+01
-2.808999999999999986e+01
-2.766000000000000014e+01
3.445000000000000284e+01
2.490000000000000213e+00
-5.839999999999999858e+00
-2.280999999999999872e+01
2.509999999999999787e+00
3.360000000000000142e+01
-8.800000000000000044e-01
-2.010999999999999943e+01
3.680000000000000160e+00
-1.164000000000000057e+01
3.642000000000000171e+01
-2.823000000000000043e+01
-3.650999999999999801e+01
3.810000000000000142e+01
-3.092999999999999972e+01
7.820000000000000284e+00
-6.330000000000000071e+00
-2.173000000000000043e+01
2.625000000000000000e+01
-3.729999999999999982e+00
1.288000000000000078e+01
-6.650000000000000355e+00
-4.421999999999999886e+01
2.305999999999999872e+01
3.557999999999999829e+01
-4.299999999999999933e-01
-6.546999999999999886e+01
-9.700000000000000000e+01
1.475800000000000125e+02
1.186200000000000045e+02
-1.074500000000000028e+02
-4.561999999999999744e+01
-6.157999999999999829e+01
2.067000000000000171e+01
4.469999999999999751e+00
-6.500000000000000000e+00
9.849999999999999645e+00
5.929999999999999716e+00
3.364999999999999858e+01
-4.950000000000000178e+00
-4.838000000000000256e+01
2.376999999999999957e+01
1.149999999999999911e+00
2.975000000000000000e+01
-2.549999999999999822e+00
-3.522999999999999687e+01
4.309000000000000341e+01
-2.392999999999999972e+01
3.617999999999999972e+01
-2.071999999999999886e+01
-3.750999999999999801e+01
2.848999999999999844e+01
8.859999999999999432e+00
2.351999999999999957e+01
-2.680999999999999872e+01
-1.000000000000000000e+01
1.389000000000000057e+01
1.769000000000000128e+01
2.000000000000000000e+00
-1.837000000000000099e+01
-1.100000000000000006e-01
3.379999999999999893e+00
-1.043999999999999950e+01
-1.086999999999999922e+01
-9.710000000000000853e+00
1.707000000000000028e+01
1.917000000000000171e+01
-2.603000000000000114e+01
1.128999999999999915e+01
6.259999999999999787e+00
3.319999999999999840e+00
-2.278999999999999915e+01
-4.061999999999999744e+01
2.762000000000000099e+01
1.536999999999999922e+01
9.259999999999999787e+00
-2.259999999999999787e+00
-2.198999999999999844e+01
2.894999999999999929e+01
-7.030000000000000249e+00
-4.410000000000000142e+00
1.900000000000000022e-01
-2.341000000000000014e+01
2.141000000000000014e+01
-7.219999999999999751e+00
-1.005000000000000071e+01
-6.269999999999999574e+00
-1.953000000000000114e+01
5.089999999999999858e+00
-4.429999999999999716e+00
2.180000000000000071e+01
2.799999999999999822e+00
-3.151999999999999957e+01
8.050000000000000711e+00
-6.169999999999999929e+00
2.310999999999999943e+01
-1.394999999999999929e+01
-1.165000000000000036e+01
6.339999999999999858e+00
-9.240000000000000213e+00
1.189000000000000057e+01
-2.846999999999999886e+01
-4.799999999999999822e-01
1.789999999999999858e+01
-9.169999999999999929e+00
7.540000000000000036e+00
-2.760999999999999943e+01
-1.853000000000000114e+01
-3.529999999999999805e+00
1.939000000000000057e+01
1.892999999999999972e+01
-3.146000000000000085e+01
-1.246000000000000085e+01
3.509999999999999787e+00
2.335000000000000142e+01
1.366999999999999993e+01
-1.555000000000000071e+01
5.170000000000000284e+01
5.219999999999999751e+00
-2.762999999999999901e+01
-1.056000000000000050e+01
9.230000000000000426e+00
3.419999999999999929e+00
2.891000000000000014e+01
-1.214000000000000057e+01
1.620000000000000107e+00
-3.660000000000000142e+00
2.299999999999999822e+00
-1.319999999999999929e+01
-1.389999999999999902e+00
-2.999999999999999889e-01
-1.469999999999999929e+01
-1.006000000000000050e+01
1.808999999999999986e+01
-2.399999999999999911e-01
-7.399999999999999911e-01
1.027999999999999936e+01
-1.710000000000000142e+01
2.932000000000000028e+01
-7.600000000000000089e-01
7.160000000000000142e+00
-2.592999999999999972e+01
-3.669999999999999929e+00
2.330000000000000071e+00
8.490000000000000213e+00
-8.050000000000000711e+00
8.619999999999999218e+00
3.300000000000000155e-01
-7.599999999999999645e+00
1.592999999999999972e+01
1.105000000000000071e+01
3.279999999999999805e+00
-1.550999999999999979e+01
-8.240000000000000213e+00
2.446000000000000085e+01
-3.313000000000000256e+01
-1.610999999999999943e+01
1.717000000000000171e+01
3.109999999999999876e+00
-4.919999999999999929e+00
2.000000000000000000e+00
-1.792000000000000171e+01
-2.750000000000000000e+00
2.469000000000000128e+01
-1.188000000000000078e+01
1.400999999999999979e+01
4.809999999999999609e+00
4.899999999999999911e-01
1.076999999999999957e+01
8.560000000000000497e+00
-1.117999999999999972e+01
1.764999999999999858e+01
-7.099999999999999645e+00
-1.860000000000000142e+01
8.439999999999999503e+00
-5.709999999999999964e+00
1.027999999999999936e+01
2.680000000000000160e+00
-3.649999999999999911e+00
6.540000000000000036e+00
-4.799999999999999822e+00
-1.646000000000000085e+01
3.029999999999999805e+00
2.169999999999999929e+00
-1.219999999999999973e+00
7.910000000000000142e+00
-5.969999999999999751e+00
6.480000000000000426e+00
1.061999999999999922e+01
-1.039000000000000057e+01
-4.549999999999999822e+00
-1.646999999999999886e+01
5.309999999999999609e+00
1.344999999999999929e+01
2.299999999999999822e+00
-1.150000000000000000e+01
1.038000000000000078e+01
1.340000000000000080e+00
1.679999999999999938e+00
5.370000000000000107e+00
-9.470000000000000639e+00
-1.394999999999999929e+01
8.390000000000000568e+00
-2.029999999999999805e+00
1.989999999999999991e+00
8.750000000000000000e+00
4.357999999999999829e+01
-1.341000000000000014e+01
-1.100000000000000000e+01
-1.506000000000000050e+01
9.310000000000000497e+00
1.052999999999999936e+01
-2.714999999999999858e+01
-2.890000000000000124e+00
7.200000000000000178e+00
-7.889999999999999680e+00
1.425999999999999979e+01
7.709999999999999964e+00
-1.760999999999999943e+01
8.660000000000000142e+00
1.085999999999999943e+01
-1.225000000000000000e+01
4.040000000000000036e+00
1.189999999999999947e+00
-1.826999999999999957e+01
1.499000000000000021e+01
5.610000000000000320e+00
-1.366000000000000014e+01
1.785999999999999943e+01
-4.290000000000000036e+00
-1.351999999999999957e+01
1.126999999999999957e+01
-4.620000000000000107e+00
-1.787999999999999901e+01
1.375999999999999979e+01
-5.100000000000000089e-01
-7.469999999999999751e+00
1.689999999999999858e+01
-3.410000000000000142e+00
1.800000000000000044e+00
1.521000000000000085e+01
-9.679999999999999716e+00
-3.770000000000000018e+00
8.339999999999999858e+00
-1.085999999999999943e+01
6.120000000000000107e+00
1.517999999999999972e+01
-3.790000000000000036e+00
-7.599999999999999645e+00
9.470000000000000639e+00
-6.330000000000000071e+00
8.429999999999999716e+00
1.540000000000000036e+01
-1.116000000000000014e+01
1.433000000000000007e+01
5.440000000000000391e+00
-2.073000000000000043e+01
-1.969999999999999973e+00
4.599999999999999645e+00
9.470000000000000639e+00
2.200000000000000178e+00
1.489999999999999991e+00
-7.000000000000000000e+00
2.540000000000000036e+00
4.889999999999999680e+00
-1.084999999999999964e+01
1.325000000000000000e+01
1.308999999999999986e+01
-1.322000000000000064e+01
1.457000000000000028e+01
1.539000000000000057e+01
-1.844999999999999929e+01
5.769999999999999574e+00
-1.780000000000000027e+00
-2.142999999999999972e+01
1.338000000000000078e+01
3.560000000000000053e+00
-1.789000000000000057e+01
1.500000000000000000e+01
6.030000000000000249e+00
-1.660000000000000142e+01
1.060999999999999943e+01
-2.819999999999999840e+00
-2.201000000000000156e+01
4.650000000000000355e+00
-4.600000000000000200e-01
-2.299999999999999822e+00
1.288000000000000078e+01
4.230000000000000426e+00
-4.000000000000000222e-01
7.549999999999999822e+00
-9.689999999999999503e+00
-2.839999999999999858e+00
7.900000000000000355e+00
-1.176999999999999957e+01
-7.199999999999999734e-01
6.950000000000000178e+00
7.000000000000000000e+00
1.330000000000000071e+01
4.950000000000000178e+00
-1.880999999999999872e+01
-7.309999999999999609e+00
-1.283999999999999986e+01
-6.059999999999999609e+00
1.415000000000000036e+01
2.196999999999999886e+01
-1.923000000000000043e+01
1.573000000000000043e+01
5.759999999999999787e+00
-1.159999999999999964e+01
7.549999999999999822e+00
3.700000000000000178e+00
4.302000000000000313e+01
-2.428000000000000114e+01
-2.257000000000000028e+01
-1.937999999999999901e+01
3.792999999999999972e+01
-2.310000000000000053e+00
-5.121999999999999886e+01
-2.671999999999999886e+01
1.005000000000000071e+01
8.490000000000000213e+00
2.123000000000000043e+01
3.847999999999999687e+01
2.460000000000000142e+01
-4.411999999999999744e+01
-5.525000000000000000e+01
-2.783999999999999986e+01
5.300000000000000266e-01
2.437999999999999901e+01
9.289999999999999147e+00
1.517999999999999972e+01
3.529999999999999805e+00
1.900000000000000022e-01
3.265999999999999659e+01
1.898999999999999844e+01
8.699999999999999956e-01
1.899999999999999911e+00
3.151000000000000156e+01
1.051999999999999957e+01
7.879999999999999893e+00
-5.595000000000000284e+01
-5.646999999999999886e+01
-1.497000000000000064e+01
-1.876999999999999957e+01
2.810000000000000053e+00
1.291000000000000014e+01
-1.316999999999999993e+01
1.653000000000000114e+01
2.737000000000000099e+01
-6.179999999999999716e+00
2.771000000000000085e+01
1.671000000000000085e+01
-2.328999999999999915e+01
1.408999999999999986e+01
-2.237999999999999901e+01
-2.492999999999999972e+01
9.210000000000000853e+00
1.552999999999999936e+01
-3.610000000000000142e+01
2.637999999999999901e+01
3.288000000000000256e+01
-2.053999999999999915e+01
-1.889000000000000057e+01
1.717000000000000171e+01
1.058999999999999986e+01
-2.196000000000000085e+01
1.905999999999999872e+01
1.305000000000000071e+01
-1.283999999999999986e+01
5.160000000000000142e+00
-6.160000000000000142e+00
-2.891000000000000014e+01
-5.440000000000000391e+00
1.642999999999999972e+01
-2.859999999999999876e+00
9.039999999999999147e+00
-4.669999999999999929e+00
4.169999999999999929e+00
2.914000000000000057e+01
2.103999999999999915e+01
-2.041000000000000014e+01
-1.701000000000000156e+01
-4.870000000000000107e+00
-1.862000000000000099e+01
-3.240000000000000213e+00
-2.189999999999999947e+00
-2.830000000000000071e+00
2.355000000000000071e+01
1.377999999999999936e+01
5.300000000000000266e-01
1.978999999999999915e+01
-9.439999999999999503e+00
-6.019999999999999574e+00
-1.070000000000000062e+00
-2.398999999999999844e+01
9.669999999999999929e+00
-4.669999999999999929e+00
8.900000000000000355e+00
3.359999999999999876e+00
1.121000000000000085e+01
6.899999999999999467e-01
1.174000000000000021e+01
4.860000000000000320e+00
-8.699999999999999289e+00
-1.481000000000000050e+01
4.129999999999999893e+00
-9.820000000000000284e+00
-1.324000000000000021e+01
2.421000000000000085e+01
-8.929999999999999716e+00
-8.007999999999999829e+01
3.790000000000000036e+00
6.052000000000000313e+01
5.299999999999999822e+00
1.689999999999999858e+01
3.704999999999999716e+01
-6.070000000000000284e+00
1.041000000000000014e+01
-8.630000000000000782e+00
-2.569999999999999929e+01
1.820000000000000062e+00
9.300000000000000488e-01
-3.299999999999999822e+00
1.541000000000000014e+01
1.669999999999999929e+00
-1.221000000000000085e+01
5.000000000000000000e+00
-9.089999999999999858e+00
-1.490000000000000036e+01
1.006000000000000050e+01
-3.680000000000000160e+00
-8.029999999999999361e+00
1.228999999999999915e+01
-5.530000000000000249e+00
1.180000000000000071e+01
8.769999999999999574e+00
-4.699999999999999734e-01
6.280000000000000249e+00
-2.099999999999999922e-01
-1.828999999999999915e+01
6.269999999999999574e+00
4.699999999999999734e-01
-1.282000000000000028e+01
2.867000000000000171e+01
1.735000000000000142e+01
-2.403999999999999915e+01
2.053999999999999915e+01
5.330000000000000071e+00
-3.164000000000000057e+01
5.339999999999999858e+00
2.091000000000000014e+01
6.731999999999999318e+01
-1.314900000000000091e+02
-1.980000000000000071e+01
6.490999999999999659e+01
-3.577000000000000313e+01
-1.066000000000000014e+01
-9.400000000000000355e+00
3.100000000000000089e+00
2.029999999999999805e+00
-1.091999999999999993e+01
1.208999999999999986e+01
-2.140000000000000124e+00
-9.490000000000000213e+00
9.009999999999999787e+00
-4.259999999999999787e+00
-5.700000000000000178e+00
8.519999999999999574e+00
-5.980000000000000426e+00
-1.959999999999999964e+00
1.163000000000000078e+01
-9.619999999999999218e+00
-2.810999999999999943e+01
1.939000000000000057e+01
-1.590000000000000080e+00
-2.212999999999999901e+01
5.799999999999999822e+00
-3.589999999999999858e+00
-9.300000000000000711e+00
1.175000000000000000e+01
-4.360000000000000320e+00
-2.173999999999999844e+01
1.551999999999999957e+01
-1.000000000000000000e+00
-1.860999999999999943e+01
1.778000000000000114e+01
-1.260000000000000009e+00
-4.275999999999999801e+01
1.878999999999999915e+01
6.769999999999999574e+00
-1.281000000000000050e+01
-2.939999999999999947e+00
-7.610000000000000320e+00
-1.550000000000000044e+00
2.180000000000000071e+01
-2.390000000000000124e+00
-1.832000000000000028e+01
1.457000000000000028e+01
1.692999999999999972e+01
-3.169999999999999929e+00
8.869999999999999218e+00
8.369999999999999218e+00
-1.438000000000000078e+01
1.090000000000000036e+01
9.750000000000000000e+00
-2.498000000000000043e+01
2.221999999999999886e+01
1.375999999999999979e+01
-8.519999999999999574e+00
-1.171099999999999994e+02
6.188000000000000256e+01
2.005000000000000071e+01
-8.298000000000000398e+01
1.058999999999999986e+01
1.378999999999999915e+01
-1.971999999999999886e+01
-3.771000000000000085e+01
-8.390000000000000568e+00
2.771000000000000085e+01
-1.491000000000000014e+01
-2.958999999999999986e+01
3.010999999999999943e+01
1.632999999999999829e+01
1.694999999999999929e+01
4.056000000000000227e+01
6.607999999999999829e+01
-4.121999999999999886e+01
-2.030999999999999943e+02
-7.469999999999999751e+00
5.232000000000000028e+01
1.978999999999999915e+01
2.503000000000000114e+01
1.149000000000000021e+01
-2.430999999999999872e+01
-1.244999999999999929e+01
-1.675000000000000000e+01
1.216000000000000014e+01
2.051000000000000156e+01
3.069999999999999840e+00
4.030000000000000249e+00
7.830000000000000071e+00
-2.894999999999999929e+01
-1.039000000000000057e+01
9.660000000000000142e+00
-1.075000000000000000e+01
1.080000000000000071e+00
3.709999999999999964e+00
-2.300000000000000000e+01
1.063000000000000078e+01
2.932000000000000028e+01
-1.608999999999999986e+01
4.877000000000000313e+01
-1.002999999999999936e+01
-6.437000000000000455e+01
-1.246000000000000085e+01
5.146000000000000085e+01
-5.110000000000000320e+00
-1.070000000000000062e+00
3.574000000000000199e+01
4.177000000000000313e+01
1.415000000000000036e+01
5.900000000000000355e+00
-7.040999999999999659e+01
-2.651000000000000156e+01
1.848999999999999844e+01
-2.470000000000000195e+00
-8.900000000000000355e+00
8.895999999999999375e+01
-3.680000000000000160e+00
6.169999999999999929e+00
6.139999999999999680e+00
-8.259000000000000341e+01
1.469999999999999929e+01
-1.408000000000000007e+01
1.646999999999999886e+01
3.250999999999999801e+01
2.355999999999999872e+01
-4.810000000000000142e+01
-2.169000000000000128e+01
-2.746999999999999886e+01
2.791000000000000014e+01
3.482999999999999829e+01
-3.767999999999999972e+01
4.234000000000000341e+01
2.200000000000000011e-01
-1.018999999999999950e+01
-4.424000000000000199e+01
6.257999999999999829e+01
1.492999999999999972e+01
-2.232000000000000028e+01
-5.217000000000000171e+01
-3.842999999999999972e+01
6.568000000000000682e+01
3.187000000000000099e+01
-1.559999999999999964e+01
-6.099999999999999645e+00
1.382000000000000028e+01
1.655999999999999872e+01
-1.790000000000000036e+00
3.549999999999999822e+00
-3.632000000000000028e+01
6.519999999999999574e+00
-1.075000000000000000e+01
-1.252999999999999936e+01
1.332000000000000028e+01
2.229999999999999982e+00
2.149999999999999911e+00
7.769999999999999574e+00
-8.279999999999999361e+00
6.589999999999999858e+00
2.799999999999999822e+00
-1.406000000000000050e+01
8.179999999999999716e+00
-1.687999999999999901e+01
-1.544999999999999929e+01
1.000000000000000000e+00
1.591999999999999993e+01
-4.940000000000000391e+00
4.647999999999999687e+01
-5.361999999999999744e+01
-1.561999999999999922e+01
6.669999999999999929e+00
-1.992000000000000171e+01
-4.429999999999999716e+01
2.464999999999999858e+01
3.025000000000000000e+01
1.980000000000000071e+01
-1.017999999999999972e+01
1.239000000000000057e+01
-3.721000000000000085e+01
-3.917999999999999972e+01
-2.026999999999999957e+01
8.720000000000000639e+00
1.653999999999999915e+01
1.483999999999999986e+01
-1.028999999999999915e+01
1.466999999999999993e+01
-5.620000000000000107e+00
3.220000000000000195e+00
-3.900000000000000133e-01
-3.057000000000000028e+01
-1.515000000000000036e+01
2.412000000000000099e+01
4.690000000000000391e+00
-2.875000000000000000e+01
1.127999999999999936e+01
7.080000000000000071e+00
4.049999999999999822e+00
2.016000000000000014e+01
3.997999999999999687e+01
-1.108999999999999986e+01
8.900000000000000133e-01
-3.009999999999999787e+00
-1.242999999999999972e+01
1.350999999999999979e+01
-7.950000000000000178e+00
-9.699999999999999734e-01
1.553999999999999915e+01
-6.879999999999999893e+00
-2.048000000000000043e+01
1.069999999999999929e+01
-1.159999999999999920e+00
-2.549999999999999822e+00
1.040000000000000036e+00
3.427000000000000313e+01
-8.759999999999999432e+01
2.155999999999999872e+01
2.914999999999999858e+01
1.129999999999999893e+00
2.660999999999999943e+01
2.521999999999999886e+01
7.503000000000000114e+01
-7.042000000000000171e+01
-2.386899999999999977e+02
5.459000000000000341e+01
-1.102999999999999936e+01
-8.059000000000000341e+01
3.960999999999999943e+01
4.104999999999999716e+01
7.910000000000000142e+00
-1.570000000000000062e+00
5.419999999999999929e+00
3.553999999999999915e+01
-3.784000000000000341e+01
-6.715000000000000568e+01
3.055000000000000071e+01
4.546999999999999886e+01
7.809999999999999609e+00
5.489999999999999858e+01
-2.476999999999999957e+01
-1.671000000000000085e+01
1.737000000000000099e+01
-2.796000000000000085e+01
-3.346000000000000085e+01
4.342000000000000171e+01
-1.522000000000000064e+01
6.334000000000000341e+01
1.108000000000000007e+01
-4.228000000000000114e+01
-3.889000000000000057e+01
-2.549999999999999822e+00
8.104999999999999716e+01
7.360000000000000320e+00
-1.096000000000000085e+01
-6.540000000000000036e+00
1.139000000000000057e+01
6.718000000000000682e+01
-6.028000000000000114e+01
1.261999999999999922e+01
8.212999999999999545e+01
-1.665600000000000023e+02
9.634999999999999432e+01
2.521999999999999886e+01
-4.540999999999999659e+01
8.539999999999999147e+00
-3.790000000000000036e+00
5.057999999999999829e+01
1.989999999999999858e+01
-3.517000000000000171e+01
-1.989000000000000057e+01
2.985999999999999943e+01
8.439999999999999503e+00
1.253999999999999915e+01
-4.684000000000000341e+01
-9.109999999999999432e+00
3.420000000000000284e+01
2.275000000000000000e+01
1.908999999999999986e+01
1.381000000000000050e+01
-2.600000000000000089e-01
4.346999999999999886e+01
-2.076999999999999957e+01
-8.557999999999999829e+01
-3.041000000000000014e+01
8.134999999999999432e+01
-2.182999999999999829e+01
3.845000000000000284e+01
1.050000000000000000e+01
-7.519999999999999574e+00
-1.669000000000000128e+01
-7.940000000000000391e+00
4.607000000000000028e+01
2.629999999999999893e+00
-2.357000000000000028e+01
7.219999999999999751e+00
1.591999999999999993e+01
5.110000000000000320e+00
-1.232000000000000028e+01
-4.092999999999999972e+01
1.578999999999999915e+01
1.964999999999999858e+01
3.696000000000000085e+01
-1.090000000000000080e+00
-1.866000000000000014e+01
-2.294000000000000128e+01
1.680000000000000071e+01
5.435000000000000142e+01
9.240000000000000213e+00
-1.371000000000000085e+01
-1.236999999999999922e+01
1.594999999999999929e+01
-1.876000000000000156e+01
3.482999999999999829e+01
9.199999999999999289e+00
-3.646000000000000085e+01
-2.460000000000000142e+01
2.226000000000000156e+01
-3.399999999999999911e+00
-9.339999999999999858e+00
5.934000000000000341e+01
-3.144000000000000128e+01
-8.156999999999999318e+01
-2.514000000000000057e+01
1.908999999999999986e+01
8.859999999999999432e+00
-1.533999999999999986e+01
5.747999999999999687e+01
1.186299999999999955e+02
-1.797700000000000102e+02
-9.009999999999999787e+00
1.275999999999999979e+01
2.921999999999999886e+01
2.901000000000000156e+01
-7.549999999999999822e+00
1.000000000000000056e-01
1.760999999999999943e+01
5.049999999999999822e+00
-3.268999999999999773e+01
7.959999999999999964e+00
2.399999999999999911e-01
-2.187000000000000099e+01
-3.450000000000000178e+00
8.839000000000000057e+01
-1.024000000000000021e+01
-1.091000000000000014e+01
-2.946000000000000085e+01
1.807000000000000028e+01
2.525000000000000000e+01
-5.157999999999999829e+01
7.260999999999999943e+01
4.511999999999999744e+01
-1.144000000000000057e+02
-2.167999999999999972e+01
1.853999999999999915e+01
8.779999999999999361e+00
3.818999999999999773e+01
7.945999999999999375e+01
-1.082800000000000011e+02
-7.379999999999999893e+00
-3.107999999999999829e+01
-7.539000000000000057e+01
-2.459999999999999964e+00
2.146000000000000085e+01
7.048999999999999488e+01
1.467199999999999989e+02
-4.689000000000000057e+01
-5.175999999999999801e+01
-3.471000000000000085e+01
-1.149399999999999977e+02
1.637000000000000099e+01
4.689000000000000057e+01
7.326999999999999602e+01
-6.110000000000000320e+00
-3.990000000000000213e+00
-3.196999999999999886e+01
-1.341000000000000014e+01
7.679999999999999716e+00
2.257999999999999829e+01
-3.160000000000000142e+00
-2.080000000000000071e+01
-1.689999999999999947e+00
2.844000000000000128e+01
-1.903000000000000114e+01
1.205000000000000071e+01
9.699999999999999734e-01
-3.096000000000000085e+01
3.810000000000000053e+00
1.503999999999999915e+01
-1.136800000000000068e+02
-1.380000000000000071e+01
1.213000000000000078e+01
2.523999999999999844e+01
2.364999999999999858e+01
-1.106000000000000050e+01
2.442999999999999972e+01
-1.870000000000000107e+00
-2.264999999999999858e+01
1.616000000000000014e+01
-1.644999999999999929e+01
-3.709000000000000341e+01
2.682000000000000028e+01
9.300000000000000711e+00
7.217000000000000171e+01
3.746000000000000085e+01
-1.236200000000000045e+02
-2.348999999999999844e+01
2.101000000000000156e+01
-5.389999999999999680e+00
-2.189999999999999947e+00
5.590999999999999659e+01
-3.609999999999999876e+00
-4.503999999999999915e+01
-7.870000000000000107e+00
3.229999999999999716e+01
1.626000000000000156e+01
2.392000000000000171e+01
1.642999999999999972e+01
-3.686999999999999744e+01
-1.637000000000000099e+01
1.676000000000000156e+01
4.219999999999999751e+00
2.932999999999999829e+01
1.197000000000000064e+01
-2.908999999999999986e+01
2.500000000000000000e+00
5.019999999999999574e+00
-1.183999999999999986e+01
3.620000000000000284e+01
-3.120000000000000107e+00
-3.082999999999999829e+01
-3.240999999999999659e+01
1.080000000000000071e+00
2.951000000000000156e+01
-1.208999999999999986e+01
3.242999999999999972e+01
1.483999999999999986e+01
-1.930999999999999872e+01
4.620000000000000107e+00
3.310000000000000142e+01
-1.933999999999999986e+01
5.190000000000000391e+00
5.217000000000000171e+01
-1.065000000000000036e+01
-1.808999999999999986e+01
-6.078000000000000114e+01
6.790000000000000036e+00
1.635999999999999943e+01
-2.135999999999999943e+01
5.817000000000000171e+01
-1.211999999999999922e+01
-7.190000000000000391e+00
1.073000000000000043e+01
-1.469999999999999973e+00
1.612000000000000099e+01
7.129999999999999893e+00
3.586999999999999744e+01
2.778000000000000114e+01
-8.599999999999999645e+00
-4.204999999999999716e+01
-8.660000000000000142e+00
2.512999999999999901e+01
4.407000000000000028e+01
-5.999999999999999778e-01
2.560000000000000142e+01
3.128000000000000114e+01
-4.803000000000000114e+01
1.198400000000000034e+02
-3.510999999999999943e+01
-1.025699999999999932e+02
-1.717000000000000171e+01
2.369000000000000128e+01
1.689999999999999947e+00
-1.515000000000000036e+01
7.429999999999999716e+00
-1.011999999999999922e+01
4.330000000000000071e+00
2.629999999999999893e+00
-1.144999999999999929e+01
5.799999999999999822e+00
2.300000000000000100e-01
3.189999999999999947e+00
1.300999999999999979e+01
-1.377999999999999936e+01
-6.679999999999999716e+00
5.179999999999999716e+00
-9.689999999999999503e+00
1.421000000000000085e+01
-5.870000000000000107e+00
-1.208999999999999986e+01
3.112000000000000099e+01
-1.428999999999999915e+01
5.059999999999999609e+00
-2.376999999999999957e+01
-1.700000000000000000e+01
2.792000000000000171e+01
-1.673999999999999844e+01
2.339999999999999858e+01
2.342000000000000171e+01
-9.259999999999999787e+00
-9.710000000000000853e+00
-4.218999999999999773e+01
-4.959999999999999964e+00
3.228000000000000114e+01
-2.389999999999999858e+01
4.117999999999999972e+01
-2.889000000000000057e+01
-9.529999999999999361e+00
5.497999999999999687e+01
2.667000000000000171e+01
-2.369000000000000128e+01
4.450000000000000178e+00
-3.114000000000000057e+01
-2.421999999999999886e+01
1.626999999999999957e+01
1.100000000000000089e+00
-2.026000000000000156e+01
2.769000000000000128e+01
1.261999999999999922e+01
-1.992999999999999972e+01
4.730000000000000426e+00
-1.213000000000000078e+01
-1.534999999999999964e+01
1.215000000000000036e+01
-5.940000000000000391e+00
-5.570000000000000284e+00
1.510999999999999943e+01
-1.566000000000000014e+01
1.158000000000000007e+01
5.400000000000000355e+00
-2.780000000000000071e+01
1.680000000000000071e+01
-2.339999999999999858e+00
-1.949999999999999956e+00
2.555000000000000071e+01
-1.181000000000000050e+01
-1.060000000000000053e+00
7.459999999999999964e+00
-1.541999999999999993e+01
7.500000000000000000e+00
-6.919999999999999929e+00
-2.019000000000000128e+01
8.189999999999999503e+00
-1.614000000000000057e+01
5.699999999999999512e-01
6.009999999999999787e+00
-1.644999999999999929e+01
8.470000000000000639e+00
9.300000000000000711e+00
-1.810999999999999943e+01
1.801000000000000156e+01
7.839999999999999858e+00
-1.400999999999999979e+01
1.919000000000000128e+01
1.719999999999999929e+01
-3.069999999999999840e+00
1.000000000000000000e+00
1.093999999999999950e+01
9.699999999999999734e-01
-9.050000000000000711e+00
1.949999999999999956e+00
-1.051999999999999957e+01
-5.860000000000000320e+00
6.860000000000000320e+00
-9.400000000000000355e+00
-3.609999999999999876e+00
3.089999999999999858e+00
-2.923999999999999844e+01
6.392999999999999972e+01
2.755999999999999872e+01
-3.268999999999999773e+01
-4.179999999999999716e+00
2.899999999999999800e-01
-1.457000000000000028e+01
2.641000000000000014e+01
3.985999999999999943e+01
8.919999999999999929e+00
-3.082999999999999829e+01
-3.679999999999999716e+01
-1.577999999999999936e+01
8.070000000000000284e+00
-9.349999999999999645e+00
2.609999999999999876e+00
2.062000000000000099e+01
4.118999999999999773e+01
-2.350000000000000000e+01
-3.435999999999999943e+01
-1.701999999999999957e+01
-2.760000000000000142e+01
-1.789000000000000057e+01
-1.321000000000000085e+01
3.703000000000000114e+01
4.719999999999999751e+00
1.785000000000000142e+01
1.125000000000000000e+01
-1.657000000000000028e+01
9.359999999999999432e+00
6.169999999999999929e+00
-2.050000000000000000e+01
1.703999999999999915e+01
-1.000000000000000021e-02
-2.023000000000000043e+01
1.427999999999999936e+01
5.129999999999999893e+00
-1.828999999999999915e+01
1.193999999999999950e+01
1.760000000000000009e+00
-1.930999999999999872e+01
1.573000000000000043e+01
4.299999999999999933e-01
-2.601000000000000156e+01
9.140000000000000568e+00
-5.999999999999999778e-02
-2.342000000000000171e+01
7.589999999999999858e+00
3.250000000000000000e+00
-9.779999999999999361e+00
1.325000000000000000e+01
-1.209999999999999964e+00
-2.023999999999999844e+01
7.480000000000000426e+00
-1.320000000000000062e+00
-1.009999999999999964e+01
6.203000000000000114e+01
2.932999999999999829e+01
-1.486999999999999922e+01
-4.847999999999999687e+01
-2.664000000000000057e+01
2.970000000000000195e+00
3.085999999999999943e+01
1.370000000000000107e+00
-1.423000000000000043e+01
8.349999999999999645e+00
1.349000000000000021e+01
7.400000000000000355e+00
9.660000000000000142e+00
-2.346999999999999886e+01
3.689000000000000057e+01
7.349999999999999645e+00
-7.070000000000000284e+00
-1.403999999999999915e+01
-1.840000000000000080e+00
5.553999999999999915e+01
-4.195000000000000284e+01
-4.189000000000000057e+01
-1.696999999999999886e+01
2.578000000000000114e+01
-1.151999999999999957e+01
-2.310000000000000142e+01
1.458999999999999986e+01
8.419999999999999929e+00
-3.938000000000000256e+01
-6.379999999999999893e+00
1.183999999999999986e+01
1.397000000000000064e+01
-3.560000000000000053e+00
9.640000000000000568e+00
-3.432999999999999829e+01
5.539000000000000057e+01
9.189999999999999503e+00
-2.137000000000000099e+01
-5.089999999999999858e+00
-3.689999999999999947e+00
4.150000000000000355e+00
1.093999999999999950e+01
-1.098000000000000043e+01
3.580000000000000071e+00
-8.419999999999999929e+00
2.910000000000000142e+00
3.318999999999999773e+01
-9.650000000000000355e+00
-3.672999999999999687e+01
-4.240000000000000213e+00
1.190000000000000036e+01
-4.214000000000000057e+01
7.445000000000000284e+01
1.009999999999999964e+01
-2.671999999999999886e+01
-1.578999999999999915e+01
-7.620000000000000107e+00
2.471000000000000085e+01
2.600000000000000000e+01
-5.142000000000000171e+01
-1.073000000000000043e+01
2.973999999999999844e+01
2.807999999999999829e+01
-4.740000000000000213e+00
7.299999999999999822e-01
-1.342999999999999972e+01
-1.581000000000000050e+01
2.049999999999999822e+00
-1.039000000000000057e+01
-2.214999999999999858e+01
3.700000000000000178e+00
7.600000000000000089e-01
-3.300000000000000000e+01
3.803000000000000114e+01
1.400000000000000000e+01
-5.660000000000000142e+00
1.960000000000000142e+01
-3.452000000000000313e+01
-3.142000000000000171e+01
1.864999999999999858e+01
1.060999999999999943e+01
1.102999999999999936e+01
6.450000000000000178e+00
-2.005000000000000071e+01
-1.810000000000000142e+01
1.449999999999999956e+00
-4.129999999999999893e+00
1.199999999999999956e+00
1.689000000000000057e+01
-5.330000000000000071e+00
3.850000000000000089e+00
6.199999999999999956e-01
-2.060999999999999943e+01
4.240000000000000213e+00
1.810999999999999943e+01
-1.600000000000000033e-01
7.110000000000000320e+00
-8.250000000000000000e+00
8.490000000000000213e+00
2.642000000000000171e+01
2.029999999999999805e+00
-2.423999999999999844e+01
5.620000000000000107e+00
-8.000000000000000444e-01
-2.417000000000000171e+01
1.147000000000000064e+01
-1.580000000000000071e+00
-3.286999999999999744e+01
4.719999999999999751e+00
-3.759999999999999787e+00
-3.008999999999999986e+01
3.425000000000000000e+01
1.360999999999999943e+01
-1.464000000000000057e+01
3.549999999999999822e+00
-5.459999999999999964e+00
-1.307000000000000028e+01
2.573000000000000043e+01
-8.880000000000000782e+00
-1.353999999999999915e+01
8.460000000000000853e+00
6.500000000000000000e+00
3.198000000000000043e+01
6.307000000000000028e+01
-7.035999999999999943e+01
-2.623000000000000043e+01
1.687999999999999901e+01
-4.419999999999999929e+00
3.900000000000000133e-01
3.529999999999999805e+00
-2.289999999999999858e+01
9.349999999999999645e+00
3.403000000000000114e+01
1.224000000000000021e+01
-1.469999999999999973e+00
1.355000000000000071e+01
5.000000000000000000e+00
-5.969999999999999751e+00
1.328999999999999915e+01
2.609999999999999876e+00
-8.019999999999999574e+00
2.275000000000000000e+01
-9.619999999999999218e+00
-3.300999999999999801e+01
8.169999999999999929e+00
-7.519999999999999574e+00
2.899999999999999911e+00
3.442000000000000171e+01
2.230999999999999872e+01
-5.382000000000000028e+01
-9.060000000000000497e+00
-1.839999999999999858e+01
-7.309999999999999609e+00
1.790000000000000036e+00
-7.410000000000000142e+00
1.169999999999999929e+01
8.070000000000000284e+00
-1.191000000000000014e+01
2.787000000000000099e+01
5.759000000000000341e+01
-2.426000000000000156e+01
-5.582000000000000028e+01
-8.310000000000000497e+00
-5.406000000000000227e+01
6.679999999999999716e+00
-4.825000000000000000e+01
1.628300000000000125e+02
4.153999999999999915e+01
-9.351000000000000512e+01
3.200000000000000000e+01
-6.559999999999999609e+00
8.101999999999999602e+01
-4.410000000000000142e+00
-4.131000000000000227e+01
-3.160000000000000142e+00
-2.169999999999999929e+00
1.015199999999999960e+02
-7.009000000000000341e+01
-1.128999999999999915e+01
1.300000000000000044e-01
-3.485999999999999943e+01
7.495999999999999375e+01
-8.919999999999999929e+00
-5.053999999999999915e+01
3.009999999999999787e+00
1.266999999999999993e+01
2.769000000000000128e+01
8.689999999999999503e+00
-2.844000000000000128e+01
6.410000000000000142e+00
7.280000000000000249e+00
-2.489000000000000057e+01
-1.717000000000000171e+01
3.747999999999999687e+01
4.969999999999999751e+00
2.551999999999999957e+01
7.429999999999999716e+00
-2.119000000000000128e+01
1.046000000000000085e+01
-4.510999999999999943e+01
-4.610000000000000320e+00
-1.639999999999999858e+01
2.001999999999999957e+01
-3.635000000000000142e+01
-7.339999999999999858e+00
1.639000000000000057e+01
-5.990000000000000213e+00
7.709999999999999964e+00
-2.571000000000000085e+01
7.599999999999999645e+00
2.582999999999999829e+01
-1.028999999999999915e+01
-3.101999999999999957e+01
1.502999999999999936e+01
1.185999999999999943e+01
-1.741000000000000014e+01
-4.049999999999999822e+00
5.879999999999999893e+00
1.493999999999999950e+01
-4.400000000000000355e+00
-3.592000000000000171e+01
8.990000000000000213e+00
8.240000000000000213e+00
-8.910000000000000142e+00
3.536999999999999744e+01
-7.780000000000000249e+00
-2.410999999999999943e+01
2.664999999999999858e+01
-4.400000000000000022e-01
-1.008000000000000007e+01
3.140000000000000124e+00
-1.698000000000000043e+01
5.899999999999999689e-01
1.701000000000000156e+01
-1.186999999999999922e+01
1.291000000000000014e+01
1.369999999999999929e+01
-1.637000000000000099e+01
1.589000000000000057e+01
1.461999999999999922e+01
-1.014000000000000057e+01
-3.399999999999999911e+00
-1.300000000000000044e-01
-7.860000000000000320e+00
-1.360000000000000098e+00
1.216000000000000014e+01
-2.701999999999999957e+01
1.628999999999999915e+01
2.132999999999999829e+01
-1.492999999999999972e+01
1.023000000000000043e+01
6.889999999999999680e+00
-1.664000000000000057e+01
-6.669999999999999929e+00
1.771000000000000085e+01
-1.248000000000000043e+01
1.411999999999999922e+01
-9.140000000000000568e+00
-1.623000000000000043e+01
1.280000000000000071e+01
-7.129999999999999893e+00
1.750000000000000000e+00
1.527999999999999936e+01
-3.560000000000000053e+00
6.849999999999999645e+00
5.870000000000000107e+00
-1.527999999999999936e+01
1.024000000000000021e+01
7.870000000000000107e+00
-1.721999999999999886e+01
1.206000000000000050e+01
5.759999999999999787e+00
-1.960000000000000142e+01
1.239000000000000057e+01
6.910000000000000142e+00
-2.139000000000000057e+01
1.427999999999999936e+01
4.280000000000000249e+00
-2.114999999999999858e+01
1.290000000000000036e+01
3.169999999999999929e+00
-2.217999999999999972e+01
1.117999999999999972e+01
4.889999999999999680e+00
-1.814000000000000057e+01
1.025000000000000000e+01
-1.189999999999999947e+00
-1.497000000000000064e+01
9.900000000000000355e+00
5.500000000000000444e-01
-9.949999999999999289e+00
9.689999999999999503e+00
-5.709999999999999964e+00
-8.109999999999999432e+00
9.609999999999999432e+00
-6.900000000000000355e+00
7.700000000000000178e-01
7.450000000000000178e+00
-1.074000000000000021e+01
2.419999999999999929e+00
5.879999999999999893e+00
-1.330000000000000071e+01
1.123000000000000043e+01
8.949999999999999289e+00
-1.807999999999999829e+01
7.580000000000000071e+00
7.330000000000000071e+00
-1.235999999999999943e+01
1.903000000000000114e+01
2.029999999999999805e+00
-1.583000000000000007e+01
1.256000000000000050e+01
2.470000000000000195e+00
-1.705999999999999872e+01
9.429999999999999716e+00
-4.600000000000000200e-01
-1.374000000000000021e+01
7.879999999999999893e+00
-6.459999999999999964e+00
-8.199999999999999289e+00
8.619999999999999218e+00
-2.800000000000000266e-01
-2.120000000000000107e+00
-1.979999999999999982e+00
-1.197000000000000064e+01
-9.439999999999999503e+00
1.166000000000000014e+01
-9.410000000000000142e+00
-5.639999999999999680e+00
5.480000000000000426e+00
-1.125000000000000000e+01
-2.700000000000000178e-01
8.019999999999999574e+00
-1.441000000000000014e+01
8.060000000000000497e+00
2.649999999999999911e+00
-1.033000000000000007e+01
1.257000000000000028e+01
8.419999999999999929e+00
-1.252999999999999936e+01
1.215000000000000036e+01
8.740000000000000213e+00
-2.380999999999999872e+01
3.620000000000000107e+00
-1.016000000000000014e+01
-4.759999999999999787e+00
1.175999999999999979e+01
-7.950000000000000178e+00
3.520000000000000018e+00
8.669999999999999929e+00
-9.439999999999999503e+00
1.040000000000000036e+01
9.240000000000000213e+00
-1.189000000000000057e+01
8.589999999999999858e+00
1.019999999999999929e+01
-7.709999999999999964e+00
1.550000000000000044e+00
1.021000000000000085e+01
-2.759999999999999787e+00
-5.059999999999999609e+00
9.900000000000000355e+00
-5.299999999999999822e+00
-1.082000000000000028e+01
9.269999999999999574e+00
-4.349999999999999645e+00
-9.570000000000000284e+00
9.830000000000000071e+00
-7.399999999999999911e-01
-1.357000000000000028e+01
6.290000000000000036e+00
-3.169999999999999929e+00
-1.175999999999999979e+01
1.355000000000000071e+01
2.350000000000000089e+00
-9.550000000000000711e+00
9.869999999999999218e+00
3.597999999999999687e+01
-3.885999999999999943e+01
1.429999999999999938e+00
5.011999999999999744e+01
-3.215999999999999659e+01
-2.312000000000000099e+01
-8.380000000000000782e+00
-2.767999999999999972e+01
-2.367999999999999972e+01
6.839999999999999858e+00
5.400000000000000000e+01
6.290000000000000036e+00
-2.880999999999999872e+01
3.919999999999999929e+00
7.080000000000000071e+00
2.146000000000000085e+01
1.225999999999999979e+01
1.501100000000000136e+02
-3.048999999999999844e+01
-7.070000000000000284e+01
4.913000000000000256e+01
-5.599999999999999645e+00
-3.414000000000000057e+01
-3.057999999999999829e+01
-4.328999999999999915e+01
1.436899999999999977e+02
7.592000000000000171e+01
-7.675000000000000000e+01
5.027000000000000313e+01
-2.732999999999999829e+01
4.214999999999999858e+01
-6.022999999999999687e+01
-2.994000000000000128e+01
2.717099999999999795e+02
-1.353100000000000023e+02
-6.578000000000000114e+01
4.289999999999999858e+01
9.725000000000000000e+01
-1.982299999999999898e+02
3.325000000000000000e+01
1.064000000000000057e+02
-1.552199999999999989e+02
8.650000000000000355e+00
2.535300000000000011e+02
-2.099999999999999922e-01
-1.372400000000000091e+02
6.830000000000000071e+00
1.033199999999999932e+02
-5.942999999999999972e+01
8.156999999999999318e+01
2.003999999999999915e+01
3.264999999999999858e+01
-1.285999999999999943e+01
-1.020000000000000018e+00
-7.673000000000000398e+01
8.870000000000000284e+01
-2.182000000000000028e+01
1.758999999999999986e+01
-7.435999999999999943e+01
1.116999999999999993e+01
5.610000000000000142e+01
3.479999999999999716e+01
1.588000000000000078e+01
2.800000000000000000e+01
7.768000000000000682e+01
-3.097799999999999727e+02
1.083599999999999994e+02
1.330000000000000071e+01
-2.528000000000000114e+01
1.227199999999999989e+02
-1.224399999999999977e+02
9.459000000000000341e+01
4.321999999999999886e+01
-9.634999999999999432e+01
-9.067000000000000171e+01
1.951999999999999957e+01
-7.559999999999999609e+00
-6.095000000000000284e+01
1.053700000000000045e+02
2.957000000000000028e+01
-3.242999999999999972e+01
5.738000000000000256e+01
-2.332000000000000028e+01
-2.307000000000000028e+01
-3.153000000000000114e+01
-2.439000000000000057e+01
-4.740999999999999659e+01
2.092999999999999972e+01
7.139999999999999680e+00
-1.210999999999999943e+01
-8.157999999999999829e+01
3.449000000000000199e+01
5.517999999999999972e+01
-6.519999999999999574e+00
-5.046000000000000085e+01
1.867999999999999972e+01
1.067999999999999972e+01
-3.513000000000000256e+01
3.306000000000000227e+01
1.066999999999999993e+01
1.559999999999999964e+01
-3.606000000000000227e+01
-1.415000000000000036e+01
2.116000000000000014e+01
4.150000000000000000e+01
-3.264000000000000057e+01
6.307000000000000028e+01
-6.904000000000000625e+01
5.645000000000000284e+01
2.467999999999999972e+01
-8.087000000000000455e+01
-2.369999999999999929e+01
-5.699000000000000199e+01
-7.446999999999999886e+01
2.628500000000000227e+02
-3.427500000000000000e+02
-1.640000000000000000e+02
2.657699999999999818e+02
8.201999999999999602e+01
-7.759999999999999787e+00
3.141000000000000014e+01
1.410999999999999943e+01
1.428899999999999864e+02
2.719499999999999886e+02
-3.278700000000000045e+02
-1.474699999999999989e+02
7.509999999999999787e+00
1.812000000000000099e+01
-2.117000000000000171e+01
2.535000000000000142e+01
1.423000000000000043e+01
-2.467000000000000171e+01
-3.167000000000000171e+01
-4.410000000000000142e+01
8.500000000000000000e+00
-8.720000000000000639e+00
-6.139999999999999680e+00
-3.128000000000000114e+01
1.869999999999999929e+01
1.673000000000000043e+01
8.410000000000000142e+00
-6.240000000000000213e+00
-1.780000000000000071e+01
-5.769999999999999574e+00
-1.958999999999999986e+01
9.359999999999999432e+00
2.849499999999999886e+02
8.262000000000000455e+01
-1.942299999999999898e+02
-7.265999999999999659e+01
-2.062599999999999909e+02
2.305999999999999943e+02
3.017200000000000273e+02
-5.742999999999999972e+01
-4.984900000000000091e+02
4.297500000000000000e+02
3.985000000000000142e+01
-1.005900000000000034e+02
7.795999999999999375e+01
1.325399999999999920e+02
-6.093999999999999773e+01
-1.701000000000000156e+01
-3.112000000000000099e+01
1.737999999999999901e+01
-1.288000000000000078e+01
-3.879999999999999716e+01
9.696999999999999886e+01
-1.078999999999999915e+01
-5.178999999999999915e+01
-3.189999999999999947e+00
1.359999999999999964e+01
1.308499999999999943e+02
1.876999999999999957e+01
-5.231000000000000227e+01
7.284999999999999432e+01
3.130999999999999872e+01
-5.017999999999999972e+01
2.507999999999999829e+01
-1.416999999999999993e+01
3.938000000000000256e+01
1.653000000000000114e+01
-3.132999999999999829e+01
4.411999999999999744e+01
-7.610000000000000320e+00
-2.746000000000000085e+01
-6.950000000000000000e+01
-6.910000000000000142e+00
1.402199999999999989e+02
4.903000000000000114e+01
-3.399999999999999911e+00
-5.530000000000000249e+00
3.596000000000000085e+01
-2.610000000000000142e+01
-2.378000000000000114e+01
5.138000000000000256e+01
4.009999999999999787e+00
-3.290000000000000036e+00
1.127999999999999936e+01
-8.539999999999999147e+00
-1.316999999999999993e+01
-2.279999999999999805e+00
2.970000000000000195e+00
1.607000000000000028e+01
9.506000000000000227e+01
-8.031999999999999318e+01
-4.927000000000000313e+01
-1.129500000000000028e+02
1.628000000000000114e+01
5.207000000000000028e+01
6.562000000000000455e+01
-4.885999999999999943e+01
5.371000000000000085e+01
-1.573000000000000043e+01
-9.737000000000000455e+01
3.495000000000000284e+01
4.796999999999999886e+01
-1.614000000000000057e+01
4.943999999999999773e+01
8.395999999999999375e+01
-4.522999999999999687e+01
2.351999999999999957e+01
7.169999999999999929e+00
-9.000000000000000000e+00
-8.031999999999999318e+01
-1.208499999999999943e+02
-1.338400000000000034e+02
8.856999999999999318e+01
-6.600000000000000311e-01
2.037999999999999901e+01
4.025999999999999801e+01
-3.546000000000000085e+01
-2.041000000000000014e+01
3.597999999999999687e+01
6.517000000000000171e+01
1.061599999999999966e+02
-3.073299999999999841e+02
-1.862000000000000099e+01
-1.448499999999999943e+02
8.531000000000000227e+01
1.600000000000000033e-01
5.120000000000000107e+00
1.876999999999999957e+01
-9.439999999999999503e+00
-8.580000000000000071e+00
4.007999999999999829e+01
-3.392999999999999972e+01
7.087999999999999545e+01
7.073000000000000398e+01
3.496000000000000085e+01
-3.246000000000000085e+01
8.776000000000000512e+01
-4.679999999999999716e+00
8.060000000000000497e+00
-1.600000000000000033e-01
-7.248000000000000398e+01
5.280000000000000249e+00
7.218999999999999773e+01
1.582299999999999898e+02
-4.230400000000000205e+02
2.278499999999999943e+02
4.481000000000000227e+01
-3.107000000000000028e+01
-3.429999999999999716e+01
5.740000000000000213e+00
-4.904999999999999716e+01
1.563400000000000034e+02
4.047099999999999795e+02
-2.417500000000000000e+02
-1.083999999999999986e+01
-4.070000000000000284e+01
-1.873999999999999844e+01
5.882000000000000028e+01
9.829999999999999716e+01
3.610000000000000142e+01
-7.379999999999999716e+01
-3.399900000000000091e+02
2.172400000000000091e+02
1.227999999999999972e+02
-4.653000000000000114e+01
-8.630000000000000782e+00
5.588000000000000256e+01
3.240000000000000213e+00
1.410800000000000125e+02
-2.411399999999999864e+02
9.696999999999999886e+01
6.459999999999999432e+01
-3.821999999999999886e+01
1.186299999999999955e+02
-1.464000000000000057e+01
-8.595999999999999375e+01
1.330600000000000023e+02
-3.796000000000000085e+01
1.185799999999999983e+02
-2.471100000000000136e+02
-2.701000000000000156e+01
1.201099999999999994e+02
-3.099999999999999978e-01
-7.118000000000000682e+01
-3.336999999999999744e+01
3.528000000000000114e+01
8.618000000000000682e+01
-1.726500000000000057e+02
-6.127000000000000313e+01
1.097500000000000000e+02
7.656999999999999318e+01
-1.034399999999999977e+02
-1.266299999999999955e+02
5.618999999999999773e+01
3.443999999999999773e+01
-9.560000000000000497e+00
6.754999999999999716e+01
1.275999999999999979e+01
-5.650000000000000355e+00
-1.378700000000000045e+02
-9.826000000000000512e+01
-3.192999999999999972e+01
6.932999999999999829e+01
4.049000000000000199e+01
-6.959999999999999964e+00
5.675000000000000000e+01
-2.412000000000000099e+01
-2.132999999999999829e+01
-8.276999999999999602e+01
-4.709999999999999964e+00
-6.229999999999999716e+01
-7.051999999999999602e+01
9.573000000000000398e+01
9.659000000000000341e+01
-5.603999999999999915e+01
-1.681899999999999977e+02
7.889999999999999680e+00
-6.263000000000000256e+01
2.004699999999999989e+02
-1.095400000000000063e+02
-5.178999999999999915e+01
5.007999999999999829e+01
-3.365999999999999659e+01
7.599999999999999645e+00
4.910000000000000142e+00
-1.483300000000000125e+02
-1.398700000000000045e+02
2.549300000000000068e+02
-2.817699999999999818e+02
1.275900000000000034e+02
2.029000000000000057e+02
-4.178000000000000114e+01
-2.418100000000000023e+02
-2.573999999999999773e+02
2.243499999999999943e+02
8.793000000000000682e+01
3.144999999999999929e+01
-1.356399999999999864e+02
2.214199999999999875e+02
-3.792999999999999972e+01
-3.053000000000000114e+01
2.546999999999999886e+01
-1.781699999999999875e+02
-5.145000000000000284e+01
1.328300000000000125e+02
3.410999999999999943e+01
-3.285999999999999943e+01
-1.366100000000000136e+02
4.911999999999999744e+01
1.610000000000000000e+02
1.018999999999999950e+01
-1.241000000000000014e+01
7.820999999999999375e+01
-1.104200000000000017e+02
-2.175800000000000125e+02
1.445999999999999943e+02
-1.620399999999999920e+02
3.187999999999999901e+01
2.810999999999999943e+01
2.828000000000000114e+01
2.787999999999999901e+01
-8.792000000000000171e+01
1.234999999999999964e+01
5.847999999999999687e+01
-7.230000000000000426e+00
-2.516000000000000014e+01
2.020000000000000018e+00
-8.399999999999999689e-01
-4.580000000000000071e+00
-7.339999999999999858e+00
-1.280000000000000027e+00
9.460000000000000853e+00
-5.849999999999999645e+00
1.750000000000000000e+00
1.381000000000000050e+01
-1.320000000000000062e+00
-1.100000000000000000e+01
5.450000000000000178e+00
1.023000000000000043e+01
-2.280999999999999872e+01
1.133000000000000007e+01
-8.999999999999999667e-02
-8.119999999999999218e+00
6.089999999999999858e+00
-1.600000000000000033e-01
-1.059999999999999964e+01
1.072000000000000064e+01
2.350000000000000089e+00
-1.228999999999999915e+01
9.080000000000000071e+00
4.120000000000000107e+00
-1.531000000000000050e+01
1.067999999999999972e+01
7.900000000000000355e-01
-1.240000000000000036e+01
2.848999999999999844e+01
5.477000000000000313e+01
1.543700000000000045e+02
-1.082600000000000051e+02
-2.828999999999999915e+01
-3.953000000000000114e+01
-3.777000000000000313e+01
-9.093999999999999773e+01
-3.390999999999999659e+01
8.756000000000000227e+01
-2.850000000000000089e+00
-3.055000000000000071e+01
-1.878000000000000114e+01
-9.750000000000000000e+00
-1.896000000000000085e+01
7.469999999999999751e+00
5.820000000000000284e+00
-2.480999999999999872e+01
1.202999999999999936e+01
2.321000000000000085e+01
-1.614000000000000057e+01
-6.309999999999999609e+00
-5.589999999999999858e+00
2.018000000000000114e+02
-4.492000000000000171e+01
-1.483700000000000045e+02
-1.692000000000000171e+01
-1.650000000000000000e+01
-1.238000000000000078e+01
-3.770000000000000018e+00
3.571999999999999886e+01
6.365999999999999659e+01
-1.056200000000000045e+02
1.879999999999999893e+00
8.693000000000000682e+01
4.200000000000000178e+00
9.689999999999999503e+00
-8.730000000000000426e+00
1.289000000000000057e+01
3.279999999999999805e+00
-6.143999999999999773e+01
-7.918000000000000682e+01
-6.518000000000000682e+01
1.514600000000000080e+02
2.492299999999999898e+02
7.681999999999999318e+01
8.032999999999999829e+01
-4.346999999999999886e+01
-2.726700000000000159e+02
3.130000000000000071e+01
-1.766899999999999977e+02
7.679999999999999716e+00
3.157099999999999795e+02
1.789799999999999898e+02
-7.526999999999999602e+01
-4.255299999999999727e+02
2.492700000000000102e+02
2.174399999999999977e+02
6.665999999999999659e+01
3.939999999999999947e+00
-1.814999999999999858e+01
4.089999999999999858e+01
-6.035000000000000142e+01
-4.438000000000000256e+01
2.144999999999999929e+01
5.411999999999999744e+01
-2.540000000000000036e+00
3.005000000000000071e+01
-3.350000000000000000e+01
-2.530999999999999872e+01
-2.292000000000000171e+01
2.687000000000000099e+01
4.053999999999999915e+01
2.525000000000000000e+01
3.635999999999999943e+01
-8.470000000000000639e+00
-3.507000000000000028e+01
-2.246999999999999886e+01
-4.621999999999999886e+01
-1.085900000000000034e+02
1.495300000000000011e+02
1.705099999999999909e+02
-1.001700000000000017e+02
3.490999999999999659e+01
1.729999999999999982e+00
3.621000000000000085e+01
-7.762999999999999545e+01
1.707000000000000028e+01
1.692400000000000091e+02
-1.939000000000000057e+01
-9.640000000000000568e+01
-8.145999999999999375e+01
8.837999999999999545e+01
-9.942000000000000171e+01
2.519000000000000128e+01
5.828000000000000114e+01
4.845000000000000284e+01
-4.046000000000000085e+01
7.287000000000000455e+01
4.700000000000000178e+00
-6.382999999999999829e+01
-8.443999999999999773e+01
7.540999999999999659e+01
-3.292999999999999972e+01
-1.581000000000000050e+01
8.859999999999999432e+00
1.094999999999999929e+01
-7.399999999999999911e-01
1.541000000000000014e+01
-7.150000000000000355e+00
-6.330000000000000071e+00
-1.870000000000000107e+00
4.269999999999999574e+00
-5.799999999999999600e-01
-7.709999999999999964e+00
6.889999999999999680e+00
-2.990000000000000213e+00
-1.284999999999999964e+01
6.700000000000000178e+00
5.400000000000000355e+00
-1.107000000000000028e+01
5.559999999999999609e+00
-1.750000000000000000e+00
-1.311999999999999922e+01
1.303999999999999915e+01
3.580000000000000071e+00
-1.390000000000000036e+01
7.900000000000000355e+00
1.018999999999999950e+01
-2.600000000000000089e-01
1.679999999999999938e+00
1.072000000000000064e+01
-9.199999999999999289e+00
7.190000000000000391e+00
9.789999999999999147e+00
-6.099999999999999645e+00
-1.280000000000000071e+01
8.529999999999999361e+00
5.999999999999999778e-02
-1.240000000000000036e+01
-6.610000000000000320e+00
-4.845000000000000284e+01
-1.805000000000000071e+01
-2.091000000000000014e+01
6.656999999999999318e+01
-2.005999999999999872e+01
-7.719999999999999751e+00
1.219999999999999929e+01
1.019999999999999929e+01
1.019999999999999929e+01
-8.699999999999999956e-01
-1.291999999999999993e+01
-4.740000000000000213e+00
-3.360999999999999943e+01
4.967999999999999972e+01
-2.878000000000000114e+01
6.469999999999999751e+00
-3.569999999999999840e+00
1.051999999999999957e+01
9.300000000000000488e-01
-8.019999999999999574e+00
5.730000000000000426e+00
-1.040000000000000036e+00
-7.750000000000000000e+00
9.099999999999999645e+00
4.899999999999999911e-01
-1.014000000000000057e+01
6.559999999999999609e+00
-1.010000000000000009e+00
-1.130000000000000071e+01
6.250000000000000000e+00
1.629999999999999893e+00
-1.233000000000000007e+01
1.525000000000000000e+01
1.825000000000000000e+01
4.585000000000000142e+01
6.160000000000000142e+01
-1.658199999999999932e+02
6.199999999999999956e-01
-4.530000000000000249e+00
8.112000000000000455e+01
1.580900000000000034e+02
-1.482299999999999898e+02
-2.060000000000000142e+01
4.614999999999999858e+01
2.014099999999999966e+02
-1.804199999999999875e+02
-7.026000000000000512e+01
5.459000000000000341e+01
-8.268000000000000682e+01
-4.388000000000000256e+01
5.289000000000000057e+01
-7.399999999999999911e-01
-6.570000000000000284e+00
9.000000000000000000e+00
-7.110999999999999943e+01
5.335999999999999943e+01
2.549999999999999822e+00
-5.293999999999999773e+01
-1.432000000000000028e+01
-9.029999999999999361e+00
1.013199999999999932e+02
-8.210000000000000853e+00
3.290999999999999659e+01
-2.999999999999999889e-02
-3.282999999999999829e+01
8.276000000000000512e+01
-3.864999999999999858e+01
-3.863000000000000256e+01
2.698999999999999844e+01
4.952000000000000313e+01
3.849000000000000199e+01
2.626999999999999957e+01
-9.556999999999999318e+01
-6.268999999999999773e+01
2.899999999999999800e-01
-2.080999999999999872e+01
-6.264000000000000057e+01
-1.471800000000000068e+02
5.029999999999999716e+01
1.771200000000000045e+02
1.863600000000000136e+02
-9.503000000000000114e+01
-5.343999999999999773e+01
-1.491000000000000014e+01
-3.140000000000000124e+00
2.728000000000000114e+01
9.899999999999999911e-01
2.350000000000000000e+01
3.499999999999999778e-01
-4.799999999999999822e+00
2.385999999999999943e+01
-1.752700000000000102e+02
8.609999999999999432e+01
-2.689999999999999858e+01
-4.296999999999999886e+01
-1.583799999999999955e+02
1.023599999999999994e+02
-5.139999999999999858e+01
5.902000000000000313e+01
7.469999999999999751e+00
1.707999999999999829e+01
3.745000000000000284e+01
-1.678000000000000114e+01
-1.576999999999999957e+01
-3.137000000000000099e+01
1.138000000000000078e+01
2.600000000000000089e-01
3.259999999999999787e+00
-4.469999999999999751e+00
-1.360999999999999943e+01
4.065999999999999659e+01
2.250000000000000000e+00
-1.128999999999999915e+01
7.690000000000000391e+00
-6.610000000000000320e+00
-9.160000000000000142e+00
2.029999999999999805e+00
-1.114000000000000057e+01
1.130000000000000000e+02
-6.250000000000000000e+00
-1.231800000000000068e+02
2.741000000000000014e+01
2.903000000000000114e+01
1.370000000000000107e+00
-1.308999999999999986e+01
-1.889999999999999858e+01
5.543999999999999773e+01
2.239000000000000057e+01
-6.184000000000000341e+01
-3.069999999999999840e+00
-6.620000000000000107e+00
2.907999999999999829e+01
3.200000000000000178e+00
1.439999999999999947e+00
1.576999999999999957e+01
-7.199999999999999734e-01
-2.451999999999999957e+01
4.940000000000000391e+00
-6.300000000000000044e-01
-2.803000000000000114e+01
3.282999999999999829e+01
-4.500000000000000000e+00
-4.592999999999999972e+01
-1.210300000000000011e+02
1.425000000000000000e+02
8.904000000000000625e+01
1.898999999999999844e+01
-1.199000000000000021e+01
1.166999999999999993e+01
-2.262999999999999901e+01
-5.699000000000000199e+01
7.040999999999999659e+01
3.518999999999999773e+01
-6.099999999999999645e+00
1.252999999999999936e+01
-3.589999999999999858e+00
-2.658999999999999986e+01
1.364000000000000057e+01
-2.390000000000000124e+00
-1.247000000000000064e+01
-2.149999999999999911e+00
1.975000000000000000e+01
3.900000000000000133e-01
-1.366999999999999993e+01
1.679999999999999938e+00
-1.316999999999999993e+01
-2.200000000000000000e+01
2.898999999999999844e+01
5.721999999999999886e+01
-6.195000000000000284e+01
-1.468999999999999950e+01
2.200000000000000011e-01
-6.679999999999999716e+00
-7.980000000000000426e+00
-8.199999999999999512e-01
-1.976000000000000156e+01
1.491999999999999993e+01
2.432999999999999829e+01
-1.427999999999999936e+01
4.530000000000000249e+00
2.192000000000000171e+01
1.429999999999999938e+00
6.700000000000000400e-01
-2.020000000000000018e+00
-3.049999999999999822e+00
-2.021000000000000085e+01
3.715999999999999659e+01
1.178999999999999915e+01
-2.696999999999999886e+01
2.164999999999999858e+01
6.150000000000000355e+00
-2.010000000000000142e+01
4.500999999999999801e+01
3.410999999999999943e+01
-9.195000000000000284e+01
1.778999999999999915e+01
5.422999999999999687e+01
-1.524000000000000021e+01
1.321000000000000085e+01
1.259999999999999964e+01
-3.850000000000000089e+00
1.605999999999999872e+01
1.249000000000000021e+01
-3.609999999999999876e+00
2.955999999999999872e+01
6.610000000000000320e+00
-1.350999999999999979e+01
-1.703000000000000114e+01
-1.899999999999999911e+00
-5.000000000000000000e+00
-1.271000000000000085e+01
1.903000000000000114e+01
1.099000000000000021e+01
-1.185999999999999943e+01
9.269999999999999574e+00
9.789999999999999147e+00
-2.876999999999999957e+01
1.782000000000000028e+01
2.589999999999999858e+00
-1.157000000000000028e+01
7.759999999999999787e+00
1.939999999999999858e+01
-4.096000000000000085e+01
2.899999999999999800e-01
7.519999999999999574e+00
-3.285999999999999943e+01
-4.427000000000000313e+01
4.814000000000000057e+01
-1.429199999999999875e+02
-1.112000000000000028e+02
1.086500000000000057e+02
1.008799999999999955e+02
-2.855999999999999872e+01
-6.332999999999999829e+01
1.228100000000000023e+02
5.182999999999999829e+01
-9.434999999999999432e+01
-8.509999999999999432e+01
5.615999999999999659e+01
-2.950000000000000178e+00
-4.117000000000000171e+01
8.699999999999999956e-01
2.250000000000000000e+00
-3.503000000000000114e+01
2.006599999999999966e+02
1.358000000000000007e+01
-3.278999999999999915e+01
1.883999999999999986e+01
2.417999999999999972e+01
-7.800000000000000266e-01
-1.267999999999999972e+01
-4.703000000000000114e+01
9.700000000000000000e+01
1.525300000000000011e+02
2.067000000000000171e+01
6.500000000000000000e+00
-1.760999999999999943e+01
-8.839999999999999858e+00
-1.882999999999999829e+01
1.982999999999999829e+01
-3.956000000000000227e+01
-9.843000000000000682e+01
2.207999999999999829e+01
3.321000000000000085e+01
4.467000000000000171e+01
-1.093799999999999955e+02
3.645000000000000284e+01
3.218999999999999773e+01
5.767999999999999972e+01
-3.100000000000000000e+01
-3.350000000000000089e+00
-4.325000000000000000e+01
1.263000000000000078e+01
1.505000000000000071e+01
-1.081000000000000050e+01
2.046999999999999886e+01
1.048000000000000043e+01
-1.683999999999999986e+01
-4.099999999999999756e-01
-3.424000000000000199e+01
-6.072999999999999687e+01
8.684000000000000341e+01
1.850000000000000089e+00
1.694000000000000128e+01
-3.746000000000000085e+01
-5.142999999999999972e+01
2.425600000000000023e+02
4.035000000000000142e+01
2.147700000000000102e+02
-1.605200000000000102e+02
-3.672999999999999687e+01
1.508000000000000007e+01
1.276999999999999957e+01
-1.553999999999999915e+01
-3.410000000000000142e+00
5.339999999999999858e+00
-8.109999999999999432e+00
1.109999999999999964e+01
6.360000000000000320e+00
-3.040000000000000036e+00
9.130000000000000782e+00
1.134999999999999964e+01
2.889000000000000057e+01
5.718999999999999773e+01
-1.525000000000000000e+01
-1.050999999999999979e+01
-2.126999999999999957e+01
-7.143999999999999773e+01
2.014999999999999858e+01
3.520000000000000018e+00
-1.133000000000000007e+01
-1.064000000000000057e+01
3.660999999999999943e+01
-3.922999999999999687e+01
5.714000000000000057e+01
-2.353000000000000114e+01
-2.800000000000000266e-01
-1.157000000000000028e+01
-4.629999999999999893e+00
3.069999999999999840e+00
9.810000000000000497e+00
-1.350999999999999979e+01
-3.330000000000000071e+00
-4.299999999999999822e+00
-1.318999999999999950e+01
2.379999999999999893e+00
-2.366000000000000014e+01
-1.771000000000000085e+01
9.690000000000000568e+01
-1.057600000000000051e+02
1.119300000000000068e+02
-2.082999999999999829e+01
5.121000000000000085e+01
2.214000000000000057e+01
-7.518999999999999773e+01
-1.244800000000000040e+02
5.720000000000000284e+01
-1.202000000000000028e+02
-4.243999999999999773e+01
9.337999999999999545e+01
-4.064000000000000057e+01
-3.830000000000000071e+00
-4.596999999999999886e+01
1.168999999999999950e+01
-1.031000000000000050e+01
-1.425999999999999979e+01
4.940000000000000391e+00
2.246000000000000085e+01
-8.000000000000000444e-01
3.859999999999999876e+00
6.500000000000000000e+00
-7.469999999999999751e+00
-4.169999999999999929e+00
5.610000000000000320e+00
-9.810000000000000497e+00
-1.313000000000000078e+01
-5.290000000000000036e+00
7.599999999999999645e+00
6.300000000000000044e-01
2.869999999999999929e+01
-7.735999999999999943e+01
-1.632800000000000011e+02
-4.036999999999999744e+01
5.231000000000000227e+01
8.354000000000000625e+01
2.310000000000000142e+01
2.419999999999999929e+01
-1.167999999999999972e+01
2.394999999999999929e+01
2.619999999999999929e+01
8.730000000000000426e+00
1.853999999999999915e+01
-7.200000000000000000e+01
7.179999999999999716e+01
-1.912000000000000099e+01
6.500000000000000222e-01
8.240000000000000213e+00
5.178999999999999915e+01
6.798000000000000398e+01
2.167500000000000000e+02
-7.431999999999999318e+01
-5.502000000000000313e+01
-9.376000000000000512e+01
6.500000000000000222e-01
-1.630999999999999872e+01
7.584000000000000341e+01
1.024699999999999989e+02
-6.828000000000000114e+01
-8.790999999999999659e+01
5.296999999999999886e+01
2.705000000000000071e+01
-2.903999999999999915e+01
-2.155000000000000071e+01
8.310000000000000497e+00
7.151999999999999602e+01
3.261999999999999744e+01
-2.021000000000000085e+01
-7.159999999999999432e+01
3.482000000000000028e+01
7.784999999999999432e+01
4.607000000000000028e+01
-1.466999999999999993e+01
1.826000000000000156e+01
4.592999999999999972e+01
-3.012999999999999901e+01
7.459999999999999964e+00
-3.581000000000000227e+01
9.954000000000000625e+01
1.570500000000000114e+02
-7.751000000000000512e+01
-2.169000000000000057e+02
-1.971800000000000068e+02
7.150000000000000355e+00
6.090999999999999659e+01
2.430999999999999872e+01
-2.730000000000000071e+01
-2.980999999999999872e+01
2.419000000000000128e+01
2.562999999999999901e+01
-2.509999999999999787e+00
2.099999999999999922e-01
-5.500000000000000000e+00
-2.162999999999999901e+01
2.260000000000000142e+01
3.278000000000000114e+01
6.579999999999999716e+01
-1.146400000000000006e+02
-1.199399999999999977e+02
1.769000000000000128e+01
-1.163799999999999955e+02
1.270499999999999972e+02
-4.939000000000000057e+01
3.893999999999999773e+01
1.056400000000000006e+02
-2.748000000000000043e+01
1.036999999999999922e+01
-7.635999999999999943e+01
-1.826200000000000045e+02
1.535000000000000000e+02
5.347999999999999687e+01
-5.725999999999999801e+01
4.775000000000000000e+01
-3.699999999999999956e-01
-3.820000000000000284e+01
-3.790000000000000036e+00
-1.928000000000000114e+01
6.984999999999999432e+01
-2.069999999999999929e+01
3.760999999999999943e+01
-9.039999999999999147e+00
-4.018999999999999773e+01
2.567000000000000171e+01
4.220000000000000284e+01
-2.432000000000000028e+01
3.467999999999999972e+01
5.272999999999999687e+01
1.530500000000000114e+02
-2.991299999999999955e+02
-1.848000000000000114e+02
-1.739000000000000057e+01
-1.830000000000000071e+00
3.407999999999999829e+01
-1.849000000000000057e+02
1.516699999999999875e+02
-5.514000000000000057e+01
6.371000000000000085e+01
5.490000000000000213e+00
2.385399999999999920e+02
-5.900999999999999801e+01
4.928999999999999915e+01
9.381999999999999318e+01
-3.797999999999999687e+01
-6.523999999999999488e+01
1.658199999999999932e+02
7.329999999999999716e+01
-9.732999999999999829e+01
7.562000000000000455e+01
-1.667400000000000091e+02
5.138000000000000256e+01
-3.187999999999999901e+01
-1.085000000000000000e+02
7.781999999999999318e+01
-7.959999999999999432e+01
2.189999999999999858e+01
5.469999999999999751e+00
1.796000000000000085e+01
-4.935999999999999943e+01
6.056000000000000227e+01
-9.429999999999999716e+01
1.279699999999999989e+02
-3.353999999999999915e+01
-2.855999999999999872e+01
-4.597999999999999687e+01
3.232999999999999829e+01
-3.754999999999999716e+01
2.589999999999999858e+00
-3.100000000000000089e+00
4.103999999999999915e+01
-7.769999999999999574e+00
-1.203700000000000045e+02
4.675000000000000000e+01
-1.255000000000000071e+01
-1.935000000000000142e+01
3.121999999999999886e+01
-7.809999999999999609e+00
-2.560999999999999943e+01
-7.099999999999999645e-01
1.272000000000000064e+01
3.259000000000000341e+01
6.732999999999999829e+01
-1.386699999999999875e+02
1.820900000000000034e+02
-1.413100000000000023e+02
1.217999999999999972e+01
-3.173000000000000043e+01
-1.825000000000000000e+01
1.051999999999999957e+01
5.750000000000000000e+00
-6.450000000000000178e+00
4.480000000000000426e+00
3.850000000000000089e+00
-1.209999999999999964e+01
-2.135000000000000142e+01
7.209999999999999964e+00
-1.449999999999999956e+00
6.889999999999999680e+00
-1.038000000000000078e+01
2.650000000000000000e+01
1.619000000000000128e+01
-9.880000000000000782e+00
-4.089999999999999858e+00
-3.799999999999999822e+00
4.200000000000000178e+00
-9.200000000000000400e-01
-1.243999999999999950e+01
-3.799999999999999822e+00
-2.259999999999999787e+00
-1.548000000000000043e+01
2.023000000000000043e+01
1.108000000000000007e+01
-5.200000000000000178e-01
-6.400000000000000355e+00
-9.830000000000000071e+00
2.069999999999999840e+00
1.710999999999999943e+01
1.000000000000000000e+01
2.399999999999999911e-01
-4.650000000000000355e+00
-1.250000000000000000e+01
-1.150999999999999979e+01
1.882999999999999829e+01
9.699999999999999734e-01
-1.277999999999999936e+01
1.882999999999999829e+01
1.048000000000000043e+01
1.558999999999999986e+01
4.629999999999999893e+00
-1.219999999999999973e+00
-9.119999999999999218e+00
4.809999999999999609e+00
3.300000000000000155e-01
-3.439999999999999947e+00
-2.069999999999999840e+00
-4.030000000000000249e+00
-8.580000000000000071e+00
2.810000000000000053e+00
3.509999999999999787e+00
2.200000000000000178e+00
1.378999999999999915e+01
-9.300000000000000488e-01
-1.901999999999999957e+01
-4.059999999999999609e+00
-8.759999999999999787e+00
1.051999999999999957e+01
1.174000000000000021e+01
1.177999999999999936e+01
7.900000000000000355e-01
-1.900000000000000022e-01
5.900000000000000355e+00
8.470000000000000639e+00
-1.867000000000000171e+01
-2.312000000000000099e+01
-6.450000000000000178e+00
-2.410000000000000142e+00
-4.299999999999999822e+00
1.133999999999999986e+01
-6.730000000000000426e+00
4.480000000000000426e+00
9.210000000000000853e+00
1.042999999999999972e+01
-7.370000000000000107e+00
-4.040000000000000036e+00
-9.189999999999999503e+00
6.549999999999999822e+00
5.200000000000000178e-01
-6.469999999999999751e+00
1.149999999999999911e+00
4.299999999999999822e+00
6.599999999999999645e+00
3.395000000000000284e+01
-2.123000000000000043e+01
3.314999999999999858e+01
-5.438000000000000256e+01
-3.731000000000000227e+01
4.089999999999999858e+00
-3.800000000000000000e+01
3.724000000000000199e+01
-3.082999999999999829e+01
1.600000000000000000e+01
6.429999999999999716e+00
1.250999999999999979e+01
1.508000000000000007e+01
-2.282000000000000028e+01
1.719999999999999973e+00
-1.255000000000000071e+01
1.914000000000000057e+01
9.960000000000000853e+00
9.660000000000000142e+00
2.560000000000000053e+00
-2.509999999999999787e+00
6.309999999999999609e+00
2.387000000000000099e+01
3.296000000000000085e+01
-2.807000000000000028e+01
-2.873999999999999844e+01
4.460999999999999943e+01
6.800000000000000488e-01
-1.935000000000000142e+01
1.639000000000000057e+01
7.519999999999999574e+00
8.990000000000000213e+00
1.078999999999999915e+01
2.979999999999999982e+00
-7.839999999999999858e+00
-1.960999999999999943e+01
1.857000000000000028e+01
6.250000000000000000e+00
1.024000000000000021e+01
-4.059999999999999609e+00
-5.157999999999999829e+01
3.041000000000000014e+01
5.139000000000000057e+01
3.742000000000000171e+01
-4.327000000000000313e+01
2.533999999999999986e+01
-2.039000000000000057e+01
-3.585000000000000142e+01
2.012000000000000099e+01
-4.772999999999999687e+01
4.038000000000000256e+01
2.683999999999999986e+01
-3.475000000000000000e+01
3.920000000000000284e+01
1.260000000000000009e+00
-3.602000000000000313e+01
1.459999999999999964e+00
-2.494999999999999929e+01
-1.964999999999999858e+01
7.169999999999999929e+00
1.825000000000000000e+01
1.703000000000000114e+01
3.121000000000000085e+01
-8.390000000000000568e+00
-2.280000000000000071e+01
-3.581000000000000227e+01
7.759999999999999787e+00
3.277000000000000313e+01
4.504999999999999716e+01
-5.118999999999999773e+01
-1.494999999999999929e+01
-1.540000000000000036e+00
-5.230000000000000426e+00
2.979999999999999982e+00
-1.122000000000000064e+01
1.129999999999999893e+00
-9.200000000000000400e-01
8.937999999999999545e+01
1.447000000000000064e+01
-2.851999999999999957e+01
-4.356000000000000227e+01
9.815000000000000568e+01
-3.740000000000000213e+00
1.146000000000000085e+01
-6.192000000000000171e+01
1.453999999999999915e+01
2.930000000000000071e+01
-5.811999999999999744e+01
-2.589000000000000057e+01
-3.443999999999999773e+01
3.260999999999999943e+01
3.938000000000000256e+01
4.490000000000000213e+00
-2.878999999999999915e+01
5.969999999999999751e+00
2.376000000000000156e+01
3.553999999999999915e+01
-5.296999999999999886e+01
-1.205000000000000071e+01
-1.639000000000000057e+01
1.560000000000000053e+00
-6.339999999999999858e+00
-6.089999999999999858e+00
1.962999999999999901e+01
4.088000000000000256e+01
-3.890999999999999659e+01
-3.950000000000000178e+00
7.737999999999999545e+01
-1.472800000000000011e+02
-2.248999999999999844e+01
2.294900000000000091e+02
-8.693999999999999773e+01
-1.957000000000000028e+01
-4.563000000000000256e+01
-1.007000000000000028e+01
4.597999999999999687e+01
1.256000000000000050e+01
-2.516000000000000014e+01
-1.998999999999999844e+01
4.157000000000000028e+01
-6.940000000000000391e+00
4.690000000000000391e+00
3.200000000000000178e+00
-7.570000000000000284e+00
1.398000000000000043e+01
2.398999999999999844e+01
3.069999999999999840e+00
7.700000000000000178e-01
7.480000000000000426e+00
-3.640000000000000124e+00
2.999999999999999889e-02
9.169999999999999929e+00
-5.009999999999999787e+00
-7.530000000000000249e+00
4.230000000000000426e+00
-4.929999999999999716e+00
5.849999999999999645e+00
3.710999999999999943e+01
-2.267999999999999972e+01
-1.519999999999999929e+01
-1.799999999999999933e-01
-3.736999999999999744e+01
1.730000000000000071e+01
2.312000000000000099e+01
8.619999999999999218e+00
-2.160000000000000142e+00
6.820000000000000284e+00
6.600000000000000311e-01
2.990000000000000213e+00
1.935999999999999943e+01
7.459999999999999964e+00
-3.450000000000000178e+00
1.433999999999999986e+01
-3.510999999999999943e+01
3.279999999999999805e+00
7.570000000000000284e+00
3.033999999999999986e+01
4.993999999999999773e+01
7.973000000000000398e+01
-1.122699999999999960e+02
-1.788199999999999932e+02
2.832000000000000028e+01
1.260000000000000009e+00
-2.571000000000000085e+01
1.161999999999999922e+01
2.314999999999999858e+01
-1.830999999999999872e+01
-1.290000000000000036e+00
-9.130000000000000782e+00
-1.560000000000000053e+00
-2.589999999999999858e+00
-2.382000000000000028e+01
-4.679999999999999716e+00
2.287000000000000099e+01
1.357000000000000028e+01
-6.451999999999999602e+01
-4.669999999999999929e+00
1.959999999999999964e+00
6.242000000000000171e+01
-9.793999999999999773e+01
7.476999999999999602e+01
1.275000000000000000e+01
1.730999999999999872e+01
5.370000000000000284e+01
-4.302000000000000313e+01
-9.445999999999999375e+01
8.018000000000000682e+01
1.758999999999999986e+01
5.532000000000000028e+01
-2.026999999999999957e+01
-1.449999999999999956e+00
4.230000000000000426e+00
-5.209999999999999964e+00
-2.939999999999999947e+00
1.787000000000000099e+01
3.635999999999999943e+01
6.392999999999999972e+01
-7.245000000000000284e+01
-3.881000000000000227e+01
-1.035999999999999943e+01
4.580000000000000071e+00
-7.230000000000000426e+00
5.719999999999999751e+00
5.899999999999999689e-01
-1.950000000000000000e+01
6.120000000000000107e+00
1.236999999999999922e+01
3.021000000000000085e+01
1.726000000000000156e+01
-8.890000000000000568e+00
-1.032000000000000028e+01
-8.315000000000000568e+01
2.223999999999999844e+01
-2.509999999999999787e+00
1.850000000000000089e+00
1.653999999999999915e+01
5.900000000000000355e+00
-4.160000000000000142e+00
1.449999999999999956e+00
-1.276999999999999957e+01
2.285000000000000142e+01
4.759999999999999787e+00
-4.850000000000000000e+01
-4.080000000000000071e+00
5.639999999999999680e+00
1.885000000000000142e+01
3.819999999999999840e+00
-5.179999999999999716e+00
-1.503999999999999915e+01
-2.260000000000000142e+01
-3.750000000000000000e+01
8.339999999999999858e+00
-1.614000000000000057e+01
-1.678000000000000114e+01
-1.207000000000000028e+01
7.607999999999999829e+01
2.996999999999999886e+01
-9.137000000000000455e+01
1.875000000000000000e+01
-2.610999999999999943e+01
-3.532000000000000028e+01
4.070000000000000284e+00
-6.199999999999999956e-01
3.379999999999999893e+00
-1.992999999999999972e+01
2.091000000000000014e+01
4.469999999999999751e+00
1.989000000000000057e+01
-1.427999999999999936e+01
1.389999999999999902e+00
3.409000000000000341e+01
-6.969999999999999751e+00
-1.714000000000000057e+01
-4.299999999999999822e+00
1.603999999999999915e+01
6.559999999999999609e+00
-2.071000000000000085e+01
-1.558000000000000007e+01
-6.250000000000000000e+00
3.709999999999999964e+00
2.198999999999999844e+01
8.599999999999999645e+00
-5.410000000000000142e+00
2.198999999999999844e+01
1.679999999999999938e+00
-7.099999999999999645e+00
-3.049999999999999822e+00
-4.990000000000000213e+00
-3.878000000000000114e+01
1.991000000000000014e+01
1.998999999999999844e+01
-2.873000000000000043e+01
3.486999999999999744e+01
7.070000000000000284e+00
-3.620000000000000107e+00
1.306000000000000050e+01
4.480000000000000426e+00
3.549999999999999822e+00
-1.787999999999999901e+01
-3.279999999999999716e+01
-2.157000000000000028e+01
9.050000000000000711e+00
1.552999999999999936e+01
3.879999999999999893e+00
-8.699999999999999956e-01
-4.419999999999999929e+00
-2.000000000000000000e+01
3.731000000000000227e+01
3.076000000000000156e+01
3.932000000000000028e+01
-3.732999999999999829e+01
-3.647999999999999687e+01
-1.376999999999999957e+01
-9.399999999999999467e-01
-3.770000000000000018e+00
-3.540000000000000036e+00
-8.109999999999999432e+00
2.479999999999999982e+00
-3.529999999999999805e+00
7.559999999999999609e+00
5.120000000000000107e+00
6.370000000000000107e+00
1.767000000000000171e+01
-6.099999999999999867e-01
-1.607000000000000028e+01
3.609999999999999876e+00
9.910000000000000142e+00
-3.899999999999999911e+00
-9.100000000000000311e-01
-6.360000000000000320e+00
6.300000000000000044e-01
6.099999999999999645e+00
8.100000000000000533e-01
-6.049999999999999822e+00
-2.979999999999999982e+00
4.639999999999999680e+00
1.600000000000000089e+00
3.299999999999999822e+00
-9.480000000000000426e+00
-5.490000000000000213e+00
-2.290000000000000036e+00
3.339999999999999858e+00
-5.300000000000000266e-01
4.099999999999999645e+00
4.610000000000000320e+00
-8.480000000000000426e+00
6.860000000000000320e+00
5.259999999999999787e+00
-8.130000000000000782e+00
6.900000000000000355e+00
4.910000000000000142e+00
-2.450000000000000178e+00
8.460000000000000853e+00
1.978999999999999915e+01
5.459999999999999964e+00
1.051800000000000068e+02
-5.892000000000000171e+01
-1.369600000000000080e+02
-6.150000000000000355e+00
1.191999999999999993e+01
7.620000000000000107e+00
8.570000000000000284e+00
9.910000000000000142e+00
6.759999999999999787e+00
1.344999999999999929e+01
-8.509999999999999787e+00
-6.809999999999999609e+00
-3.859999999999999876e+00
2.166000000000000014e+01
-8.519999999999999574e+00
-4.929999999999999716e+00
7.429999999999999716e+00
-5.679999999999999716e+00
-7.269999999999999574e+00
1.464000000000000057e+01
-7.800000000000000266e-01
2.770000000000000018e+00
1.272000000000000064e+01
-1.117999999999999972e+01
-5.589999999999999858e+00
-3.263000000000000256e+01
2.149999999999999911e+00
9.580000000000000071e+00
4.979999999999999716e+01
-2.989000000000000057e+01
-3.800000000000000044e-01
3.800000000000000044e-01
-1.438000000000000078e+01
-7.600000000000000089e-01
-1.810000000000000053e+00
4.185999999999999943e+01
6.640999999999999659e+01
-5.853000000000000114e+01
5.454999999999999716e+01
8.800000000000000711e+00
-6.390999999999999659e+01
3.964000000000000057e+01
4.288000000000000256e+01
-4.753999999999999915e+01
2.470000000000000195e+00
9.399999999999999467e-01
-2.096999999999999886e+01
-4.830000000000000071e+00
-1.285999999999999943e+01
1.194999999999999929e+01
1.823999999999999844e+01
9.376999999999999602e+01
-3.965999999999999659e+01
-1.115300000000000011e+02
-2.414199999999999875e+02
8.531999999999999318e+01
2.103000000000000114e+01
-8.162000000000000455e+01
