1594061634.00
64.000000
-0.00
-0.00
-0.00
-0.00
-0.00
-0.00
-0.00
-0.00
-0.00
-0.00
0.00
0.01
0.01
-0.00
-0.03
-0.05
-0.05
0.00
0.13
0.36
0.66
1.01
1.37
1.72
2.06
2.40
2.79
3.24
3.80
4.42
5.06
5.66
6.20
6.68
7.15
7.68
8.31
9.14
10.09
11.04
11.88
12.56
13.14
13.76
14.65
15.96
17.91
20.32
22.90
25.38
27.58
29.57
31.68
34.32
37.81
42.54
48.15
54.10
59.83
64.97
69.58
74.14
79.34
85.71
93.76
103.00
112.62
121.73
129.77
136.75
143.30
150.75
157.77
166.64
177.95
191.79
206.97
220.57
228.25
225.36
208.53
176.87
132.76
80.05
23.07
-34.94
-92.44
-149.16
-205.23
-260.37
-313.74
-363.87
-409.83
-450.91
-486.50
-515.73
-537.22
-549.21
-549.96
-538.39
-514.25
-478.74
-433.97
-382.57
-327.17
-270.04
-212.90
-157.00
-103.37
-52.86
-6.44
35.03
70.87
100.80
124.93
143.76
158.00
168.35
175.47
179.76
181.52
180.99
178.40
174.06
168.34
161.66
154.36
146.75
139.01
131.25
123.47
115.66
107.79
99.89
92.00
84.26
76.79
69.73
63.12
56.92
50.98
45.17
39.36
33.57
27.95
22.69
18.00
13.92
10.35
7.04
3.74
0.28
-3.32
-6.88
-10.22
-13.19
-15.74
-17.86
-19.46
-20.35
-20.41
-19.67
-18.30
-16.39
-13.68
-9.45
-2.86
6.39
17.60
28.99
38.29
43.77
44.93
42.57
38.17
33.20
28.63
24.92
22.26
20.65
19.97
19.83
19.65
18.84
17.21
15.05
12.97
11.51
10.91
11.00
11.35
11.63
11.58
11.02
9.79
7.78
5.03
1.83
-1.35
-4.09
-6.05
-7.12
-7.35
-6.90
-6.06
-5.10
-4.34
-4.02
-4.21
-4.81
-5.53
-5.95
-5.63
-4.31
-1.92
1.32
4.94
8.41
11.26
13.27
14.43
14.95
15.08
14.98
14.68
14.20
13.61
13.14
13.04
13.46
14.32
15.20
15.46
14.51
12.17
8.72
4.82
1.25
-1.64
-3.85
-5.72
-7.69
-10.03
-12.70
-15.42
-17.83
-19.68
-20.90
-21.52
-21.63
-21.25
-20.38
-19.08
-17.57
-16.12
-15.05
-14.59
-14.75
-15.36
-16.08
-16.49
-16.21
-15.02
-12.91
-10.08
-7.02
-4.25
-2.22
-1.19
-1.17
-2.04
-3.63
-5.76
-8.36
-11.32
-14.48
-17.61
-20.51
-23.09
-25.41
-27.60
-29.78
-32.12
-34.61
-37.14
-39.51
-41.45
-42.88
-44.00
-45.30
-47.36
-50.92
-56.27
-63.22
-71.05
-78.64
-84.75
-88.33
-88.78
-85.70
-79.63
-70.61
-58.59
-42.94
-22.36
4.62
38.79
79.30
123.83
167.21
204.70
232.87
250.67
259.32
261.09
257.59
248.67
233.15
206.84
166.80
111.65
42.60
-35.83
-115.68
-186.20
-235.56
-252.65
-234.15
-183.00
-109.89
-31.01
36.36
79.07
91.98
71.65
39.06
5.97
-17.45
-26.99
-24.61
-16.51
-10.02
-10.90
-21.81
-41.13
-67.44
-96.44
-123.04
-141.99
-148.84
-141.02
-119.06
-86.99
-50.78
-19.41
0.33
4.79
-5.77
-27.77
-55.91
-85.01
-111.29
-131.96
-146.51
-154.08
-153.91
-145.92
-131.32
-112.85
-93.97
-77.50
-64.25
-53.72
-43.95
-33.16
-20.72
-7.11
6.74
20.37
34.03
48.42
63.59
78.79
92.53
103.14
109.61
111.93
111.00
108.11
104.35
100.31
96.05
91.43
86.43
81.30
76.53
72.48
69.20
66.31
63.19
59.31
54.45
48.76
42.63
36.54
31.09
27.18
26.06
29.22
37.79
51.83
69.92
89.42
107.25
120.97
129.50
133.26
133.64
132.24
130.28
128.26
126.05
123.02
118.31
111.18
101.36
89.30
76.23
63.90
53.88
46.92
42.55
39.15
34.54
26.74
14.63
-1.85
-21.79
-43.77
-66.23
-87.70
-107.01
-123.27
-136.03
-145.20
-150.94
-153.44
-152.82
-149.26
-143.19
-135.44
-127.11
-119.10
-111.56
-103.70
-94.20
-82.08
-67.46
-51.81
-37.26
-25.55
-17.06
-10.59
-3.95
4.94
17.05
31.79
47.04
59.53
65.58
62.10
47.68
23.70
-5.23
-32.13
-49.57
-52.19
-38.66
-12.08
21.43
55.18
84.16
106.17
121.41
131.11
136.13
136.33
131.00
119.76
103.30
83.54
63.00
44.06
28.29
16.22
7.41
0.82
-4.80
-10.49
-16.69
-23.08
-28.77
-32.63
-33.92
-32.68
-29.74
-26.33
-23.50
-21.66
-20.55
-19.56
-18.08
-15.75
-12.40
-8.03
-2.82
2.72
7.77
11.32
12.47
10.73
6.07
-1.25
-10.96
-22.92
-37.01
-52.77
-69.11
-84.34
-96.50
-103.98
-105.98
-102.69
-95.12
-84.63
-72.51
-59.79
-47.29
-35.92
-26.77
-21.10
-19.90
-23.38
-30.47
-38.85
-45.49
-47.72
-44.14
-35.28
-23.17
-10.51
0.53
9.06
15.52
21.08
26.87
33.53
41.27
50.19
60.51
72.39
85.51
98.65
109.75
116.41
116.59
109.21
94.39
73.36
48.15
21.34
-4.30
-26.15
-42.34
-52.23
-56.60
-57.25
-56.33
-55.45
-55.20
-55.29
-54.89
-53.25
-50.09
-45.62
-40.52
-35.77
-32.51
-31.80
-34.29
-39.89
-47.53
-55.40
-61.42
-64.02
-62.68
-58.07
-51.65
-45.07
-39.42
-34.86
-30.54
-25.02
-16.80
-4.94
10.53
28.52
47.27
64.81
79.59
90.71
97.87
101.16
100.85
97.38
91.47
84.17
76.74
70.30
65.54
62.55
60.85
59.70
58.43
56.57
53.96
50.73
47.22
43.88
41.21
39.54
38.82
38.60
38.06
36.26
32.41
26.20
17.83
8.02
-2.18
-11.73
-19.87
-26.29
-31.12
-34.76
-37.52
-39.46
-40.36
-39.94
-38.02
-34.78
-30.59
-25.83
-20.77
-15.53
-10.20
-5.02
-0.40
3.22
5.60
6.76
6.99
6.63
5.95
5.07
4.04
3.01
2.19
1.89
2.21
3.03
3.95
4.56
4.72
4.65
4.88
5.88
7.74
10.14
12.48
14.30
15.45
16.03
16.01
14.80
11.33
4.48
-6.23
-20.18
-35.74
-50.97
-64.45
-75.81
-85.59
-94.55
-102.90
-109.88
-113.87
-113.15
-106.71
-94.82
-78.96
-61.27
-43.78
-27.70
-13.27
-0.10
12.25
23.73
33.62
40.87
44.78
45.56
44.45
43.28
43.66
46.23
50.37
54.56
57.22
57.46
55.55
52.82
51.23
52.92
59.66
72.54
91.49
115.05
140.28
163.16
179.52
186.17
181.83
167.41
145.45
119.19
91.45
64.14
38.25
14.38
-6.87
-24.79
-38.83
-48.88
-55.48
-59.65
-62.38
-64.12
-64.64
-63.24
-59.29
-52.87
-44.88
-36.87
-30.49
-26.98
-26.91
-30.08
-35.65
-42.22
-48.15
-51.95
-52.78
-50.85
-47.36
-44.06
-42.50
-43.30
-45.89
-48.80
-50.39
-49.59
-46.29
-41.30
-35.89
-31.20
-27.92
-26.12
-25.47
-25.53
-25.97
-26.77
-28.06
-29.92
-32.19
-34.40
-35.91
-36.20
-35.02
-32.46
-28.69
-23.84
-17.92
-10.93
-3.13
4.80
11.93
17.46
21.12
23.37
25.20
27.60
31.04
35.24
39.35
42.36
43.62
43.02
40.95
38.05
34.99
32.31
30.38
29.35
29.11
29.25
29.11
27.99
25.48
21.63
16.98
12.37
8.52
5.77
3.92
2.46
0.84
-1.25
-3.81
-6.58
-9.31
-11.86
-14.30
-16.75
-19.29
-21.90
-24.48
-26.91
-29.02
-30.65
-31.60
-31.67
-30.72
-28.77
-25.95
-22.49
-18.71
-14.89
-11.30
-8.16
-5.63
-3.82
-2.70
-2.16
-2.01
-2.04
-2.07
-1.97
-1.74
-1.47
-1.34
-1.52
-2.06
-2.87
-3.76
-4.54
-5.12
-5.60
-6.15
-6.96
-8.10
-9.57
-11.24
-12.95
-14.60
-16.07
-17.29
-18.21
-18.87
-19.34
-19.80
-20.39
-21.22
-22.32
-23.60
-24.92
-26.04
-26.67
-26.48
-25.23
-22.82
-19.33
-15.07
-10.43
-5.75
-1.30
2.80
6.52
9.81
12.64
14.96
16.80
18.22
19.29
20.05
20.49
20.55
20.25
19.67
19.00
18.40
17.98
17.70
17.44
17.03
16.38
15.52
14.53
13.53
12.58
11.63
10.55
9.20
7.52
5.61
3.66
1.88
0.42
-0.77
-1.86
-3.09
-4.66
-6.60
-8.80
-10.97
-12.79
-13.94
-14.16
-13.36
-11.53
-8.76
-5.27
-1.43
2.31
5.53
7.94
9.38
9.91
9.69
9.03
8.20
7.39
6.68
6.07
5.52
4.91
4.08
2.88
1.38
-0.26
-1.79
-3.01
-3.75
-4.01
-4.06
-4.43
-5.73
-8.00
-10.87
-13.73
-15.91
-16.69
-15.49
-11.90
-5.57
3.85
17.30
35.00
55.70
76.92
96.19
112.42
126.10
138.50
150.21
161.05
168.66
169.43
160.79
143.26
120.58
97.78
78.83
65.43
58.62
58.10
62.56
70.10
78.68
85.97
89.08
84.94
63.14
21.10
-33.65
-87.28
-128.63
-153.89
-164.97
-166.24
-162.11
-155.86
-147.91
-138.25
-127.49
-117.06
-108.11
-100.89
-95.01
-89.95
-85.50
-80.60
-74.91
-68.98
-63.78
-59.75
-56.48
-53.17
-49.44
-45.60
-41.76
-38.56
-36.70
-36.45
-37.12
-37.43
-36.06
-32.62
-27.86
-22.87
-19.41
-19.20
-23.40
-31.73
-41.78
-49.18
-48.91
-37.77
-15.17
14.89
45.42
69.34
82.63
85.64
82.29
77.38
73.13
70.37
67.55
63.03
56.41
48.25
38.91
28.21
16.21
4.39
-4.05
-6.69
-3.71
1.05
1.68
-6.16
-21.91
-39.80
-52.02
-53.22
-43.79
-29.42
-17.62
-13.44
-16.89
-23.37
-26.94
-23.72
-13.34
1.02
15.10
25.91
32.83
37.04
40.97
46.28
52.72
58.40
60.83
58.43
51.32
41.06
29.85
18.83
8.05
-3.36
-16.12
-30.01
-43.58
-54.66
-60.77
-61.29
-56.78
-48.71
-39.10
-29.98
-23.07
-19.45
-19.23
-21.57
-24.87
-27.28
-27.45
-25.30
-21.83
-18.68
-17.13
-17.62
-19.87
-23.27
-27.62
-32.65
-37.18
-38.60
-34.03
-22.25
-5.32
11.44
22.19
24.15
19.44
14.07
14.19
22.19
35.46
48.59
57.34
61.30
62.98
64.99
66.65
63.55
50.62
25.97
-7.16
-41.84
-70.23
-87.09
-90.42
-80.39
-58.24
-25.79
13.06
51.58
81.31
95.78
92.53
75.16
51.75
31.05
19.05
17.27
23.30
33.18
43.08
50.52
53.89
52.34
44.80
31.47
13.64
-6.22
-25.33
-41.50
-53.88
-62.39
-66.78
-67.43
-64.12
-56.91
-46.89
-36.25
-27.90
-24.79
-28.81
-40.08
-55.62
-70.32
-78.06
-73.96
-56.27
-27.08
7.83
40.73
63.10
69.58
59.31
36.59
10.16
-10.65
-17.90
-8.77
12.32
35.20
48.56
45.43
26.73
0.57
-22.13
-33.35
-31.17
-20.07
-6.69
4.90
14.51
23.97
34.06
42.93
47.10
43.75
33.28
19.45
7.06
-0.41
-2.49
-1.18
0.55
0.52
-2.18
-7.27
-13.83
-20.70
-26.82
-31.19
-33.02
-32.04
-28.61
-23.64
-18.15
-13.14
-9.29
-7.06
-6.74
-8.36
-11.46
-15.02
-17.68
-18.28
-16.45
-13.13
-10.32
-10.25
-14.20
-21.83
-31.16
-39.55
-44.81
-46.17
-44.38
-41.13
-38.01
-35.54
-33.00
-28.62
-21.75
-12.63
-1.75
10.94
25.94
42.79
58.61
67.80
64.31
45.41
14.91
-16.80
-36.55
-34.43
-8.67
33.13
77.58
111.86
129.29
131.12
123.86
114.26
105.46
96.39
84.02
66.66
45.99
26.53
13.17
8.40
10.95
16.37
19.45
16.76
8.02
-4.19
-16.13
-24.97
-29.78
-31.66
-32.52
-33.71
-35.25
-35.84
-33.77
-27.89
-18.30
-6.29
6.02
16.48
23.67
27.34
28.47
28.72
29.66
32.05
35.86
40.11
43.62
45.61
46.05
45.76
45.68
46.38
47.58
49.38
51.47
53.87
56.75
60.09
63.59
66.04
65.61
60.57
52.40
43.60
37.17
34.75
35.02
34.01
25.61
3.58
-36.63
-93.26
-162.36
-238.01
-313.46
-381.53
-433.96
-463.71
-467.26
-446.46
-403.99
-346.91
-282.78
-217.27
-152.43
-85.78
-14.58
67.74
144.26
209.87
257.08
280.63
279.59
250.47
200.22
145.88
102.92
74.54
57.51
44.98
33.55
24.03
19.09
21.25
29.21
37.69
40.21
35.36
24.17
10.47
-1.20
-7.57
-7.12
-1.58
4.45
5.22
-1.18
-15.27
-35.10
-56.53
-73.86
-81.03
-74.04
-53.08
-21.92
13.16
44.89
67.65
78.46
79.68
76.59
75.65
78.44
85.40
95.32
105.88
114.12
116.64
110.27
92.84
64.73
26.23
-12.45
-41.83
-57.42
-60.49
-55.63
-47.74
-40.69
-35.83
-32.98
-30.61
-28.55
-26.87
-25.57
-24.26
-22.59
-21.63
-22.40
-25.83
-31.76
-39.94
-47.68
-50.92
-45.14
-27.24
1.43
37.37
74.76
106.60
125.75
127.26
109.91
76.79
34.15
-12.67
-57.86
-97.20
-128.43
-150.70
-163.06
-164.08
-152.66
-118.92
-69.82
-18.84
21.51
45.30
54.07
54.00
51.61
50.71
51.36
49.90
44.91
37.78
31.45
28.58
30.02
34.52
39.76
43.25
42.49
38.07
32.43
28.28
27.64
31.48
39.81
51.50
64.38
73.61
74.92
65.57
45.46
17.90
-11.29
-35.67
-50.52
-55.63
-54.25
-49.52
-42.59
-32.49
-17.95
0.31
18.64
31.61
34.74
27.09
12.11
-4.40
-17.21
-23.85
-25.51
-24.62
-23.70
-24.01
-25.19
-26.03
-25.83
-24.97
-24.54
-25.58
-28.26
-32.03
-35.99
-39.20
-40.98
-41.70
-42.68
-45.58
-51.58
-60.84
-72.39
-84.35
-93.93
-97.77
-94.03
-83.48
-68.99
-54.15
-41.59
-32.47
-26.53
-22.16
-16.54
-8.35
1.15
8.99
12.43
10.65
5.01
-3.09
-10.02
-10.10
0.47
21.48
49.24
78.81
106.43
130.08
149.46
154.18
139.86
111.60
78.90
48.04
20.74
-2.82
-22.66
-38.84
-50.55
-56.06
-55.22
-50.04
-42.34
-34.63
-27.60
-20.92
-14.23
-5.95
6.29
23.97
46.81
73.37
101.64
129.99
157.80
176.56
182.51
175.46
157.56
132.00
102.21
70.92
40.38
12.33
-11.74
-28.99
-36.71
-33.34
-21.47
-4.77
12.19
25.51
32.21
29.92
18.49
-0.54
-23.79
-46.58
-64.46
-75.17
-79.42
-78.80
-75.15
-69.28
-61.45
-51.80
-39.87
-26.29
-13.57
-5.21
-5.71
-18.57
-45.69
-87.37
-141.62
-201.62
-258.25
-302.04
-324.88
-321.43
-291.05
-238.85
-174.75
-110.50
-53.32
-7.63
24.64
44.53
56.67
67.98
84.97
111.91
149.79
200.17
260.16
322.15
376.80
416.96
439.45
444.06
432.45
383.94
295.96
187.14
84.95
6.64
-44.88
-74.81
-90.80
-99.51
-105.19
-105.85
-100.15
-89.83
-78.83
-70.46
-65.83
-64.60
-65.61
-67.60
-66.75
-61.86
-54.96
-49.67
-48.97
-52.45
-58.41
-64.84
-70.27
-72.29
-71.25
-69.52
-70.21
-75.06
-83.56
-93.73
-102.72
-107.78
-106.23
-98.73
-88.79
-81.75
-82.36
-92.56
-110.76
-132.32
-151.67
-157.94
-145.20
-112.49
-64.46
-10.01
40.32
77.42
96.33
97.48
86.06
68.81
52.24
40.32
34.03
32.30
33.45
36.40
40.66
45.92
50.66
52.97
51.25
45.20
36.16
26.72
19.75
17.40
20.51
28.19
38.86
50.78
62.67
73.89
84.31
94.06
103.17
111.35
117.84
121.69
122.20
119.15
112.95
104.57
95.12
85.53
76.20
67.05
57.72
48.01
38.09
28.55
20.17
13.58
8.97
5.95
3.77
1.61
-1.04
-4.14
-7.11
-9.12
-9.51
-8.14
-5.55
-2.83
-1.23
-1.74
-4.77
-9.94
-16.24
-22.27
-26.59
-28.00
-25.80
-19.93
-10.99
-0.05
11.40
22.19
31.81
40.26
47.77
54.37
59.64
62.65
62.39
58.18
50.45
40.93
31.94
25.47
22.44
22.36
23.75
24.78
23.77
20.51
16.31
13.10
12.38
14.71
19.74
26.57
34.03
39.64
41.55
38.48
29.04
11.87
-12.89
-42.66
-72.83
-99.02
-121.82
-143.43
-166.52
-193.41
-224.70
-257.58
-286.25
-304.50
-309.35
-306.21
-300.71
-295.59
-291.31
-287.71
-284.60
-282.47
-282.57
-287.14
-302.14
-326.45
-351.03
-364.74
-360.68
-337.93
-300.75
-255.63
-178.12
-74.30
27.09
101.94
146.56
168.85
177.46
178.28
177.28
177.10
174.28
169.00
165.24
166.49
172.79
182.71
189.26
190.07
185.69
175.29
161.86
150.63
144.80
143.29
142.66
139.90
134.96
129.22
122.29
115.15
109.84
107.84
109.15
113.12
119.08
127.04
136.19
143.95
148.53
149.81
148.91
147.35
146.66
147.96
152.11
159.10
167.76
176.84
184.94
190.32
190.83
184.58
170.66
149.68
123.27
93.31
61.37
28.36
-5.01
-37.53
-67.06
-90.97
-107.22
-115.55
-118.03
-118.12
-119.18
-122.83
-128.51
-134.19
-137.69
-137.86
-134.81
-129.30
-121.89
-112.56
-101.13
-88.01
-74.69
-63.30
-55.64
-52.09
-51.29
-50.67
-47.70
-41.03
-30.96
-19.10
-7.46
2.47
10.16
15.88
20.22
23.61
26.08
27.51
27.92
27.70
27.47
27.83
29.05
30.85
32.66
33.88
34.11
33.32
31.76
29.77
27.59
25.34
22.96
20.24
16.93
12.79
7.70
1.74
-4.85
-11.64
-18.27
-24.59
-30.63
-36.44
-41.87
-46.33
-48.84
-48.29
-43.93
-35.73
-24.42
-11.26
2.48
15.92
28.83
41.41
54.00
66.74
79.40
91.57
102.85
113.03
122.11
130.16
137.27
143.61
149.64
156.14
164.04
173.91
185.47
197.39
207.66
214.14
215.33
210.72
200.73
186.43
169.22
150.64
132.19
115.14
100.06
86.48
72.67
56.10
34.18
5.36
-30.07
-69.64
-109.22
-144.11
-170.44
-186.39
-192.61
-192.15
-189.22
-188.06
-191.79
-201.77
-217.45
-236.52
-255.48
-270.35
-277.67
-275.20
-262.39
-240.52
-212.34
-181.38
-151.17
-124.68
-103.97
-90.12
-82.91
-80.82
-81.63
-83.29
-84.70
-85.90
-87.92
-92.08
-99.70
-110.56
-122.74
-133.61
-141.14
-144.58
-144.52
-142.51
-140.36
-140.65
-144.23
-149.86
-155.42
-159.45
-161.76
-163.17
-165.16
-169.41
-179.20
-195.49
-215.83
-235.47
-249.11
-251.94
-240.24
-212.31
-169.16
-117.06
-62.29
-9.48
38.03
77.26
106.00
124.00
133.07
152.34
187.07
228.36
262.90
284.31
293.26
293.64
290.30
287.06
284.91
278.89
263.88
237.01
198.56
152.09
101.65
53.13
12.50
-16.14
-32.90
-37.29
-27.66
-2.44
37.49
87.70
141.43
191.50
233.31
259.88
270.10
268.27
260.55
250.97
239.97
225.63
205.69
179.34
146.77
110.14
71.46
31.42
-10.41
-54.24
-98.39
-139.33
-172.88
-196.16
-207.87
-209.18
-203.46
-195.20
-188.43
-185.39
-186.07
-188.72
-190.85
-190.01
-184.72
-174.41
-158.70
-136.60
-106.23
-65.49
-13.49
48.15
114.89
179.73
234.85
273.67
292.66
292.04
275.31
247.82
215.13
181.65
149.88
120.50
92.90
66.07
39.24
12.26
-14.49
-40.39
-64.89
-87.65
-108.38
-126.58
-141.49
-152.27
-158.40
-160.07
-157.94
-152.74
-144.50
-132.44
-115.27
-92.22
-63.95
-32.81
-2.39
23.76
43.35
56.02
63.14
66.86
69.02
70.34
70.49
68.65
64.33
57.78
49.96
41.95
34.36
27.10
19.75
12.28
5.56
1.22
0.96
5.54
14.29
25.38
36.77
47.14
56.60
66.37
77.76
91.13
105.48
118.86
129.27
135.53
137.50
136.02
132.25
126.87
119.75
109.98
96.55
79.04
58.15
35.41
13.16
-6.04
-20.29
-28.94
-32.60
-32.68
-30.80
-28.46
-27.66
-29.56
-34.04
-40.19
-47.11
-54.24
-61.48
-69.23
-78.38
-91.75
-110.76
-134.14
-158.70
-181.17
-199.19
-211.74
-219.26
-223.50
-229.59
-240.67
-255.76
-270.81
-281.56
-284.96
-279.58
-265.83
-246.15
-227.91
-216.64
-212.95
-213.43
-213.51
-208.72
-194.74
-167.91
-105.20
-3.83
114.97
221.09
295.71
334.17
340.21
322.59
293.20
263.97
239.68
220.51
203.61
184.53
159.11
126.54
91.11
59.93
38.72
26.35
19.27
15.08
13.02
14.36
19.98
29.87
42.76
56.33
66.46
71.08
71.47
70.49
69.59
67.68
61.86
49.02
27.94
-0.01
-29.50
-52.25
-59.22
-49.24
-28.67
-6.72
9.48
17.63
19.44
18.46
17.34
16.43
14.12
9.27
2.72
-3.03
-5.46
-3.49
1.97
8.54
13.31
14.23
11.12
5.74
0.72
-1.71
-0.61
3.66
9.87
16.65
22.62
27.16
29.55
29.29
26.11
20.31
12.88
5.14
-1.79
-7.59
-12.45
-16.39
-18.79
-18.17
-12.92
-2.55
11.34
25.07
34.03
34.08
24.93
9.49
-7.46
-21.25
-29.01
-30.18
-25.96
-18.28
-9.35
-1.31
3.70
3.93
-1.37
-11.60
-24.75
-37.59
-47.58
-53.71
-56.40
-57.04
-57.10
-57.49
-58.08
-57.53
-54.05
-45.74
-31.76
-13.09
7.28
25.48
38.47
45.61
49.43
52.38
56.23
60.74
63.81
63.09
57.79
49.45
40.55
34.95
34.04
36.77
40.56
42.96
43.06
41.48
39.16
36.30
32.06
24.83
13.81
-0.44
-16.05
-31.04
-43.58
-52.67
-57.99
-59.48
-57.50
-52.40
-44.82
-36.94
-30.94
-28.55
-30.55
-36.64
-45.38
-54.42
-60.42
-60.32
-51.50
-33.73
-10.11
13.31
29.73
34.63
27.71
14.26
2.12
-2.14
3.90
17.98
34.87
49.38
58.14
60.07
55.79
46.63
34.15
20.27
7.09
-3.17
-8.97
-10.06
-7.62
-3.58
0.00
1.68
0.83
-2.32
-6.88
-11.67
-15.44
-17.24
-16.67
-14.14
-10.60
-7.29
-5.18
-4.52
-4.88
-5.39
-5.06
-3.23
0.32
5.17
10.49
15.37
19.08
21.33
22.29
22.53
22.34
22.17
22.23
22.49
22.65
22.36
21.34
19.56
17.20
14.63
12.29
10.47
9.23
8.40
7.70
6.85
5.70
4.27
2.70
1.19
-0.15
-1.32
-2.42
-3.60
-4.99
-6.70
-8.77
-11.19
-13.80
-16.41
-18.79
-20.82
-22.47
-23.81
-24.94
-25.86
-26.44
-26.40
-25.45
-23.41
-20.28
-16.23
-11.51
-6.38
-0.97
4.59
10.14
15.41
19.96
23.31
25.06
25.05
23.44
20.69
17.42
14.20
11.42
9.19
7.40
5.82
4.25
2.63
1.00
-0.47
-1.71
-2.71
-3.70
-5.01
-6.97
-9.75
-13.26
-17.10
-20.69
-23.50
-25.15
-25.60
-25.12
-24.20
-23.41
-23.28
-24.13
-26.00
-28.59
-31.32
-33.53
-34.56
-34.06
-31.97
-28.48
-23.92
-18.60
-12.77
-6.62
-0.39
5.63
11.06
15.58
18.99
21.27
22.52
22.95
22.76
22.09
21.09
19.86
18.53
17.24
16.14
15.34
14.84
14.61
14.51
14.42
14.20
13.77
13.04
11.99
10.56
8.75
6.58
4.14
1.54
-1.07
-3.53
-5.74
-7.61
-9.14
-10.39
-11.53
-12.74
-14.17
-15.87
-17.67
-19.20
-20.02
-19.73
-18.17
-15.42
-11.76
-7.55
-3.14
1.24
5.42
9.25
12.53
15.08
16.76
17.58
17.67
17.28
16.69
16.05
15.43
14.76
13.99
13.11
12.16
11.22
10.36
9.58
8.79
7.93
6.92
5.77
4.50
3.15
1.77
0.38
-0.98
-2.31
-3.61
-4.90
-6.26
-7.71
-9.28
-10.94
-12.68
-14.52
-16.49
-18.60
-20.78
-22.79
-24.30
-24.92
-24.39
-22.60
-19.66
-15.87
-11.58
-7.18
-2.94
0.92
4.25
6.97
9.03
10.38
11.08
11.23
11.03
10.70
10.41
10.22
10.04
9.75
9.24
8.51
7.68
6.91
6.30
5.86
5.49
5.08
4.52
3.79
2.89
1.80
0.53
-0.96
-2.64
-4.44
-6.26
-7.98
-9.52
-10.87
-12.12
-13.41
-14.94
-16.81
-19.01
-21.34
-23.41
-24.80
-25.15
-24.22
-21.98
-18.57
-14.28
-9.45
-4.49
0.23
4.37
7.73
10.23
11.93
13.02
13.69
14.12
14.38
14.46
14.31
13.91
13.26
12.38
11.36
10.24
9.13
8.09
7.24
6.65
6.30
6.05
5.64
4.86
3.54
1.74
-0.32
-2.39
-4.28
-5.93
-7.43
-8.94
-10.55
-12.30
-14.15
-16.05
-18.00
-20.04
-22.10
-24.03
-25.50
-26.04
-25.26
-22.92
-19.09
-14.09
-8.42
-2.62
2.86
7.70
11.74
14.94
17.29
18.82
19.57
19.63
19.15
18.36
17.51
16.81
16.33
15.97
15.55
14.83
13.73
12.33
10.86
9.61
8.77
8.32
8.04
7.58
6.61
4.96
2.67
-0.01
-2.78
-5.40
-7.78
-10.03
-12.28
-14.65
-17.14
-19.66
-22.09
-24.35
-26.36
-28.01
-29.09
-29.27
-28.24
-25.79
-21.97
-17.09
-11.65
-6.19
-1.16
3.17
6.69
9.40
11.34
12.52
13.00
12.91
12.45
11.92
11.55
11.48
11.63
11.75
11.55
10.82
9.59
8.08
6.61
5.44
4.62
3.95
3.17
1.99
0.34
-1.68
-3.80
-5.75
-7.36
-8.61
-9.67
-10.77
-12.15
-13.97
-16.23
-18.83
-21.55
-24.06
-26.01
-27.02
-26.75
-25.02
-21.85
-17.44
-12.18
-6.52
-0.88
4.44
9.26
13.50
17.05
19.79
21.58
22.38
22.28
21.55
20.55
19.60
18.87
18.35
17.89
17.29
16.39
15.20
13.81
12.39
11.07
9.89
8.77
7.59
6.17
4.45
2.43
0.23
-2.03
-4.22
-6.31
-8.34
-10.40
-12.59
-14.97
-17.55
-20.31
-23.15
-25.90
-28.23
-29.76
-30.07
-28.85
-26.06
-21.89
-16.74
-11.05
-5.20
0.58
6.13
11.27
15.77
19.34
21.77
23.02
23.26
22.81
22.03
21.18
20.36
19.50
18.49
17.24
15.76
14.22
12.82
11.81
11.26
11.10
11.05
10.76
9.87
8.15
5.62
2.50
-0.81
-3.92
-6.46
-8.26
-9.35
-9.93
-10.22
-10.30
-10.10
-9.57
-8.74
-7.78
-6.91
-6.24
-5.64
-4.71
-2.91
0.08
4.04
8.30
12.13
15.22
17.80
20.50
23.96
28.59
33.95
38.77
41.48
41.17
38.08
33.51
29.22
26.76
27.52
31.61
37.56
43.03
45.96
45.48
42.08
37.27
33.05
32.12
35.98
43.76
52.58
58.97
60.28
55.41
45.33
33.36
25.78
28.63
44.27
69.86
98.00
119.24
125.31
111.95
72.77
11.58
-56.74
-112.86
-143.36
-145.93
-127.08
-97.45
-68.08
-47.52
-39.10
-39.52
-43.94
-47.25
-44.95
-34.45
-16.61
3.70
19.41
21.50
5.31
-25.72
-60.82
-87.40
-97.44
-91.07
-77.09
-63.16
-53.01
-46.24
-40.61
-34.75
-29.59
-27.82
-31.20
-38.95
-47.72
-53.00
-51.23
-41.65
-26.57
-10.05
4.04
13.76
19.17
22.00
24.97
30.72
40.87
55.30
72.25
88.73
101.84
110.00
110.50
103.42
90.52
74.52
57.95
42.51
28.79
15.81
4.22
-5.16
-12.01
-16.99
-20.50
-23.15
-24.61
-24.70
-23.71
-22.15
-21.00
-19.65
-18.02
-16.03
-13.70
-11.18
-8.96
-7.87
-8.87
-13.15
-21.36
-33.46
-48.07
-62.57
-73.62
-78.37
-75.48
-65.55
-51.12
-35.55
-22.04
-12.59
-7.48
-5.46
-4.73
-3.88
-2.30
-0.27
1.55
2.60
2.55
1.68
0.67
-0.06
-0.70
-1.91
-4.31
-8.07
-12.72
-17.68
-22.10
-25.02
-25.77
-24.26
-20.74
-15.44
-8.34
2.90
18.44
36.02
52.32
64.75
72.02
74.11
71.88
66.86
60.79
54.98
49.74
45.28
41.80
39.53
38.56
38.84
40.10
41.79
42.82
42.67
41.07
37.87
32.81
25.48
15.39
2.45
-12.67
-28.62
-43.40
-54.80
-61.11
-61.74
-57.23
-49.22
-39.80
-31.12
-25.10
-23.04
-25.35
-31.54
-40.37
-50.07
-59.02
-65.85
-69.75
-70.58
-68.81
-65.34
-61.20
-57.20
-53.67
-50.85
-48.64
-46.82
-45.23
-43.68
-42.18
-40.72
-39.16
-37.30
-35.55
-34.44
-34.49
-35.98
-38.77
-42.87
-48.57
-56.37
-63.47
-67.64
-67.45
-62.75
-54.18
-42.38
-28.77
-15.62
-5.67
-1.28
-3.96
-12.77
-25.05
-36.89
-43.59
-41.82
-30.74
-12.13
10.52
33.16
52.93
69.07
78.96
82.33
79.86
72.89
63.27
53.30
45.19
40.62
40.22
43.42
49.44
57.19
65.89
75.36
85.91
97.72
110.55
123.58
135.65
146.19
154.95
161.98
167.36
170.84
171.77
169.34
163.05
153.12
140.79
127.65
114.98
103.32
92.38
81.48
69.78
56.41
40.32
20.49
-3.88
-32.76
-64.79
-97.34
-126.93
-150.55
-166.73
-175.98
-180.17
-181.30
-180.28
-176.46
-168.04
-152.96
-130.36
-101.44
-69.33
-37.83
-9.64
14.71
36.72
56.64
73.51
85.23
89.55
85.00
71.86
52.48
30.43
9.05
-9.62
-24.75
-36.24
-44.03
-48.08
-48.68
-46.30
-41.94
-37.13
-33.95
-34.14
-39.40
-48.71
-59.42
-67.66
-68.41
-57.49
-33.62
0.00
36.63
68.15
87.88
92.15
80.36
55.03
20.41
-18.53
-56.84
-88.75
-108.11
-109.88
-87.96
-43.49
16.22
79.47
133.60
167.65
175.97
158.93
121.70
71.88
17.05
-35.52
-79.95
-112.60
-133.55
-144.62
-148.22
-146.52
-141.10
-132.92
-121.64
-106.09
-79.68
-42.65
-1.86
33.93
59.74
75.38
82.96
85.24
84.56
82.54
79.33
75.51
72.12
69.82
67.97
64.44
56.98
44.43
27.44
7.55
-12.40
-29.34
-41.17
-47.43
-49.16
-47.92
-45.16
-42.03
-40.22
-40.01
-41.10
-42.59
-43.45
-42.90
-40.71
-37.11
-32.85
-29.17
-26.93
-26.55
-27.84
-30.28
-33.29
-36.35
-39.13
-41.56
-43.96
-46.75
-50.30
-54.76
-59.89
-64.97
-68.83
-69.88
-66.51
-57.36
-41.72
-20.26
5.11
31.51
55.84
75.53
89.23
96.87
99.46
98.64
96.00
92.84
89.90
87.42
85.33
83.42
81.24
78.23
74.14
69.24
64.30
60.28
57.85
57.07
57.45
57.68
56.26
52.51
47.01
41.37
37.29
35.78
36.61
38.77
40.02
37.93
31.28
20.89
9.32
0.04
-3.55
0.89
14.15
33.70
53.98
68.28
71.01
59.41
34.35
0.19
-39.30
-75.30
-98.89
-106.92
-103.40
-95.08
-86.69
-79.39
-72.11
-63.49
-52.74
-40.90
-30.06
-21.80
-16.51
-13.71
-12.63
-12.24
-12.00
-11.18
-9.81
-8.56
-8.10
-8.59
-9.73
-11.04
-12.18
-12.91
-13.19
-14.15
-17.30
-23.10
-30.00
-35.62
-36.70
-31.42
-20.37
-5.99
7.67
16.83
19.73
17.06
10.41
2.27
-5.15
-10.49
-13.07
-13.78
-14.13
-15.41
-16.82
-16.13
-10.12
4.30
28.57
61.13
95.67
122.68
133.34
122.82
92.16
47.92
-0.83
-47.18
-81.15
-97.82
-100.11
-95.32
-90.49
-89.16
-90.69
-91.46
-86.59
-73.42
-50.08
-17.98
18.83
54.02
81.32
96.71
99.90
94.00
83.79
72.93
61.04
48.83
36.97
26.46
18.57
14.27
13.46
14.62
15.15
12.41
5.67
-3.96
-13.98
-21.75
-25.66
-25.76
-23.54
-21.24
-20.89
-23.04
-27.00
-31.13
-33.64
-33.38
-30.21
-24.91
-18.76
-13.00
-8.20
-4.39
-1.17
1.89
4.94
7.74
9.88
11.12
11.51
11.52
11.65
12.21
13.18
14.12
14.53
14.17
13.24
12.24
11.69
11.88
12.62
13.31
12.93
10.58
6.10
0.19
-5.94
-11.06
-14.46
-16.20
-17.20
-19.17
-23.51
-30.26
-37.86
-43.94
-46.39
-43.94
-36.69
-25.99
-14.67
-5.64
-0.47
0.94
-0.21
-2.03
-1.85
3.08
14.35
30.19
45.94
55.84
54.94
40.59
13.24
-23.05
-61.04
-89.76
-101.54
-97.83
-87.48
-79.58
-78.46
-82.80
-86.46
-84.15
-69.99
-43.17
-7.32
31.81
68.74
99.97
120.43
127.76
124.85
117.38
109.08
100.85
92.08
82.13
70.72
57.60
43.10
27.72
12.09
-3.51
-18.55
-31.89
-42.17
-48.52
-50.83
-49.03
-43.38
-34.77
-25.50
-17.36
-11.68
-8.69
-7.66
-7.41
-6.56
-4.21
-0.44
3.63
6.59
7.30
5.50
1.77
-2.74
-6.56
-8.58
-8.43
-6.62
-4.11
-1.88
-0.55
-0.21
-0.59
-1.20
-1.72
-2.10
-2.52
-3.17
-4.18
-5.54
-7.10
-8.73
-10.33
-11.86
-13.29
-14.59
-15.77
-16.89
-18.08
-19.51
-21.30
-23.41
-25.57
-27.35
-28.24
-27.85
-26.00
-22.76
-18.39
-13.19
-7.43
-1.35
4.83
10.86
16.46
21.34
25.25
28.05
29.70
30.30
30.04
29.20
28.07
26.83
25.59
24.34
22.99
21.51
19.84
17.97
15.87
13.55
11.02
8.42
5.95
3.76
1.93
0.36
-1.16
-2.86
-4.85
-7.12
-9.59
-12.19
-14.92
-17.85
-20.99
-24.24
-27.42
-30.25
-32.53
-34.12
-34.96
-35.01
-34.18
-32.38
-29.47
-25.42
-20.36
-14.53
-8.32
-2.10
3.78
9.07
13.64
17.38
20.21
22.05
22.89
22.80
21.99
20.79
19.54
18.52
17.87
17.58
17.54
17.60
17.64
17.55
17.23
16.62
15.68
14.46
13.06
11.64
10.29
9.07
7.86
6.50
4.79
2.60
-0.07
-3.14
-6.47
-9.92
-13.44
-17.05
-20.82
-24.81
-28.96
-32.97
-36.37
-38.56
-38.98
-37.36
-33.75
-28.60
-22.55
-16.26
-10.26
-4.89
-0.26
3.62
6.83
9.50
11.77
13.77
15.55
17.08
18.24
18.97
19.26
19.25
19.14
19.10
19.17
19.28
19.21
18.78
17.90
16.59
15.03
13.40
11.83
10.35
8.88
7.26
5.40
3.26
0.93
-1.48
-3.86
-6.16
-8.38
-10.61
-12.95
-15.54
-18.46
-21.73
-25.13
-28.23
-30.40
-31.00
-29.64
-26.31
-21.43
-15.62
-9.54
-3.59
2.04
7.35
12.28
16.65
20.15
22.51
23.62
23.60
22.81
21.69
20.59
19.71
19.08
18.62
18.24
17.86
17.44
16.93
16.26
15.35
14.19
12.86
11.46
10.09
8.76
7.37
5.76
3.79
1.45
-1.13
-3.78
-6.33
-8.69
-10.89
-13.04
-15.26
-17.69
-20.41
-23.41
-26.46
-29.17
-30.99
-31.40
-30.07
-26.95
-22.34
-16.75
-10.74
-4.80
0.78
5.83
10.28
14.10
17.26
19.70
21.40
22.39
22.74
22.59
22.11
21.48
20.80
20.14
19.49
18.78
18.00
17.15
16.30
15.51
14.82
14.16
13.40
12.35
10.90
8.99
6.71
4.20
1.59
-0.97
-3.42
-5.68
-7.73
-9.58
-11.36
-13.28
-15.57
-18.34
-21.49
-24.71
-27.48
-29.27
-29.63
-28.33
-25.35
-20.95
-15.56
-9.68
-3.83
1.61
6.40
10.46
13.78
16.39
18.27
19.36
19.68
19.28
18.38
17.23
16.10
15.16
14.52
14.15
13.92
13.65
13.21
12.51
11.53
10.34
9.02
7.66
6.28
4.81
3.14
1.17
-1.13
-3.69
-6.36
-8.94
-11.29
-13.37
-15.25
-17.11
-19.23
-21.80
-24.89
-28.29
-31.56
-34.08
-35.20
-34.49
-31.84
-27.51
-22.00
-15.88
-9.61
-3.48
2.32
7.68
12.45
16.41
19.42
21.41
22.48
22.84
22.75
22.38
21.82
21.08
20.18
19.19
18.21
17.36
16.65
16.03
15.36
14.50
13.34
11.84
9.98
7.80
5.33
2.67
-0.09
-2.82
-5.43
-7.87
-10.15
-12.34
-14.52
-16.80
-19.29
-22.07
-25.15
-28.35
-31.32
-33.55
-34.48
-33.73
-31.15
-26.93
-21.49
-15.32
-8.94
-2.71
3.08
8.25
12.61
16.05
18.49
19.96
20.55
20.48
19.97
19.27
18.56
17.92
17.35
16.79
16.18
15.55
14.95
14.50
14.26
14.15
14.01
13.61
12.75
11.30
9.30
6.89
4.32
1.81
-0.48
-2.51
-4.37
-6.25
-8.36
-10.84
-13.76
-17.07
-20.58
-24.01
-26.94
-28.92
-29.49
-28.34
-25.45
-21.05
-15.62
-9.70
-3.73
1.95
7.12
11.61
15.26
17.97
19.72
20.65
20.96
20.93
20.72
20.43
20.04
19.49
18.75
17.81
16.72
15.58
14.48
13.52
12.75
12.11
11.47
10.64
9.41
7.70
5.50
2.98
0.36
-2.06
-4.07
-5.59
-6.67
-7.53
-8.54
-10.07
-12.45
-15.77
-19.88
-24.29
-28.28
-31.03
-31.91
-30.56
-27.08
-21.88
-15.58
-8.82
-2.09
4.33
10.27
15.61
20.20
23.85
26.44
27.95
28.53
28.43
27.89
27.11
26.17
25.06
23.77
22.31
20.77
19.28
17.94
16.77
15.71
14.59
13.25
11.52
9.34
6.74
3.87
0.92
-1.96
-4.70
-7.34
-9.94
-12.58
-15.31
-18.20
-21.32
-24.75
-28.43
-32.09
-35.25
-37.30
-37.69
-36.19
-32.91
-28.28
-22.80
-16.89
-10.83
-4.79
1.08
6.54
11.29
15.07
17.77
19.47
20.37
20.79
20.97
21.06
21.12
21.10
20.91
20.49
19.79
18.87
17.83
16.75
15.72
14.73
13.69
12.47
10.96
9.10
6.92
4.54
2.07
-0.35
-2.66
-4.83
-6.88
-8.86
-10.86
-13.00
-15.39
-18.11
-21.12
-24.23
-27.07
-29.17
-30.07
-29.47
-27.26
-23.59
-18.75
-13.16
-7.26
-1.47
3.87
8.52
12.40
15.53
17.96
19.73
20.85
21.32
21.24
20.81
20.25
19.73
19.31
18.87
18.31
17.56
16.69
15.82
15.03
14.28
13.44
12.36
10.98
9.39
7.70
5.97
4.23
2.44
0.60
-1.22
-2.90
-4.40
-5.79
-7.28
-9.09
-11.32
-13.97
-16.84
-19.68
-22.14
-23.89
-24.55
-23.85
-21.65
-18.07
-13.46
-8.34
-3.24
1.46
5.60
9.18
12.25
14.85
16.92
18.39
19.19
19.33
18.93
18.15
17.22
16.31
15.50
14.80
14.14
13.47
12.75
11.96
11.11
10.20
9.21
8.13
6.94
5.67
4.34
2.96
1.54
0.05
-1.53
-3.21
-4.95
-6.71
-8.45
-10.14
-11.84
-13.65
-15.71
-18.09
-20.70
-23.29
-25.43
-26.60
-26.38
-24.57
-21.24
-16.71
-11.48
-6.07
-0.89
3.78
7.80
11.12
13.67
15.46
16.53
16.99
17.05
16.94
16.80
16.71
16.60
16.37
15.94
15.33
14.58
13.74
12.81
11.76
10.52
9.11
7.62
6.17
4.81
3.51
2.14
0.59
-1.15
-3.01
-4.83
-6.48
-7.94
-9.31
-10.72
-12.32
-14.16
-16.24
-18.47
-20.75
-22.88
-24.59
-25.54
-25.41
-23.96
-21.15
-17.16
-12.35
-7.15
-1.98
2.88
7.30
11.28
14.88
18.04
20.62
22.35
23.02
22.54
21.06
18.93
16.59
14.41
12.60
11.16
10.00
9.03
8.22
7.57
7.10
6.73
6.31
5.63
4.55
3.06
1.35
-0.38
-1.91
-3.20
-4.35
-5.54
-6.93
-8.56
-10.34
-12.15
-13.90
-15.62
-17.38
-19.25
-21.25
-23.24
-25.03
-26.34
-26.90
-26.45
-24.81
-21.92
-17.87
-12.97
-7.65
-2.37
2.43
6.50
9.74
12.18
13.90
14.99
15.53
15.57
15.20
14.49
13.57
12.51
11.38
10.19
8.96
7.75
6.58
5.51
4.51
3.50
2.38
1.05
-0.52
-2.26
-4.06
-5.82
-7.49
-9.10
-10.72
-12.36
-14.01
-15.59
-17.05
-18.40
-19.71
-21.09
-22.63
-24.40
-26.40
-28.57
-30.75
-32.67
-33.93
-34.09
-32.80
-29.92
-25.60
-20.26
-14.44
-8.68
-3.34
1.36
5.37
8.67
11.31
13.32
14.77
15.77
16.43
16.85
17.08
17.14
17.05
16.84
16.57
16.32
16.14
16.01
15.83
15.40
14.56
13.24
11.55
9.69
7.93
6.41
5.11
3.86
2.48
0.89
-0.87
-2.70
-4.50
-6.24
-8.02
-9.91
-11.94
-14.09
-16.34
-18.72
-21.29
-24.04
-26.76
-28.98
-30.09
-29.61
-27.33
-23.46
-18.53
-13.17
-7.88
-3.00
1.38
5.22
8.56
11.37
13.65
15.38
16.59
17.31
17.62
17.60
17.37
17.06
16.72
16.41
16.11
15.78
15.43
15.08
14.74
14.36
13.84
13.02
11.85
10.30
8.46
6.41
4.25
2.03
-0.22
-2.47
-4.68
-6.81
-8.87
-10.91
-13.02
-15.29
-17.74
-20.34
-22.97
-25.51
-27.77
-29.57
-30.64
-30.70
-29.54
-27.09
-23.52
-19.18
-14.54
-9.97
-5.70
-1.78
1.82
5.12
8.07
10.59
12.58
14.04
15.05
15.76
16.33
16.89
17.52
18.20
18.86
19.40
19.79
20.01
20.12
20.15
20.01
19.55
18.58
16.99
14.81
12.29
9.70
7.28
5.11
3.07
1.00
-1.23
-3.64
-6.12
-8.54
-10.83
-13.05
-15.34
-17.84
-20.57
-23.39
-25.91
-27.62
-28.08
-27.02
-24.44
-20.62
-15.99
-11.02
-6.04
-1.24
3.31
7.56
11.44
14.81
17.49
19.36
20.43
20.78
20.59
20.04
19.26
18.36
17.42
16.53
15.76
15.13
14.56
13.91
13.05
11.91
10.51
8.95
7.32
5.63
3.80
1.77
-0.46
-2.80
-5.08
-7.17
-9.00
-10.65
-12.29
-14.08
-16.10
-18.41
-20.93
-23.60
-26.31
-28.94
-31.27
-33.04
-33.93
-33.66
-32.06
-29.17
-25.19
-20.50
-15.46
-10.40
-5.50
-0.83
3.57
7.63
11.22
14.20
16.44
17.93
18.77
19.12
19.20
19.18
19.09
18.92
18.57
17.98
17.18
16.28
15.44
14.74
14.20
13.65
12.93
11.84
10.31
8.39
6.16
3.77
1.37
-0.92
-2.98
-4.73
-6.19
-7.45
-8.66
-9.99
-11.59
-13.54
-15.83
-18.40
-21.07
-23.58
-25.55
-26.62
-26.47
-25.01
-22.31
-18.61
-14.19
-9.34
-4.36
0.40
4.54
7.71
9.76
10.82
11.27
11.65
12.41
13.78
15.77
18.15
20.57
22.59
23.78
23.85
22.78
20.88
18.69
16.83
15.70
15.36
15.51
15.68
15.46
14.65
13.27
11.45
9.32
6.96
4.34
1.45
-1.62
-4.68
-7.47
-9.80
-11.63
-13.19
-14.88
-17.08
-19.96
-23.30
-26.54
-28.91
-29.76
-28.78
-26.06
-22.06
-17.37
-12.54
-7.89
-3.58
0.44
4.17
7.56
10.42
12.52
13.71
14.02
13.70
13.10
12.57
12.27
12.15
12.06
11.82
11.40
10.87
10.35
9.87
9.40
8.80
7.98
6.87
5.52
4.01
2.46
0.93
-0.55
-2.01
-3.53
-5.17
-7.02
-9.08
-11.30
-13.54
-15.68
-17.68
-19.56
-21.44
-23.44
-25.52
-27.51
-29.09
-29.88
-29.57
-27.97
-25.10
-21.15
-16.39
-11.14
-5.73
-0.42
4.53
8.92
12.61
15.53
17.71
19.25
20.28
20.92
21.25
21.33
21.25
21.04
20.76
20.38
19.83
19.04
17.98
16.76
15.55
14.55
13.82
13.23
12.51
11.35
9.57
7.29
4.80
2.47
0.51
-1.12
-2.65
-4.34
-6.32
-8.54
-10.87
-13.24
-15.70
-18.42
-21.50
-24.83
-28.04
-30.58
-31.91
-31.70
-29.91
-26.71
-22.41
-17.36
-11.89
-6.36
-1.10
3.60
7.56
10.74
13.23
15.18
16.71
17.90
18.75
19.24
19.37
19.13
18.56
17.70
16.63
15.46
14.33
13.37
12.63
12.10
11.64
11.11
10.35
9.28
7.91
6.30
4.54
2.71
0.84
-1.06
-3.01
-4.99
-7.01
-9.04
-11.07
-13.10
-15.22
-17.57
-20.21
-23.07
-25.88
-28.29
-29.85
-30.17
-28.96
-26.18
-22.04
-16.88
-11.12
-5.08
0.83
6.37
11.41
15.93
19.83
22.94
25.18
26.66
27.74
28.55
29.28
30.19
31.46
32.96
34.29
35.16
35.54
35.77
35.71
35.47
35.49
36.35
38.05
40.01
41.47
42.07
42.13
41.62
41.31
42.83
47.94
56.80
67.40
75.99
77.98
69.26
46.18
8.48
-39.70
-90.69
-136.48
-170.77
-189.86
-192.63
-171.96
-127.75
-69.68
-12.47
33.53
65.10
84.14
94.57
100.11
103.06
102.73
99.03
91.23
80.31
67.32
53.14
38.46
24.14
11.40
0.47
-8.47
-15.55
-19.02
-19.78
-20.27
-22.90
-28.46
-35.66
-42.39
-46.24
-45.52
-39.72
-30.40
-20.10
-11.15
-5.01
-2.19
-2.88
-6.77
-12.96
-19.80
-25.67
-29.19
-29.70
-27.38
-23.17
-18.38
-14.20
-11.63
-11.70
-15.86
-25.31
-39.75
-56.40
-69.98
-74.49
-65.84
-44.19
-14.51
15.21
37.35
47.69
46.63
37.77
25.27
11.76
-1.75
-14.33
-23.58
-25.89
-19.08
-5.36
7.93
11.15
-2.02
-29.64
-60.53
-78.79
-71.82
-37.18
15.37
68.01
102.82
108.60
83.66
33.47
-33.73
-110.32
-189.70
-264.74
-326.60
-365.96
-376.44
-358.37
-319.88
-274.47
-235.72
-212.05
-204.05
-205.52
-207.12
-200.52
-181.27
-149.48
-108.79
-64.79
-23.37
10.62
34.81
49.96
59.69
69.48
84.73
109.10
143.60
186.28
233.01
278.48
317.32
345.42
360.97
365.09
361.38
354.44
347.52
341.18
333.21
320.23
299.89
272.53
241.06
209.35
180.39
154.70
130.87
106.52
79.54
48.49
12.58
-28.36
-73.52
-120.00
-163.60
-199.31
-223.66
-237.05
-244.14
-251.65
-264.56
-283.04
-301.24
-310.94
-304.75
-279.91
-239.35
-189.97
-138.48
-88.67
-43.89
-0.82
41.73
84.18
126.62
169.81
214.38
261.08
308.94
353.79
389.25
407.84
405.35
382.44
343.94
295.32
242.52
190.13
140.48
94.21
50.05
6.63
-37.70
-85.22
-139.19
-199.01
-258.87
-309.03
-339.16
-342.84
-318.89
-271.77
-201.87
-121.10
-46.81
7.62
38.27
50.73
49.89
38.97
21.84
3.55
-12.89
-23.07
-24.05
-16.10
-2.66
11.07
20.46
23.74
22.37
18.48
14.98
14.11
16.67
21.81
27.16
31.24
33.78
35.36
36.33
37.68
40.18
43.51
45.92
45.19
39.46
28.61
14.30
-1.14
-15.17
-26.10
-33.48
-37.87
-40.25
-41.27
-41.22
-40.43
-39.81
-40.44
-43.13
-48.06
-54.57
-61.39
-66.94
-69.53
-67.79
-60.98
-49.34
-34.33
-18.48
-4.77
4.27
7.44
5.29
-0.15
-6.34
-11.24
-13.98
-14.82
-14.60
-14.01
-13.15
-11.55
-8.67
-4.43
0.47
4.76
7.19
7.19
5.19
2.36
0.09
-0.62
0.39
2.48
4.60
5.80
5.67
4.38
2.51
0.75
-0.35
-0.44
0.59
2.44
4.39
5.26
3.64
-1.59
-10.66
-22.45
-34.70
-44.70
-50.44
-51.09
-47.07
-39.71
-30.69
-21.47
-12.96
-5.63
0.27
4.22
6.09
6.47
6.48
7.26
9.44
12.77
16.04
17.66
15.93
10.81
4.14
-1.33
-3.71
-3.11
-1.38
-1.13
-4.17
-11.17
-20.55
-29.20
-34.22
-34.41
-30.13
-22.12
-10.67
8.00
33.11
58.15
74.56
77.25
66.63
47.25
25.56
7.21
-4.77
-10.97
-13.46
-14.02
-13.32
-11.35
-8.16
-4.25
-0.84
0.55
-1.63
-7.67
-16.04
-23.95
-28.36
-27.84
-21.49
-10.58
2.01
12.57
18.39
18.83
15.29
10.25
5.97
3.72
3.18
3.03
1.86
-0.95
-4.95
-9.00
-11.88
-12.93
-12.27
-10.94
-10.33
-11.18
-13.32
-15.58
-16.92
-16.74
-15.00
-12.35
-9.67
-7.54
-5.28
-1.56
4.31
11.43
17.48
19.89
17.00
9.14
-1.51
-11.03
-15.76
-13.85
-5.73
7.04
23.17
42.12
64.18
84.47
97.29
99.76
93.66
82.85
70.66
59.42
50.45
44.25
39.86
35.78
30.25
21.94
10.63
-2.27
-13.78
-22.53
-27.56
-29.27
-28.59
-26.48
-23.59
-20.45
-17.63
-16.19
-17.19
-20.77
-26.24
-31.97
-36.10
-37.33
-35.50
-31.82
-28.89
-29.35
-34.44
-43.52
-53.95
-61.51
-61.70
-51.37
-28.45
3.33
35.21
58.71
70.55
72.93
70.53
67.48
65.94
66.17
66.92
66.75
64.46
58.93
49.10
34.71
16.76
-2.54
-20.62
-35.54
-46.07
-51.48
-51.61
-47.62
-40.26
-31.14
-22.17
-15.04
-10.73
-9.06
-8.87
-8.90
-8.66
-8.64
-9.79
-12.67
-17.61
-24.42
-32.28
-39.68
-44.81
-46.55
-44.96
-41.28
-37.52
-35.89
-38.25
-45.23
-55.24
-65.08
-69.70
-64.62
-47.73
-20.54
11.93
42.96
66.04
77.83
79.56
75.17
68.58
61.87
55.24
48.15
40.79
34.54
31.76
34.15
41.46
51.08
58.97
60.88
54.35
40.18
21.28
2.73
-10.30
-14.81
-11.17
-2.71
5.73
9.95
7.96
0.41
-9.85
-19.17
-24.46
-24.21
-18.87
-10.81
-3.69
-1.34
-6.35
-18.78
-36.04
-53.09
-65.11
-69.59
-67.15
-60.77
-53.92
-48.92
-46.31
-45.66
-46.49
-48.44
-50.32
-49.22
-41.02
-22.60
5.38
37.57
65.23
80.21
79.02
64.70
45.31
29.65
23.05
25.25
31.59
36.33
35.90
30.21
22.03
15.04
11.25
11.04
13.43
17.29
22.22
28.47
35.83
42.51
44.88
38.48
20.66
-7.11
-38.54
-64.60
-77.39
-73.90
-57.03
-33.50
-10.08
9.82
26.73
42.86
59.00
72.78
79.40
74.94
58.99
35.14
9.18
-13.85
-31.38
-43.24
-48.70
-48.01
-41.52
-30.27
-16.81
-4.86
2.19
2.95
-1.29
-7.53
-13.02
-16.32
-17.41
-17.11
-16.13
-14.60
-12.37
-9.44
-6.29
-3.79
-2.52
-2.44
-3.02
-3.52
-3.34
-2.32
-0.65
1.24
2.83
3.85
4.33
4.46
4.35
4.06
3.45
2.45
1.01
-0.82
-2.91
-5.30
-7.77
-10.35
-13.13
-16.30
-19.96
-24.21
-29.01
-33.93
-37.91
-39.37
-36.82
-29.61
-18.71
-6.33
4.64
11.91
14.69
13.89
11.44
9.15
7.76
6.75
5.39
3.28
0.82
-1.12
-1.74
-1.10
-0.07
-0.03
-2.45
-7.75
-15.51
-24.71
-33.98
-41.94
-47.22
-48.55
-43.48
-32.70
-17.88
-1.55
13.37
24.56
30.98
33.12
32.52
30.87
29.01
27.19
25.06
22.20
18.74
15.34
12.91
12.12
12.95
14.54
16.33
17.95
19.31
20.05
19.29
15.87
9.21
0.11
-9.28
-15.96
-17.72
-14.37
-7.79
-0.88
3.97
5.95
5.85
4.98
4.38
4.25
4.25
4.15
4.32
5.55
8.45
13.14
18.64
23.74
27.38
29.20
29.60
29.36
29.29
29.35
29.61
29.45
28.25
25.70
22.07
18.15
15.08
14.07
15.89
20.44
26.09
29.97
28.64
19.54
2.37
-20.36
-44.07
-63.87
-76.11
-79.70
-75.48
-65.69
-52.93
-39.78
-28.55
-21.19
-18.74
-21.01
-26.57
-33.23
-38.87
-42.08
-42.15
-38.82
-32.02
-22.06
-9.89
2.79
14.18
23.14
29.75
34.84
39.12
42.44
43.79
42.19
37.38
30.18
22.04
14.44
8.45
4.77
3.83
5.49
8.70
11.50
11.60
7.66
0.22
-8.21
-14.33
-15.60
-11.46
-3.37
5.99
13.77
17.78
16.49
9.12
-3.94
-20.69
-37.63
-50.58
-56.25
-53.60
-43.89
-30.07
-15.27
-1.56
10.36
20.42
28.41
33.66
34.05
28.89
19.29
8.12
-0.98
-4.80
-1.62
8.63
24.61
44.11
64.52
82.57
94.54
96.79
86.84
64.37
31.72
-6.53
-44.76
-77.58
-101.13
-113.57
-115.06
-107.32
-93.07
-75.42
-57.35
-41.18
-28.15
-18.63
-12.34
-8.76
-7.41
-7.93
-9.90
-12.63
-15.07
-15.87
-13.92
-8.72
-0.68
8.96
18.48
26.30
31.40
33.58
33.18
30.69
26.50
20.76
13.70
5.88
-1.73
-7.99
-12.09
-13.88
-13.93
-13.19
-12.56
-12.44
-12.70
-12.90
-12.64
-11.85
-10.78
-9.93
-9.73
-10.45
-12.05
-14.21
-16.42
-18.08
-18.70
-18.06
-16.40
-14.32
-12.59
-11.83
-12.18
-13.21
-14.10
-13.92
-12.01
-8.15
-2.54
4.27
11.66
18.99
25.70
31.38
35.78
38.90
40.89
42.00
42.44
42.31
41.65
40.45
38.85
37.09
35.40
33.93
32.61
31.23
29.53
27.31
24.55
21.35
17.85
14.15
10.34
6.42
2.43
-1.62
-5.69
-9.76
-13.81
-17.78
-21.55
-24.95
-27.79
-29.95
-31.44
-32.41
-33.10
-33.82
-34.80
-36.15
-37.78
-39.34
-40.33
-40.15
-38.30
-34.50
-28.80
-21.51
-13.12
-4.16
4.89
13.61
21.64
28.64
34.42
38.88
42.13
44.37
45.84
46.68
46.92
46.55
45.57
44.05
42.14
39.99
37.72
35.42
33.12
30.84
28.61
26.44
24.38
22.45
20.69
19.16
17.85
16.72
15.71
14.71
13.62
12.39
10.99
9.39
7.55
5.43
3.02
0.30
-2.75
-6.18
-9.99
-14.15
-18.42
-22.40
-25.52
-27.29
-27.38
-25.74
-22.60
-18.37
-13.47
-8.28
-3.14
1.56
5.36
7.78
8.39
7.02
3.82
-0.78
-6.14
-11.65
-16.86
-21.59
-25.87
-29.82
-33.55
-37.06
-40.23
-42.81
-44.56
-45.25
-44.74
-43.03
-40.29
-36.88
-33.25
-29.78
-26.70
-23.92
-21.16
-18.12
-14.66
-11.00
-7.64
-5.24
-4.37
-5.30
-7.95
-11.91
-16.56
-21.12
-24.83
-26.95
-26.98
-24.58
-19.72
-12.64
-3.77
6.28
16.79
27.05
36.46
44.55
51.11
56.17
59.96
62.83
65.22
67.51
70.00
72.73
75.47
77.76
79.00
78.74
76.82
73.41
68.89
63.59
57.55
50.49
41.90
31.38
18.93
5.03
-9.35
-23.09
-35.17
-44.97
-52.33
-57.44
-60.70
-62.49
-63.13
-62.82
-61.76
-60.15
-58.21
-56.13
-54.03
-51.87
-49.49
-46.63
-42.96
-38.27
-32.47
-25.66
-18.15
-10.31
-2.50
5.00
11.99
18.32
23.82
28.33
31.71
33.92
35.08
35.42
35.23
34.74
34.13
33.48
32.85
32.28
31.92
31.89
32.34
33.31
34.73
36.38
38.00
39.31
40.08
40.19
39.59
38.25
36.14
33.20
29.40
24.77
19.40
13.47
7.20
0.79
-5.59
-11.84
-17.88
-23.64
-28.98
-33.61
-37.14
-39.17
-39.38
-37.70
-34.33
-29.71
-24.37
-18.81
-13.36
-8.25
-3.57
0.57
4.06
6.77
8.65
9.75
10.25
10.37
10.28
9.99
9.42
8.42
6.92
4.98
2.80
0.61
-1.44
-3.31
-5.09
-6.85
-8.64
-10.41
-12.06
-13.50
-14.68
-15.62
-16.40
-17.13
-17.92
-18.86
-19.99
-21.26
-22.60
-23.91
-25.14
-26.33
-27.55
-28.79
-29.89
-30.52
-30.25
-28.68
-25.60
-21.07
-15.39
-9.02
-2.41
4.07
10.19
15.78
20.65
24.61
27.48
29.21
29.87
29.67
28.86
27.67
26.22
24.52
22.57
20.36
17.95
15.46
13.04
10.85
9.00
7.51
6.32
5.29
4.28
3.20
2.06
0.94
-0.06
-0.90
-1.63
-2.41
-3.38
-4.66
-6.32
-8.34
-10.73
-13.47
-16.52
-19.80
-23.15
-26.28
-28.86
-30.58
-31.18
-30.55
-28.67
-25.58
-21.41
-16.33
-10.63
-4.69
1.09
6.34
10.88
14.68
17.81
20.36
22.33
23.64
24.20
24.03
23.23
22.02
20.62
19.19
17.78
16.38
14.91
13.34
11.66
9.90
8.14
6.41
4.76
3.15
1.52
-0.20
-2.04
-3.94
-5.77
-7.38
-8.71
-9.83
-10.96
-12.31
-14.03
-16.09
-18.33
-20.59
-22.71
-24.58
-26.04
-26.87
-26.71
-25.27
-22.42
-18.31
-13.32
-7.96
-2.63
2.44
7.16
11.55
15.57
19.12
22.09
24.35
25.84
26.60
26.65
26.05
24.90
23.24
21.20
18.95
16.66
14.56
12.79
11.39
10.24
9.17
7.97
6.50
4.75
2.76
0.65
-1.50
-3.60
-5.62
-7.57
-9.45
-11.28
-13.06
-14.78
-16.41
-17.94
-19.45
-21.06
-22.90
-25.04
-27.36
-29.51
-31.03
-31.45
-30.45
-27.99
-24.27
-19.62
-14.43
-9.02
-3.62
1.58
6.40
10.68
14.26
17.01
18.89
19.94
20.25
20.02
19.44
18.72
18.00
17.31
16.58
15.71
14.63
13.33
11.85
10.24
8.54
6.72
4.79
2.80
0.84
-0.99
-2.61
-4.06
-5.41
-6.78
-8.21
-9.71
-11.24
-12.76
-14.26
-15.75
-17.26
-18.86
-20.64
-22.72
-25.10
-27.65
-29.97
-31.53
-31.86
-30.70
-28.14
-24.51
-20.21
-15.53
-10.62
-5.63
-0.80
3.47
6.72
8.65
9.24
8.80
7.80
6.70
5.78
5.12
4.71
4.46
4.25
4.02
3.69
3.21
2.58
1.80
0.89
-0.20
-1.68
-3.86
-7.04
-11.40
-16.76
-22.54
-27.83
-31.69
-33.34
-32.54
-29.68
-25.79
-22.26
-20.47
-21.33
-24.92
-30.46
-36.59
-41.86
-45.26
-46.35
-45.23
-42.24
-37.68
-31.84
-25.21
-18.57
-12.92
-9.19
-7.88
-8.86
-11.37
-14.23
-16.01
-15.20
-10.45
-0.95
13.10
30.29
48.27
64.48
77.06
85.28
89.60
91.04
90.70
89.39
87.82
86.88
87.35
89.46
92.60
95.19
95.16
90.80
81.50
68.24
53.38
39.53
28.71
21.84
18.72
18.44
19.85
21.73
23.23
24.14
24.38
23.94
22.90
21.35
19.13
15.96
11.21
5.10
-0.18
-2.22
0.56
8.42
19.59
30.73
38.26
39.04
32.83
23.95
17.03
14.85
18.08
24.84
31.42
33.77
27.56
11.26
-11.01
-35.03
-58.28
-78.97
-96.43
-110.99
-123.55
-137.20
-153.90
-170.57
-184.86
-195.75
-201.52
-200.88
-194.20
-171.17
-130.99
-100.16
-88.63
-90.99
-101.84
-114.18
-121.30
-118.60
-104.77
-83.39
-58.53
-29.68
3.17
39.25
78.90
121.86
165.32
202.91
224.99
224.79
204.50
171.56
135.93
107.98
93.95
93.41
99.89
103.74
98.05
82.52
59.69
32.12
1.81
-29.27
-56.40
-74.84
-83.74
-85.05
-79.97
-69.10
-53.70
-35.91
-19.20
-7.56
-4.32
-10.70
-24.46
-39.77
-49.49
-48.97
-34.99
-8.97
22.93
51.68
69.01
70.99
59.37
40.07
19.99
4.54
-3.09
-4.78
-5.60
-9.59
-17.06
-24.69
-28.22
-25.71
-17.99
-9.68
-5.35
-8.29
-18.83
-34.30
-49.59
-59.35
-59.98
-49.33
-27.53
3.44
40.39
79.68
117.33
150.33
176.83
191.17
191.03
177.39
154.00
125.70
96.71
68.99
42.26
18.39
-0.04
-10.61
-13.37
-10.69
-6.10
-2.46
-3.89
-8.50
-13.50
-17.05
-18.15
-17.41
-16.66
-18.43
-20.54
-22.54
-23.29
-21.97
-18.51
-13.48
-8.41
-5.26
-5.69
-10.05
-17.68
-25.91
-31.89
-33.73
-31.11
-25.44
-18.98
-13.83
-11.27
-11.98
-15.16
-19.06
-21.22
-18.87
-10.08
5.43
25.87
47.96
68.16
84.86
98.74
112.05
126.69
142.40
156.77
166.28
167.95
160.14
142.77
116.54
82.40
41.52
-4.42
-51.98
-96.38
-132.89
-158.38
-172.00
-175.00
-169.94
-160.29
-151.46
-148.78
-156.85
-177.86
-209.49
-243.47
-267.08
-267.75
-239.17
-187.19
-126.48
-75.94
-51.78
-61.67
-102.31
-161.59
-223.67
-274.48
-306.89
-317.31
-305.04
-272.01
-222.91
-164.88
-106.66
-57.25
-8.90
36.03
72.10
95.53
107.21
110.75
109.77
107.08
105.39
107.67
115.64
131.72
156.02
183.60
204.75
209.03
191.13
156.56
115.08
78.32
56.82
54.87
68.69
89.13
106.91
117.10
120.00
117.98
111.79
100.33
81.36
53.71
19.54
-15.27
-43.04
-56.25
-52.54
-36.17
-15.13
2.55
12.39
14.81
14.28
16.68
26.38
43.89
66.18
88.62
106.86
118.26
121.93
118.83
111.34
102.17
93.39
86.20
81.20
78.43
76.97
73.83
65.88
51.49
31.30
8.12
-14.50
-32.26
-41.43
-40.17
-31.27
-18.82
-5.87
5.72
15.06
20.15
20.93
19.63
19.63
20.50
21.14
21.28
20.61
18.30
10.00
-6.96
-32.91
-66.60
-110.45
-164.97
-226.11
-286.91
-340.08
-383.98
-418.39
-444.02
-432.92
-373.46
-282.80
-191.25
-127.72
-80.43
-37.73
7.39
57.67
109.28
152.60
180.44
192.25
192.68
188.77
184.88
183.74
185.31
186.65
181.76
167.40
145.65
122.61
105.94
101.85
113.77
140.30
174.79
208.05
232.86
245.97
247.54
221.21
163.03
89.56
23.67
-25.00
-58.65
-83.99
-106.24
-125.36
-139.74
-146.60
-145.68
-135.66
-120.27
-101.81
-80.48
-55.19
-25.45
6.48
35.76
53.27
61.31
61.85
53.86
38.47
18.76
-1.26
-18.94
-32.28
-40.67
-44.67
-47.95
-54.15
-67.67
-90.53
-120.78
-153.59
-181.79
-197.84
-195.87
-175.77
-130.31
-68.43
-11.06
26.37
42.99
46.95
46.89
47.81
49.69
50.57
47.33
39.88
31.40
25.19
22.49
22.72
24.61
26.71
27.91
26.46
22.39
17.75
14.69
14.02
15.47
18.54
22.92
28.27
34.13
40.55
48.79
59.44
71.05
80.59
84.94
83.16
76.76
68.94
63.83
64.12
69.17
74.92
76.20
69.76
56.77
41.20
27.77
20.09
18.93
22.62
28.03
32.11
32.91
30.41
24.51
14.67
0.46
-16.92
-33.64
-45.31
-49.79
-53.50
-59.80
-72.05
-93.71
-122.34
-154.67
-184.81
-205.57
-210.55
-196.65
-163.24
-113.76
-54.61
6.00
59.21
98.09
118.58
119.98
104.21
77.14
45.85
16.59
-7.17
-25.31
-39.19
-50.81
-62.09
-75.27
-90.26
-105.32
-117.63
-124.98
-126.21
-120.34
-107.31
-79.19
-37.81
6.28
42.38
68.07
85.40
95.82
98.85
94.43
79.15
49.62
6.03
-47.48
-102.30
-151.67
-193.40
-223.31
-239.24
-241.14
-231.76
-214.33
-190.90
-158.42
-115.42
-64.45
-10.45
41.53
88.57
129.81
167.08
204.34
250.71
310.20
378.50
445.64
500.62
535.81
547.77
537.28
477.66
367.60
233.50
110.27
16.64
-47.74
-90.68
-119.75
-139.99
-154.10
-158.26
-153.07
-143.04
-135.62
-137.02
-148.57
-167.49
-188.95
-207.30
-213.18
-201.90
-175.93
-137.49
-92.73
-46.62
-2.69
34.99
59.03
67.63
63.18
48.99
27.52
1.27
-25.31
-47.30
-61.24
-65.90
-60.72
-47.71
-30.95
-14.79
-2.47
5.26
8.99
10.04
9.06
7.39
5.95
4.93
4.21
3.65
3.61
4.49
6.25
8.50
11.06
13.78
16.51
19.22
21.89
24.80
28.71
33.20
38.14
43.76
50.16
57.09
63.70
68.72
71.04
70.38
67.41
62.74
57.10
50.89
43.92
35.37
24.01
8.73
-10.19
-30.98
-51.73
-69.79
-82.62
-89.00
-90.01
-89.14
-91.03
-98.59
-107.66
-113.99
-114.56
-109.58
-101.46
-91.92
-80.47
-64.40
-41.93
-8.40
36.02
87.30
139.81
188.67
231.84
270.57
299.88
316.89
319.16
304.01
271.39
224.73
169.23
110.34
51.57
-6.52
-64.32
-121.59
-176.40
-223.70
-256.98
-272.30
-269.51
-252.86
-230.12
-209.25
-195.60
-189.77
-187.44
-182.24
-171.00
-154.40
-136.27
-121.41
-112.51
-108.56
-105.10
-96.59
-71.79
-30.55
15.76
52.85
73.91
81.33
81.89
81.94
84.57
89.29
92.19
90.20
83.21
73.62
64.48
58.05
55.26
55.70
57.92
59.09
57.36
52.80
46.91
41.37
37.35
35.32
35.12
36.11
36.78
36.07
33.95
31.12
28.35
26.17
24.86
24.45
24.78
25.32
25.88
26.70
28.13
29.89
30.87
29.48
24.40
15.45
3.72
-8.58
-19.02
-26.07
-29.52
-30.12
-28.85
-26.42
-23.10
-19.16
-15.18
-12.23
-11.39
-13.19
-17.17
-22.04
-26.31
-28.74
-28.86
-26.99
-23.94
-20.67
-17.96
-16.32
-15.88
-16.35
-17.01
-16.94
-15.37
-12.08
-7.55
-2.81
1.04
3.31
4.10
4.22
4.67
6.11
8.52
11.34
13.79
15.33
15.90
15.93
16.07
16.78
18.16
19.88
21.42
22.26
22.13
21.06
18.75
15.31
10.93
5.80
0.10
-5.92
-11.80
-16.81
-20.09
-21.01
-19.35
-15.66
-11.17
-7.34
-5.37
-5.79
-8.33
-12.20
-16.40
-20.10
-22.89
-24.69
-25.63
-25.75
-24.94
-22.91
-19.29
-13.77
-6.14
3.43
14.44
26.03
37.22
47.05
54.83
60.20
63.15
63.94
62.91
60.37
56.52
51.35
44.75
36.52
26.58
15.09
2.63
-9.89
-21.40
-30.96
-37.97
-42.27
-44.08
-43.86
-42.21
-39.90
-37.80
-36.86
-37.93
-41.48
-47.45
-55.24
-63.73
-71.60
-77.47
-80.24
-79.20
-74.27
-66.07
-55.72
-44.58
-33.77
-23.88
-14.96
-6.75
0.93
7.94
13.77
17.87
19.95
20.19
19.16
17.59
16.05
14.94
14.51
15.09
17.14
20.99
26.69
33.73
41.15
47.75
52.50
54.81
54.59
52.19
48.18
43.19
37.75
32.23
26.75
21.19
15.32
9.16
3.12
-1.90
-4.85
-5.03
-2.61
1.27
4.76
5.95
3.66
-2.13
-10.26
-18.84
-25.96
-30.34
-31.53
-29.88
-26.12
-20.96
-14.91
-8.15
-0.68
7.60
16.85
27.21
38.61
50.54
61.92
71.09
76.30
76.21
70.50
60.08
46.91
33.47
22.20
14.86
12.31
14.33
19.86
27.28
34.74
40.58
43.64
43.45
40.29
35.03
28.96
23.38
19.31
17.26
17.11
18.08
18.93
18.11
14.14
5.97
-6.68
-23.11
-41.91
-61.34
-80.01
-97.21
-112.94
-127.54
-141.21
-153.69
-164.25
-171.95
-176.05
-176.22
-172.48
-165.02
-154.06
-139.85
-122.73
-103.29
-82.36
-61.06
-40.66
-22.38
-7.15
4.65
13.20
19.25
23.88
28.27
33.26
39.13
45.69
52.43
58.83
64.49
69.18
72.83
75.73
78.16
80.29
82.24
84.17
86.23
88.37
90.16
90.82
89.99
87.25
82.26
75.03
66.18
56.87
48.35
41.58
37.04
35.65
37.75
42.93
50.22
58.63
67.49
76.20
84.27
91.25
97.92
104.68
111.10
115.87
117.50
114.82
106.99
93.47
67.84
29.19
-17.12
-61.88
-97.26
-119.74
-129.46
-128.90
-121.74
-112.23
-103.14
-96.46
-93.38
-93.93
-97.47
-101.54
-103.46
-101.25
-94.31
-82.38
-66.46
-49.03
-33.45
-22.94
-19.50
-23.43
-33.85
-49.49
-67.53
-84.03
-95.44
-99.36
-94.94
-82.73
-63.98
-41.24
-18.34
1.65
17.17
28.04
35.28
40.69
46.60
56.32
72.08
93.76
115.65
131.12
135.25
127.74
112.26
94.09
79.36
75.48
81.78
95.10
111.01
124.06
129.03
122.50
95.96
51.25
-2.63
-54.39
-94.59
-118.20
-124.19
-113.91
-90.54
-59.55
-27.43
-2.27
8.74
3.68
-12.68
-30.97
-41.91
-41.69
-32.48
-19.39
-8.66
-4.50
-6.82
-12.09
-16.00
-16.02
-12.41
-7.34
-2.23
2.51
7.52
13.70
21.02
28.16
32.93
33.72
30.47
25.30
21.25
21.05
25.94
34.45
42.62
45.30
38.13
19.70
-7.09
-35.68
-57.90
-66.94
-60.11
-39.30
-10.33
18.63
39.25
45.12
33.23
4.52
-36.50
-83.05
-126.79
-159.53
-175.29
-171.75
-150.37
-115.79
-74.96
-35.85
-6.27
9.21
10.58
2.05
-9.45
-16.41
-13.15
2.35
30.04
62.41
88.24
99.90
97.24
84.86
67.97
50.02
32.73
16.83
2.69
-8.58
-15.44
-17.34
-15.40
-11.77
-8.76
-7.79
-9.14
-12.44
-16.36
-19.17
-19.74
-18.48
-15.79
-12.43
-9.05
-5.99
-3.53
-1.52
0.48
2.71
5.03
7.16
8.82
9.92
10.59
10.97
11.34
12.09
13.41
15.22
17.32
19.35
21.06
22.35
22.95
22.85
22.17
21.07
19.66
18.05
16.35
14.68
13.16
11.79
10.51
9.13
7.53
5.63
3.50
1.31
-0.79
-2.70
-4.39
-5.88
-7.20
-8.41
-9.51
-10.43
-11.11
-11.47
-11.42
-10.95
-10.15
-9.22
-8.46
-8.17
-8.52
-9.51
-10.98
-12.65
-14.19
-15.28
-15.61
-14.95
-13.18
-10.36
-6.74
-2.75
1.14
4.56
7.34
9.50
11.15
12.40
13.25
13.67
13.60
13.06
12.14
11.00
9.76
8.47
7.15
5.81
4.50
3.27
2.19
1.25
0.37
-0.54
-1.54
-2.63
-3.77
-4.83
-5.78
-6.58
-7.33
-8.12
-9.06
-10.16
-11.35
-12.53
-13.62
-14.64
-15.70
-16.95
-18.42
-19.96
-21.26
-21.93
-21.66
-20.36
-18.09
-15.06
-11.50
-7.60
-3.54
0.46
4.20
7.48
10.18
12.27
13.73
14.61
14.95
14.90
14.64
14.36
14.20
14.13
14.00
13.63
12.92
11.96
10.95
10.06
9.35
8.70
7.93
6.93
5.74
4.52
3.43
2.48
1.54
0.43
-0.99
-2.70
-4.56
-6.42
-8.21
-10.00
-11.95
-14.12
-16.45
-18.66
-20.37
-21.21
-20.89
-19.33
-16.58
-12.85
-8.47
-3.87
0.51
4.31
7.31
9.46
10.84
11.60
11.84
11.66
11.15
10.46
9.72
9.07
8.53
8.05
7.55
6.96
6.27
5.55
4.84
4.16
3.48
2.73
1.86
0.80
-0.46
-1.93
-3.53
-5.19
-6.84
-8.47
-10.12
-11.87
-13.74
-15.73
-17.82
-20.02
-22.36
-24.84
-27.35
-29.58
-31.13
-31.55
-30.58
-28.23
-24.72
-20.45
-15.82
-11.15
-6.64
-2.41
1.49
5.01
8.09
10.67
12.67
14.07
14.93
15.43
15.80
16.27
16.91
17.63
18.20
18.39
18.11
17.46
16.69
16.03
15.63
15.39
15.11
14.52
13.42
11.78
9.71
7.41
5.09
2.89
0.85
-1.12
-3.16
-5.47
-8.15
-11.24
-14.65
-18.16
-21.47
-24.20
-25.97
-26.45
-25.47
-23.07
-19.47
-15.03
-10.17
-5.26
-0.64
3.40
6.66
9.02
10.47
11.17
11.34
11.25
11.08
10.90
10.73
10.56
10.37
10.18
9.96
9.64
9.11
8.35
7.44
6.56
5.86
5.41
5.05
4.54
3.59
2.09
0.11
-2.10
-4.29
-6.28
-8.08
-9.80
-11.58
-13.54
-15.73
-18.14
-20.72
-23.27
-25.48
-26.93
-27.15
-25.82
-22.86
-18.46
-13.02
-7.05
-1.01
4.72
9.87
14.27
17.76
20.25
21.76
22.43
22.49
22.18
21.75
21.32
20.95
20.59
20.19
19.67
18.98
18.13
17.15
16.14
15.17
14.29
13.45
12.54
11.39
9.90
8.09
6.08
4.06
2.16
0.38
-1.42
-3.41
-5.71
-8.30
-11.08
-13.96
-16.87
-19.78
-22.55
-24.93
-26.47
-26.76
-25.47
-22.62
-18.48
-13.53
-8.25
-2.98
2.03
6.69
10.93
14.65
17.74
20.06
21.54
22.15
22.01
21.29
20.24
19.09
17.96
16.91
15.85
14.71
13.47
12.17
10.89
9.69
8.58
7.54
6.49
5.34
4.02
2.41
0.49
-1.71
-4.00
-6.19
-8.10
-9.72
-11.21
-12.84
-14.84
-17.30
-20.13
-23.09
-25.91
-28.30
-29.94
-30.50
-29.66
-27.25
-23.33
-18.27
-12.62
-6.98
-1.77
2.80
6.73
10.09
12.94
15.23
16.90
17.87
18.18
17.94
17.39
16.74
16.17
15.77
15.48
15.16
14.65
13.85
12.79
11.65
10.60
9.78
9.13
8.44
7.44
5.95
3.97
1.70
-0.57
-2.66
-4.51
-6.26
-8.06
-10.03
-12.18
-14.48
-16.90
-19.37
-21.78
-23.84
-25.11
-25.14
-23.59
-20.43
-15.92
-10.54
-4.80
0.86
6.15
10.85
14.82
17.96
20.22
21.63
22.30
22.40
22.10
21.58
20.95
20.30
19.63
18.94
18.20
17.39
16.54
15.66
14.80
13.96
13.08
12.10
10.92
9.51
7.88
6.11
4.30
2.48
0.64
-1.27
-3.27
-5.39
-7.59
-9.87
-12.26
-14.78
-17.44
-20.07
-22.32
-23.74
-23.87
-22.46
-19.52
-15.32
-10.29
-4.90
0.46
5.54
10.16
14.20
17.62
20.37
22.52
24.15
25.42
26.45
27.28
27.87
28.13
28.01
27.61
27.10
26.72
26.63
26.85
27.27
27.65
27.78
27.54
26.89
25.87
24.53
22.95
21.18
19.31
17.39
15.45
13.42
11.16
8.49
5.27
1.46
-2.80
-7.23
-11.49
-15.24
-18.22
-20.24
-21.25
-21.26
-20.38
-18.74
-16.54
-13.96
-11.21
-8.69
-6.72
-5.51
-5.14
-5.58
-6.65
-8.07
-9.53
-10.81
-12.04
-13.39
-14.97
-16.90
-19.18
-21.77
-24.55
-27.17
-29.40
-31.48
-33.62
-35.91
-38.44
-41.13
-43.64
-45.28
-44.74
-41.07
-35.02
-27.66
-20.03
-13.31
-8.26
-4.86
-2.25
1.85
9.15
18.22
27.44
35.72
42.01
46.03
48.73
52.10
59.94
74.49
92.51
110.13
124.33
132.44
133.52
129.21
123.46
123.25
133.96
153.66
178.78
205.17
226.92
237.87
233.47
198.21
128.01
52.81
-9.05
-51.67
-69.06
-61.05
-34.59
-1.63
25.07
37.82
33.97
12.17
-23.52
-66.73
-113.80
-163.96
-216.67
-268.77
-313.23
-342.33
-353.01
-344.16
-318.07
-281.78
-244.26
-211.95
-185.73
-161.73
-134.67
-102.25
-63.64
-20.38
24.80
65.09
93.68
113.13
130.15
149.47
167.08
178.04
177.59
162.64
132.88
88.13
35.44
-14.90
-53.16
-73.64
-74.81
-59.52
-34.01
-6.48
15.46
27.27
26.80
15.06
-3.85
-23.58
-38.33
-44.60
-42.14
-32.85
-18.99
-3.37
11.31
22.64
29.21
29.63
23.35
11.49
-2.68
-14.32
-19.40
-16.22
-5.96
8.07
21.66
31.43
35.75
34.89
30.52
24.52
18.40
13.18
9.59
7.98
8.43
10.75
14.46
19.15
23.79
27.18
28.42
27.25
24.04
19.65
15.07
11.02
7.90
5.71
4.28
3.34
2.56
1.51
-0.20
-2.87
-6.56
-10.95
-15.48
-19.41
-22.18
-23.61
-24.04
-24.13
-24.56
-25.71
-27.46
-29.27
-30.38
-30.16
-28.38
-25.33
-21.62
-17.99
-14.95
-12.71
-11.18
-10.11
-9.30
-8.66
-8.27
-8.26
-8.78
-9.88
-11.51
-13.47
-15.40
-16.90
-17.59
-17.34
-16.38
-15.25
-14.55
-14.62
-15.37
-16.21
-16.36
-15.27
-12.79
-9.24
-5.23
-1.33
2.12
5.02
7.41
9.36
10.86
11.87
12.38
12.45
12.13
11.45
10.39
8.86
6.90
4.69
2.58
1.00
0.29
0.62
1.90
3.86
6.14
8.34
10.12
11.21
11.39
10.56
8.79
6.36
3.67
1.24
-0.57
-1.55
-1.71
-1.23
-0.38
0.61
1.52
2.22
2.57
2.50
1.93
0.93
-0.38
-1.78
-3.06
-4.12
-4.99
-5.83
-6.85
-8.15
-9.70
-11.30
-12.64
-13.46
-13.65
-13.33
-12.80
-12.40
-12.34
-12.61
-12.93
-12.90
-12.12
-10.31
-7.42
-3.62
0.73
5.18
9.29
12.73
15.42
17.47
19.11
20.55
21.83
22.82
23.34
23.30
22.69
21.65
20.29
18.66
16.82
14.88
13.12
11.88
11.37
11.56
12.06
12.29
11.73
10.21
8.02
5.80
4.24
3.72
4.17
5.09
5.87
6.03
5.41
4.09
2.28
0.12
-2.27
-4.76
-7.08
-8.77
-9.37
-8.56
-6.34
-3.08
0.68
4.36
7.54
10.04
11.85
13.11
13.95
14.44
14.59
14.30
13.48
12.14
10.43
8.62
7.05
5.97
5.50
5.54
5.91
6.32
6.54
6.37
5.69
4.50
2.86
0.88
-1.24
-3.36
-5.35
-7.08
-8.45
-9.37
-9.80
-9.88
-9.92
-10.40
-11.77
-14.25
-17.70
-21.68
-25.54
-28.64
-30.54
-30.99
-29.98
-27.66
-24.29
-20.23
-15.84
-11.51
-7.53
-4.11
-1.30
0.93
2.68
4.10
5.33
6.46
7.51
8.44
9.16
9.55
9.58
9.23
8.51
7.51
6.35
5.19
4.23
3.62
3.44
3.64
4.02
4.34
4.34
3.88
2.98
1.82
0.70
-0.09
-0.38
-0.16
0.42
1.09
1.53
1.48
0.84
-0.40
-2.12
-4.20
-6.48
-8.69
-10.49
-11.44
-11.19
-9.57
-6.73
-3.14
0.45
3.29
4.95
5.40
5.00
4.25
3.62
3.32
3.33
3.14
2.29
0.58
-1.82
-4.56
-7.38
-10.14
-12.85
-15.54
-18.62
-22.26
-26.11
-29.50
-31.82
-32.94
-33.13
-32.93
-32.77
-33.66
-36.08
-39.81
-43.99
-47.74
-50.66
-52.73
-54.06
-54.64
-55.27
-56.40
-57.94
-59.35
-60.31
-61.02
-61.86
-63.04
-58.06
-43.34
-20.24
5.26
27.12
42.74
52.90
59.99
66.33
73.03
78.73
81.90
81.39
77.08
69.75
60.61
51.13
42.67
36.29
31.80
29.41
29.06
30.33
32.36
34.14
34.96
34.57
33.18
30.88
28.26
25.88
23.73
21.27
17.86
13.23
7.51
0.90
-6.65
-14.56
-21.53
-25.46
-23.73
-14.03
3.92
26.83
47.74
55.86
44.77
18.17
-13.02
-38.27
-52.22
-55.33
-51.86
-46.46
-41.32
-35.75
-28.48
-20.35
-14.65
-14.56
-19.97
-26.50
-27.86
-17.20
8.35
45.58
85.69
117.51
132.29
126.96
104.12
69.91
31.47
-5.17
-36.00
-56.76
-65.74
-64.73
-57.11
-46.77
-37.12
-30.15
-26.51
-25.45
-25.60
-25.92
-25.81
-25.01
-23.82
-23.19
-24.22
-28.06
-35.21
-45.49
-56.42
-64.48
-65.80
-58.22
-42.87
-24.23
-8.84
-2.29
-6.64
-19.56
-35.60
-48.62
-54.56
-52.86
-45.66
-36.46
-28.27
-22.58
-19.52
-18.63
-19.18
-20.37
-22.63
-25.07
-26.38
-25.18
-20.53
-12.29
-1.24
11.14
23.01
32.66
39.26
42.73
43.73
43.27
42.21
40.83
38.88
35.90
31.63
26.46
21.19
16.76
13.91
12.89
13.37
14.66
15.89
16.38
15.85
14.22
11.66
8.40
4.71
0.83
-2.94
-6.31
-8.93
-10.39
-10.37
-8.60
-5.01
0.28
6.95
14.45
22.14
29.38
35.67
40.71
44.43
46.92
48.40
49.14
49.45
49.54
49.52
49.37
48.98
48.30
47.33
46.19
45.00
43.79
42.46
40.84
38.72
35.88
32.04
26.77
19.59
10.13
-1.62
-15.29
-30.22
-45.76
-61.42
-76.82
-91.38
-104.10
-113.64
-118.81
-119.11
-115.07
-108.03
-99.57
-90.82
-82.19
-73.48
-64.28
-54.36
-43.71
-32.49
-20.77
-8.59
3.89
16.22
27.66
37.35
44.69
49.55
52.39
53.99
55.15
56.38
57.70
58.68
58.62
56.87
53.05
47.26
40.09
32.38
25.00
18.61
13.47
9.56
6.61
4.38
2.69
1.43
0.54
-0.13
-0.82
-1.83
-3.45
-5.89
-9.28
-13.60
-18.64
-23.98
-28.93
-32.62
-34.19
-33.00
-28.74
-21.58
-12.04
-0.87
11.10
23.00
33.97
43.18
49.83
53.37
53.62
50.92
46.05
40.10
34.16
29.11
25.48
23.41
22.78
23.33
24.71
26.51
28.28
29.55
29.95
29.25
27.45
24.78
21.64
18.45
15.60
13.24
11.28
9.44
7.36
4.76
1.50
-2.36
-6.70
-11.42
-16.37
-21.35
-25.97
-29.57
-31.35
-30.48
-26.43
-19.16
-9.27
2.04
13.22
22.80
29.73
33.64
34.77
33.84
31.64
28.87
26.01
23.48
21.62
20.71
20.79
21.49
22.12
21.85
20.15
17.00
12.98
8.93
5.60
3.36
2.10
1.41
0.81
-0.01
-1.13
-2.45
-3.78
-5.04
-6.29
-7.70
-9.51
-11.86
-14.74
-18.01
-21.44
-24.85
-28.03
-30.71
-32.43
-32.55
-30.47
-25.91
-19.08
-10.71
-1.66
7.38
16.18
24.91
33.91
43.31
52.81
61.61
68.56
72.54
72.76
69.07
62.00
52.71
42.64
33.22
25.63
20.65
18.65
19.61
23.09
28.22
33.72
38.16
40.30
39.46
35.69
29.65
22.21
14.12
5.74
-3.00
-12.27
-22.07
-32.03
-41.45
-49.54
-55.73
-59.91
-62.38
-63.73
-64.55
-65.36
-66.51
-68.29
-70.84
-74.09
-77.64
-80.70
-82.28
-81.42
-77.53
-70.50
-60.71
-48.93
-36.22
-23.78
-12.81
-4.33
1.14
3.77
4.50
4.74
5.93
9.07
14.33
21.10
28.23
34.46
38.72
40.39
39.33
35.82
30.46
24.00
17.20
10.64
4.59
-0.95
-6.17
-11.20
-15.99
-20.25
-23.61
-25.74
-26.52
-26.01
-24.41
-21.87
-18.44
-14.12
-8.93
-2.99
3.52
10.41
17.62
25.15
33.08
41.30
49.48
56.96
62.88
66.39
66.99
64.85
60.83
56.40
53.16
52.24
53.90
57.34
60.91
62.72
61.28
55.96
47.17
36.09
24.12
12.45
1.73
-7.97
-16.90
-25.44
-33.83
-42.16
-50.29
-58.00
-64.97
-70.89
-75.52
-78.80
-80.85
-81.89
-82.08
-81.33
-79.22
-75.14
-68.61
-59.56
-48.49
-36.38
-24.33
-13.14
-3.18
5.65
13.56
20.61
26.54
30.83
33.02
33.01
31.23
28.50
25.72
23.52
22.12
21.40
21.16
21.39
22.33
24.36
27.62
31.74
35.81
38.60
38.99
36.43
31.09
23.79
15.67
7.78
0.84
-4.87
-9.39
-12.99
-16.04
-18.95
-22.15
-25.86
-30.08
-34.40
-38.12
-40.47
-40.85
-39.06
-35.31
-30.11
-24.08
-17.76
-11.57
-5.79
-0.58
3.98
7.97
11.47
14.70
17.97
21.37
24.69
27.50
29.37
30.01
29.39
27.45
24.29
20.09
15.08
9.49
3.66
-1.96
-6.81
-10.40
-12.67
-13.54
-12.86
-10.68
-7.52
-4.27
-1.82
-0.73
-1.05
-3.05
-6.15
-9.04
-10.74
-11.43
-12.08
-13.72
-16.81
-21.00
-26.90
-33.52
-38.26
-39.01
-36.12
-31.96
-29.61
-31.20
-37.04
-47.98
-61.54
-72.36
-75.77
-71.01
-60.55
-48.39
-38.68
-35.42
-45.47
-71.66
-110.30
-153.25
-191.84
-218.35
-227.42
-217.32
-169.91
-90.75
-6.37
60.53
106.53
137.92
161.63
178.00
183.47
175.56
152.53
119.50
84.32
57.56
44.07
41.54
42.63
39.52
27.78
5.75
-21.70
-45.27
-56.80
-54.28
-40.86
-21.72
-1.12
18.68
35.26
47.91
57.45
65.13
70.91
74.24
74.77
72.77
69.04
63.94
58.50
54.40
52.99
53.89
55.44
55.59
52.69
46.51
38.07
29.36
22.24
17.50
14.42
11.45
7.09
-0.09
-10.43
-23.17
-36.93
-50.51
-63.09
-74.15
-83.11
-89.33
-93.12
-94.93
-95.16
-94.13
-92.30
-89.75
-85.77
-78.76
-62.34
-34.70
-0.50
31.56
54.74
67.16
71.37
71.98
73.41
78.13
85.11
91.45
93.78
89.28
75.78
53.10
23.72
-6.55
-29.67
-39.00
-32.01
-12.13
12.03
29.66
34.37
25.10
6.58
-13.43
-28.77
-37.21
-40.32
-39.64
-37.81
-34.71
-28.39
-17.56
-3.71
8.74
14.94
12.55
3.15
-8.91
-18.42
-22.17
-19.93
-13.98
-7.55
-3.20
-1.93
-3.21
-5.78
-8.01
-8.83
-8.00
-5.98
-3.63
-1.82
-1.06
-1.33
-2.35
-3.50
-4.31
-4.60
-4.44
-4.12
-4.06
-4.61
-5.98
-8.23
-11.24
-14.84
-19.11
-24.07
-29.85
-36.48
-43.42
-49.68
-54.09
-55.70
-54.00
-48.77
-39.84
-27.04
-10.66
8.15
27.21
43.60
54.75
59.50
58.74
54.57
50.28
47.96
47.83
48.65
48.61
46.65
42.61
37.58
32.95
29.94
29.03
30.18
33.20
37.73
42.90
46.85
47.28
41.51
28.30
8.51
-14.67
-36.81
-53.91
-63.49
-65.87
-62.90
-56.93
-49.54
-41.78
-34.52
-28.72
-25.63
-26.52
-32.19
-42.11
-54.02
-64.19
-67.89
-61.69
-44.86
-20.37
6.04
27.99
41.10
44.64
41.37
35.32
29.53
25.05
21.25
17.34
13.44
10.79
10.68
13.27
17.28
20.37
20.77
18.02
13.55
9.79
8.88
11.46
16.28
20.75
22.39
20.21
15.14
9.67
6.32
6.64
10.48
16.58
23.57
30.23
35.08
35.85
29.62
14.64
-7.62
-31.66
-49.46
-54.07
-43.32
-21.38
3.04
21.12
27.96
24.78
16.72
8.80
2.81
-2.64
-9.66
-18.06
-24.33
-23.84
-14.24
1.83
17.20
23.39
15.16
-6.18
-33.12
-54.94
-62.25
-50.65
-22.42
14.31
48.24
68.51
68.44
48.24
15.50
-17.59
-39.49
-44.39
-34.85
-19.62
-8.42
-6.43
-12.04
-18.80
-20.34
-14.63
-4.54
4.49
8.48
7.21
4.10
3.93
10.86
25.60
44.57
61.23
67.99
59.24
33.69
-4.93
-49.06
-88.91
-116.68
-129.25
-128.14
-118.10
-104.53
-92.22
-84.66
-83.96
-88.95
-96.87
-105.38
-111.04
-111.04
-103.06
-86.12
-60.64
-27.91
12.83
61.64
115.83
170.78
221.90
266.55
303.71
332.73
337.99
309.22
249.69
176.30
109.38
62.28
37.86
29.85
27.06
18.72
1.32
-22.16
-46.49
-66.45
-79.23
-85.48
-88.13
-90.51
-94.51
-99.30
-101.44
-100.61
-98.90
-99.86
-106.84
-120.68
-137.77
-151.08
-151.77
-130.55
-90.96
-43.03
1.93
38.60
65.90
86.37
102.99
116.70
124.60
121.03
96.73
54.71
5.57
-38.44
-69.37
-85.56
-89.61
-84.92
-74.97
-58.86
-35.72
-7.38
22.17
48.28
68.20
82.72
95.58
111.24
131.74
155.64
174.24
179.80
167.16
136.00
91.10
36.65
-14.34
-50.10
-68.47
-74.41
-71.75
-60.30
-37.50
-2.80
39.14
79.45
109.22
121.00
113.43
92.37
67.28
46.55
34.22
28.94
25.82
19.93
6.48
-15.89
-44.63
-75.27
-103.14
-124.24
-135.34
-133.71
-118.53
-92.04
-58.74
-24.74
3.11
19.00
19.90
6.33
-17.95
-47.79
-78.30
-104.93
-123.81
-132.18
-128.62
-113.30
-88.18
-57.04
-25.03
2.15
20.02
26.36
21.56
8.28
-9.41
-27.11
-41.15
-49.56
-52.63
-52.49
-52.37
-55.38
-63.23
-75.55
-90.48
-106.00
-121.40
-137.18
-153.58
-168.83
-178.59
-176.77
-157.72
-118.58
-61.01
8.15
78.93
141.04
186.32
210.08
212.40
198.17
175.58
152.96
134.64
120.66
108.51
95.65
81.36
67.52
57.64
54.30
56.85
59.79
56.40
42.72
19.42
-9.44
-38.06
-60.72
-73.43
-68.72
-44.33
-8.28
26.31
51.71
67.55
77.95
87.47
98.39
111.41
121.00
121.97
112.91
96.49
76.55
56.68
39.24
24.66
11.44
-2.67
-19.26
-38.11
-57.33
-76.02
-93.08
-106.17
-112.07
-108.92
-97.43
-79.98
-59.30
-37.81
-19.50
-8.28
-6.45
-14.54
-32.58
-58.75
-89.00
-118.20
-131.99
-122.84
-96.46
-65.94
-39.96
-20.80
-6.11
6.36
16.99
24.69
27.02
23.36
14.71
3.89
-9.15
-24.84
-42.89
-61.10
-75.14
-80.84
-75.02
-56.54
-20.62
22.68
59.99
82.66
90.10
87.54
80.98
74.44
69.23
64.88
59.16
52.10
45.51
41.45
40.89
42.98
45.93
47.91
48.05
45.50
41.13
36.73
33.87
33.16
34.25
36.28
38.47
40.53
41.89
42.65
42.61
40.57
34.28
21.68
1.97
-23.15
-49.94
-74.35
-93.05
-105.29
-112.38
-115.82
-115.08
-107.45
-90.03
-62.24
-28.00
5.76
32.09
47.25
51.37
46.78
35.38
18.03
-3.04
-23.20
-35.83
-35.60
-21.76
-0.23
18.33
23.58
10.57
-16.85
-50.12
-80.94
-104.99
-121.08
-129.28
-129.01
-119.02
-99.18
-69.57
-32.16
10.31
52.75
91.65
126.05
156.51
183.58
198.93
197.09
178.77
151.24
123.31
101.08
86.42
77.79
74.13
69.33
59.73
43.52
21.08
-4.87
-29.25
-46.48
-52.52
-46.45
-32.93
-18.69
-10.90
-14.39
-30.29
-56.00
-86.91
-118.47
-147.40
-171.87
-189.21
-196.74
-193.13
-179.83
-161.40
-144.23
-134.07
-133.37
-139.95
-146.90
-146.00
-131.67
-103.72
-67.14
-29.41
3.18
27.92
45.86
60.26
73.70
86.30
95.88
99.66
96.41
87.30
75.42
64.20
55.95
51.20
48.89
47.38
45.39
42.64
39.80
38.07
38.37
40.47
42.59
41.80
35.08
20.77
-0.44
-25.57
-50.56
-71.85
-87.54
-97.36
-101.67
-100.44
-93.08
-79.26
-60.08
-38.35
-17.55
0.00
14.65
29.16
46.89
69.42
95.14
119.81
138.56
148.18
148.33
141.15
129.85
117.35
105.66
96.11
89.74
87.41
89.41
94.80
101.28
105.62
104.71
96.84
82.64
65.14
48.83
37.91
34.65
38.50
46.20
52.94
53.87
45.48
26.36
-2.56
-38.13
-75.50
-108.90
-133.03
-144.49
-142.91
-130.96
-113.25
-94.56
-78.18
-65.19
-54.67
-44.61
-33.15
-19.40
-3.87
11.86
25.86
36.81
44.46
49.51
52.83
54.58
53.93
49.63
41.13
29.52
17.41
7.76
2.20
0.16
-0.69
-3.00
-8.17
-15.67
-23.50
-29.29
-31.38
-29.24
-23.31
-14.59
-4.43
5.62
14.15
20.23
23.89
26.17
28.69
32.85
39.06
46.52
53.59
58.57
60.32
58.34
52.74
44.07
33.41
22.38
12.98
6.99
5.17
6.72
9.47
10.65
8.07
0.97
-9.77
-22.19
-34.03
-43.37
-49.08
-50.83
-49.13
-45.09
-40.19
-35.85
-33.02
-31.82
-31.49
-30.40
-26.51
-17.98
-4.15
13.66
32.14
46.92
54.33
53.34
46.30
38.04
33.68
36.18
45.27
58.17
71.51
83.10
92.32
99.17
103.01
102.05
94.09
78.06
55.24
29.25
4.73
-14.67
-27.98
-37.33
-46.84
-60.33
-79.08
-100.77
-120.24
-131.72
-131.65
-120.46
-102.36
-83.47
-69.22
-62.37
-62.69
-67.94
-75.35
-82.46
-87.12
-87.07
-79.99
-64.06
-39.02
-7.04
27.32
58.24
80.39
90.69
89.26
79.08
64.48
49.28
35.33
22.35
8.90
-5.98
-21.63
-35.76
-45.51
-48.94
-46.10
-38.97
-30.57
-23.90
-21.31
-24.47
-34.39
-51.15
-73.18
-96.81
-116.68
-127.26
-125.01
-110.01
-86.11
-59.37
-35.51
-17.68
-5.54
3.88
14.25
27.90
44.64
62.00
76.45
84.92
85.98
80.15
69.52
56.93
45.21
36.60
32.46
33.09
37.65
44.33
50.74
54.61
54.51
50.35
43.24
34.91
26.95
20.17
14.50
9.22
3.46
-3.38
-11.48
-20.57
-29.94
-38.63
-45.52
-49.66
-50.53
-48.21
-43.48
-37.60
-31.95
-27.63
-25.08
-24.00
-23.43
-22.20
-19.32
-14.46
-8.06
-1.23
4.67
8.57
10.10
9.76
8.58
7.69
7.76
8.92
10.81
12.93
14.82
16.16
16.64
15.93
13.78
10.27
5.97
1.89
-0.83
-1.38
0.52
4.56
10.04
16.16
22.15
27.36
31.22
33.25
33.13
30.73
26.19
19.90
12.40
4.26
-3.91
-11.54
-18.06
-22.85
-25.32
-25.04
-22.05
-17.02
-11.21
-6.03
-2.47
-0.57
0.54
2.15
5.21
9.77
14.95
19.40
21.88
21.81
19.30
14.98
9.67
4.15
-0.88
-5.00
-8.04
-10.17
-11.85
-13.65
-16.13
-19.71
-24.76
-31.49
-39.93
-49.72
-60.06
-69.76
-77.52
-82.31
-83.62
-81.52
-76.36
-68.62
-58.81
-47.65
-36.11
-25.28
-16.20
-9.48
-5.06
-2.18
0.40
3.90
9.05
16.00
24.41
33.61
42.93
51.77
59.68
66.60
72.36
76.77
79.99
82.73
86.11
91.02
97.69
105.32
112.87
118.69
121.44
121.08
119.18
118.23
120.44
126.86
137.08
150.17
163.44
173.05
175.28
167.97
151.26
127.90
102.82
81.78
70.18
68.98
74.01
78.08
74.42
59.41
33.63
1.07
-39.62
-83.15
-121.81
-150.77
-170.27
-182.68
-189.41
-190.66
-186.65
-178.71
-168.08
-156.92
-147.10
-139.03
-131.31
-121.84
-109.52
-94.96
-80.32
-67.64
-59.22
-56.30
-57.91
-60.93
-61.69
-58.23
-51.34
-43.97
-38.81
-37.22
-38.09
-38.15
-34.13
-24.34
-10.35
4.01
14.92
21.02
23.60
25.54
29.53
35.84
43.30
49.18
51.13
48.66
43.31
37.49
33.08
30.71
29.73
29.24
28.51
27.71
27.57
28.76
31.08
33.12
32.73
28.03
18.75
6.53
-5.42
-13.62
-15.73
-11.54
-2.79
7.55
16.30
21.41
22.45
20.34
16.52
11.89
6.40
-0.54
-9.17
-18.73
-27.32
-32.77
-33.82
-30.98
-26.38
-22.58
-21.26
-22.33
-24.35
-25.45
-24.46
-21.44
-17.38
-13.68
-11.52
-11.41
-13.01
-15.38
-17.26
-17.61
-16.32
-14.08
-12.23
-12.19
-14.86
-20.05
-27.21
-35.79
-45.34
-55.14
-63.52
-67.90
-65.76
-56.23
-41.13
-24.54
-10.87
-2.42
1.70
4.89
10.57
19.97
31.19
40.59
45.14
44.34
40.23
35.76
32.92
31.65
30.45
27.79
23.29
18.00
13.79
12.13
13.32
16.38
19.58
21.36
21.09
19.28
17.38
16.85
18.86
23.60
30.52
38.32
45.23
49.26
48.71
42.79
32.09
18.67
5.44
-4.94
-11.14
-13.62
-14.17
-14.74
-16.38
-18.83
-20.94
-21.63
-20.66
-18.76
-17.04
-16.18
-16.07
-15.93
-14.82
-12.21
-8.33
-3.98
-0.16
2.32
3.15
2.49
0.95
-0.76
-2.13
-3.10
-4.08
-5.62
-7.98
-10.81
-13.23
-14.31
-13.67
-11.68
-9.22
-6.96
-4.97
-2.72
0.43
4.64
9.48
13.98
17.21
18.68
18.44
16.98
14.96
13.06
11.81
11.56
12.40
14.20
16.54
18.87
20.63
21.42
21.16
20.00
18.31
16.38
14.39
12.25
9.64
6.19
1.64
-3.97
-10.20
-16.40
-21.90
-26.29
-29.48
-31.70
-33.21
-34.20
-34.67
-34.46
-33.49
-31.99
-30.52
-29.89
-30.77
-33.36
-37.18
-41.35
-45.00
-47.56
-48.82
-48.77
-47.32
-44.32
-39.76
-34.00
-27.76
-21.83
-16.72
-12.53
-9.10
-6.35
-4.44
-3.62
-3.89
-4.71
-5.13
-4.27
-1.71
2.27
7.07
12.22
17.73
24.09
31.87
41.35
52.23
63.67
74.60
84.01
91.29
96.34
99.50
101.31
102.28
102.70
102.69
102.29
101.53
100.18
97.47
91.86
81.36
64.37
40.72
12.37
-16.78
-42.20
-60.27
-69.62
-71.31
-68.12
-63.17
-58.47
-54.25
-49.05
-40.65
-27.40
-9.58
9.97
26.35
34.17
29.87
13.33
-11.82
-39.52
-63.61
-79.92
-87.12
-86.02
-78.31
-65.41
-48.56
-29.67
-11.87
0.87
5.42
1.43
-7.94
-17.12
-20.78
-16.39
-5.35
8.02
18.72
23.49
21.86
15.80
8.31
2.17
-0.96
-0.59
2.74
7.70
12.50
15.21
14.32
9.26
0.70
-9.70
-19.96
-28.42
-34.67
-40.01
-47.29
-59.91
-80.06
-106.77
-135.07
-157.01
-164.68
-153.86
-126.53
-90.76
-57.74
-37.63
-35.74
-50.95
-76.74
-103.81
-123.11
-128.22
-116.76
-91.05
-57.38
-24.17
1.11
14.91
19.03
19.37
22.91
34.08
52.89
75.60
97.50
115.79
130.99
145.21
159.50
172.45
180.67
180.93
172.25
156.81
139.00
123.83
113.75
107.25
100.39
89.43
73.14
53.51
34.88
22.07
19.32
26.88
40.50
53.63
60.44
58.21
48.08
34.64
24.52
25.64
42.21
72.16
108.03
139.85
158.87
160.15
143.68
104.52
47.80
-12.42
-61.99
-95.53
-116.37
-129.77
-138.39
-141.56
-137.21
-122.71
-98.94
-72.30
-48.64
-32.52
-25.24
-25.03
-28.02
-30.09
-27.53
-19.96
-10.59
-3.85
-3.03
-7.69
-15.23
-21.83
-24.10
-19.75
-9.28
4.12
16.47
24.60
27.50
25.86
21.38
15.81
10.71
6.98
4.97
4.98
7.08
10.94
15.49
19.18
20.52
18.90
14.79
9.47
4.47
0.78
-1.56
-3.48
-6.41
-11.61
-19.83
-30.95
-44.11
-57.98
-71.19
-82.37
-90.15
-93.26
-90.52
-81.62
-67.01
-47.91
-26.32
-4.77
14.13
28.56
37.47
41.00
39.39
33.33
24.11
13.32
2.50
-7.15
-14.23
-18.11
-18.23
-15.92
-13.13
-11.60
-12.41
-15.99
-22.40
-30.61
-40.03
-49.07
-57.30
-64.26
-69.44
-73.03
-76.64
-83.52
-96.28
-117.56
-134.79
-136.75
-120.31
-91.99
-60.79
-32.17
-13.23
-0.58
7.31
11.48
11.16
5.79
-1.17
-5.68
-3.26
9.00
34.79
68.57
100.18
120.35
126.81
123.55
116.72
110.89
106.99
103.55
96.58
84.03
66.09
45.22
24.89
8.01
-4.05
-11.88
-16.10
-18.06
-17.95
-15.56
-10.95
-4.98
1.05
6.27
10.47
14.15
17.16
19.35
20.35
19.89
17.51
13.79
10.63
10.27
14.00
20.85
28.22
33.09
33.32
28.48
20.00
10.38
1.78
-4.87
-10.02
-14.45
-18.18
-20.14
-18.98
-13.98
-6.00
2.39
7.66
6.75
-1.47
-15.34
-30.54
-43.00
-51.25
-55.92
-57.83
-56.45
-50.10
-37.10
-17.76
4.99
26.08
40.51
45.58
41.60
31.31
18.58
7.43
0.69
0.59
8.23
22.79
41.34
59.22
71.52
75.02
69.65
58.16
44.73
32.67
23.13
15.24
7.21
-2.40
-14.14
-26.58
-38.23
-47.69
-53.90
-56.21
-54.22
-47.91
-37.83
-25.05
-10.82
3.81
18.44
33.02
47.41
61.00
72.68
81.04
84.85
83.27
75.72
61.99
42.35
17.90
-9.09
-35.29
-56.80
-70.23
-73.49
-66.35
-50.14
-27.17
-0.19
27.88
54.07
75.47
89.55
94.71
90.64
78.63
61.18
41.23
21.20
2.31
-15.55
-33.47
-52.79
-74.59
-99.31
-126.69
-155.71
-184.25
-208.81
-224.57
-226.37
-210.45
-176.52
-128.78
-75.43
-26.23
10.55
30.74
34.99
27.68
14.65
1.12
-9.48
-15.58
-16.90
-13.89
-7.57
0.57
8.73
15.38
20.02
23.53
27.89
35.19
46.59
61.47
77.47
91.09
98.80
98.01
87.68
68.52
42.81
13.99
-14.05
-37.77
-54.73
-64.05
-66.43
-63.66
-57.93
-51.11
-44.47
-38.56
-33.48
-29.01
-24.91
-21.03
-17.43
-14.48
-12.83
-13.25
-16.39
-22.56
-31.63
-42.95
-55.30
-66.94
-75.79
-79.88
-77.90
-69.78
-56.87
-41.50
-26.28
-13.08
-2.63
5.45
12.10
18.18
24.03
29.56
34.42
38.38
41.39
43.56
45.03
45.93
46.39
46.63
47.00
47.95
49.91
53.13
57.55
62.68
67.75
71.80
73.96
73.75
71.24
67.07
62.23
57.60
53.61
50.03
46.10
40.98
34.24
26.16
17.64
9.81
3.65
-0.40
-2.38
-2.56
-1.24
1.45
5.52
10.88
17.28
24.29
31.40
38.24
44.65
50.70
56.55
62.19
67.31
71.24
73.14
72.25
68.20
61.13
51.58
40.32
28.18
16.02
4.81
-4.39
-10.57
-13.02
-11.67
-7.25
-1.11
5.12
10.13
13.15
14.19
13.78
12.75
11.79
11.29
11.27
11.42
11.30
10.49
8.72
5.92
2.20
-2.18
-6.83
-11.25
-14.88
-17.19
-17.85
-16.87
-14.55
-11.43
-8.10
-4.97
-2.24
0.11
2.09
3.60
4.32
3.76
1.47
-2.74
-8.66
-15.72
-23.18
-30.35
-36.81
-42.40
-47.18
-51.16
-54.29
-56.40
-57.29
-56.95
-55.57
-53.52
-51.24
-49.07
-47.11
-45.31
-43.45
-41.37
-38.99
-36.36
-33.62
-30.99
-28.70
-26.87
-25.53
-24.65
-24.09
-23.74
-23.46
-23.12
-22.51
-21.34
-19.33
-16.31
-12.34
-7.75
-3.05
1.34
5.14
8.32
11.00
13.29
15.21
16.70
17.73
18.39
18.84
19.23
19.58
19.75
19.52
18.74
17.48
15.98
14.59
13.54
12.87
12.40
11.87
11.04
9.80
8.16
6.22
4.07
1.82
-0.47
-2.75
-4.99
-7.18
-9.32
-11.41
-13.52
-15.72
-18.11
-20.79
-23.73
-26.73
-29.36
-31.04
-31.19
-29.44
-25.76
-20.45
-14.02
-7.00
0.15
7.06
13.38
18.71
22.62
24.79
25.22
24.31
22.81
21.59
21.27
22.04
23.54
25.14
26.19
26.39
25.79
24.73
23.59
22.57
21.59
20.36
18.60
16.19
13.26
10.08
6.94
4.03
1.37
-1.08
-3.29
-5.20
-6.72
-7.94
-9.16
-10.81
-13.26
-16.53
-20.20
-23.49
-25.64
-26.16
-25.11
-22.99
-20.50
-18.19
-16.26
-14.56
-12.84
-10.97
-9.15
-7.87
-7.64
-8.77
-11.09
-14.04
-16.85
-18.94
-20.18
-20.91
-21.73
-23.14
-25.19
-27.27
-28.32
-27.21
-23.18
-16.11
-6.60
4.26
15.19
25.00
32.82
38.17
41.00
41.61
40.53
38.32
35.41
31.96
27.88
22.95
17.08
10.38
3.28
-3.67
-9.87
-14.86
-18.30
-20.04
-20.02
-18.35
-15.25
-11.05
-6.02
-0.44
5.50
11.53
17.24
22.07
25.50
27.17
27.12
25.73
23.54
21.05
18.62
16.38
14.41
12.75
11.40
10.29
9.22
7.92
6.30
4.43
2.63
1.20
0.27
-0.37
-1.21
-2.76
-5.37
-9.04
-13.46
-18.10
-22.46
-26.22
-29.43
-32.35
-35.36
-38.64
-42.06
-45.20
-47.53
-48.68
-48.57
-47.43
-45.55
-43.11
-40.11
-36.36
-31.73
-26.32
-20.48
-14.72
-9.50
-5.16
-1.81
0.51
1.79
2.07
1.57
0.70
0.04
0.17
1.37
3.50
6.01
8.20
9.56
9.94
9.62
9.05
8.60
8.33
8.07
7.55
6.58
5.06
3.06
0.59
-2.32
-5.70
-9.48
-13.50
-17.51
-21.14
-24.03
-25.82
-26.20
-24.92
-21.87
-17.14
-10.99
-3.86
3.71
11.21
18.20
24.35
29.46
33.50
36.55
38.81
40.47
41.64
42.33
42.45
41.95
40.90
39.49
38.01
36.75
35.88
35.45
35.35
35.44
35.49
35.25
34.44
32.76
30.08
26.46
22.14
17.54
13.06
8.99
5.41
2.22
-0.78
-3.78
-6.97
-10.39
-14.03
-17.74
-21.27
-24.33
-26.60
-27.89
-28.12
-27.30
-25.43
-22.49
-18.45
-13.32
-7.27
-0.67
5.94
12.00
17.08
20.94
23.46
24.62
24.41
22.90
20.35
17.28
14.32
12.09
10.91
10.80
11.53
12.88
14.80
17.33
20.43
23.75
26.57
27.93
27.07
23.67
18.10
11.21
4.13
-2.24
-7.40
-11.36
-14.48
-17.17
-19.75
-22.33
-24.82
-27.08
-28.99
-30.38
-31.03
-30.59
-28.73
-25.28
-20.44
-14.76
-9.00
-3.86
0.22
3.21
5.41
7.33
9.43
12.02
15.15
18.52
21.68
24.16
25.69
26.28
26.29
26.12
26.07
26.14
26.02
25.28
23.56
20.75
16.98
12.48
7.47
2.16
-3.21
-8.22
-12.21
-14.44
-14.36
-12.00
-8.11
-4.19
-1.96
-2.76
-6.91
-13.61
-21.29
-28.31
-33.75
-37.68
-40.93
-44.40
-48.46
-52.69
-56.04
-57.52
-56.59
-53.48
-48.87
-43.59
-38.27
-33.38
-29.31
-26.41
-24.87
-24.45
-24.25
-22.90
-18.94
-11.50
-0.77
11.90
24.46
34.81
41.55
44.27
43.43
39.91
34.53
27.95
20.73
13.68
7.79
4.08
3.15
4.88
8.43
12.68
16.71
20.12
22.82
24.66
25.10
23.18
17.99
9.29
-2.22
-14.92
-26.85
-36.32
-42.24
-44.16
-42.11
-36.40
-27.57
-16.42
-4.06
8.17
19.00
27.41
32.92
35.45
35.17
32.36
27.40
20.89
13.80
7.42
3.01
1.37
2.44
5.33
8.63
11.06
11.90
11.18
9.45
7.40
5.51
3.94
2.62
1.45
0.40
-0.51
-1.32
-2.17
-3.30
-4.91
-7.10
-9.76
-12.64
-15.47
-18.00
-20.10
-21.74
-22.93
-23.65
-23.86
-23.44
-22.28
-20.28
-17.39
-13.57
-8.87
-3.47
2.16
7.33
11.32
13.73
14.68
14.85
15.10
16.10
17.99
20.31
22.26
23.12
22.55
20.67
17.90
14.75
11.65
8.87
6.67
5.30
4.91
5.44
6.52
7.54
7.83
7.07
5.38
3.31
1.52
0.32
-0.55
-1.78
-4.05
-7.66
-12.30
-17.20
-21.52
-24.65
-26.36
-26.69
-25.81
-23.84
-20.93
-17.26
-13.23
-9.34
-6.03
-3.44
-1.25
1.12
4.24
8.26
12.73
16.83
19.80
21.45
22.28
23.20
24.90
27.30
29.43
29.82
27.26
21.38
12.88
3.30
-5.51
-11.94
-14.89
-13.98
-9.62
-2.89
4.61
11.01
14.66
14.60
10.85
4.43
-3.00
-9.72
-14.67
-17.76
-19.81
-22.06
-25.50
-30.37
-36.08
-41.53
-45.52
-47.08
-45.60
-40.81
-32.79
-22.09
-9.82
2.33
12.52
19.28
22.10
21.68
19.65
17.93
17.94
20.01
23.29
26.17
27.06
25.11
20.63
14.86
9.32
5.17
2.84
2.16
2.75
4.44
7.25
11.16
15.74
20.15
23.41
24.86
24.40
22.43
19.54
16.08
12.11
7.43
1.88
-4.42
-11.05
-17.31
-22.52
-26.16
-28.14
-28.75
-28.57
-28.12
-27.69
-27.10
-25.88
-23.40
-19.20
-13.15
-5.59
2.79
11.03
18.14
23.42
26.68
28.33
29.12
29.76
30.50
31.06
30.79
29.09
25.81
21.35
16.62
12.71
10.56
10.72
13.11
17.04
21.32
24.58
25.77
24.59
21.54
17.64
13.84
10.49
7.25
3.37
-1.81
-8.44
-16.09
-24.02
-31.52
-38.05
-43.24
-46.77
-48.34
-47.85
-45.58
-42.20
-38.61
-35.53
-33.18
-31.20
-28.88
-25.60
-21.09
-15.63
-9.86
-4.55
-0.31
2.52
3.87
3.95
3.14
2.05
1.23
1.13
1.94
3.67
6.14
9.13
12.38
15.56
18.21
19.90
20.35
19.59
17.97
15.94
13.74
11.31
8.38
4.86
1.08
-2.25
-4.46
-5.35
-5.48
-5.91
-7.73
-11.51
-17.08
-23.57
-29.75
-34.39
-36.54
-35.75
-32.12
-26.30
-19.30
-12.18
-5.69
-0.11
4.68
8.86
12.40
15.00
16.25
15.93
14.33
12.16
10.26
9.26
9.34
10.28
11.72
13.40
15.25
17.36
19.72
22.07
23.90
24.63
23.86
21.59
18.27
14.60
11.23
8.53
6.41
4.39
1.86
-1.77
-6.83
-13.34
-20.98
-29.14
-36.95
-43.49
-47.91
-49.69
-48.81
-45.75
-41.37
-36.64
-32.33
-28.82
-26.05
-23.63
-21.06
-17.90
-13.92
-9.14
-3.72
2.04
7.84
13.34
18.23
22.25
25.31
27.54
29.35
31.26
33.60
36.33
38.90
40.52
40.45
38.34
34.40
29.26
23.81
18.92
15.26
13.16
12.51
12.81
13.21
12.84
11.05
7.72
3.30
-1.32
-5.22
-7.77
-8.85
-8.83
-8.34
-7.99
-8.20
-9.06
-10.40
-11.83
-12.87
-12.99
-11.73
-8.86
-4.43
1.10
6.91
11.97
15.27
16.11
14.24
9.94
3.94
-2.67
-8.64
-12.76
-14.09
-12.19
-7.24
-0.03
8.22
16.18
22.62
26.71
28.01
26.56
22.79
17.37
11.10
4.72
-1.24
-6.50
-10.93
-14.44
-16.89
-18.11
-18.03
-16.80
-14.76
-12.34
-9.97
-7.90
-6.27
-5.12
-4.51
-4.50
-5.11
-6.22
-7.65
-9.19
-10.71
-12.14
-13.48
-14.60
-15.33
-15.43
-14.80
-13.49
-11.72
-9.78
-7.93
-6.30
-4.90
-3.71
-2.66
-1.68
-0.70
0.38
1.60
2.96
4.34
5.52
6.28
6.51
6.21
5.57
4.82
4.13
3.53
2.88
1.94
0.54
-1.24
-3.14
-4.77
-5.83
-6.31
-6.50
-6.87
-7.85
-9.63
-12.16
-15.15
-18.29
-21.20
-23.53
-24.85
-24.77
-23.01
-19.56
-14.74
-9.15
-3.48
1.66
5.88
9.01
11.06
12.18
12.66
12.95
13.64
15.27
18.13
22.00
26.13
29.48
31.11
30.55
28.04
24.46
20.92
18.43
17.58
18.46
20.63
23.31
25.62
26.82
26.57
25.16
23.38
22.20
22.31
23.74
25.78
27.31
27.24
24.99
20.62
14.82
8.64
3.16
-0.81
-2.97
-3.56
-3.25
-2.86
-3.08
-4.26
-6.35
-8.90
-11.14
-12.09
-10.66
-5.96
2.22
13.09
24.72
34.65
40.68
41.77
38.45
32.56
26.42
21.93
19.91
20.06
21.33
22.48
22.63
21.45
19.11
15.98
12.38
8.33
3.66
-1.81
-8.10
-14.87
-21.52
-27.49
-32.56
-36.93
-41.18
-45.93
-51.50
-57.74
-64.11
-69.86
-74.35
-77.15
-78.15
-77.47
-75.32
-71.97
-67.68
-62.66
-57.05
-51.03
-44.83
-38.73
-33.05
-28.01
-23.67
-19.86
-16.27
-12.57
-8.53
-4.04
0.95
6.57
12.99
20.41
28.89
38.14
47.48
55.89
62.29
65.83
66.12
63.33
58.16
51.60
44.71
38.41
33.30
29.60
27.04
25.05
22.92
20.15
16.74
13.17
10.13
8.02
6.48
4.35
0.17
-7.06
-17.26
-29.17
-40.85
-50.50
-57.01
-59.93
-59.11
-54.41
-45.92
-34.63
-22.69
-13.06
-8.03
-7.75
-9.76
-10.21
-6.21
2.21
11.68
17.31
15.59
6.48
-6.55
-18.41
-25.08
-25.39
-20.84
-13.92
-6.14
2.75
13.93
27.85
43.02
56.20
63.73
63.60
56.42
45.18
33.86
25.79
22.61
23.98
28.30
33.42
37.26
38.00
34.02
24.02
7.54
-14.54
-40.08
-66.18
-89.95
-108.82
-120.51
-122.64
-112.83
-89.46
-53.03
-7.24
41.09
83.64
113.15
125.72
121.77
104.99
80.45
52.71
24.98
-0.64
-22.47
-38.83
-48.47
-51.72
-51.36
-51.73
-56.87
-68.05
-82.73
-95.07
-98.17
-87.13
-61.53
-26.43
10.51
42.51
66.77
84.64
99.85
115.62
132.49
147.37
153.95
146.35
121.77
82.00
32.14
-21.18
-71.35
-112.61
-141.00
-155.59
-156.80
-145.79
-123.64
-92.05
-54.17
-17.24
11.26
32.84
48.62
59.69
63.88
62.17
57.05
51.45
47.97
48.88
55.50
67.24
83.27
102.63
124.40
146.09
163.70
172.78
170.19
155.05
128.02
91.87
50.72
9.47
-27.63
-57.56
-78.90
-92.04
-99.48
-105.74
-115.27
-130.61
-150.94
-172.82
-191.57
-203.24
-205.81
-199.63
-186.91
-170.16
-151.35
-131.52
-111.42
-91.88
-73.99
-58.88
-47.20
-38.93
-33.24
-28.77
-24.23
-18.96
-13.15
-7.60
-3.22
-0.36
1.53
3.86
8.36
16.42
28.44
43.59
59.94
75.03
86.47
92.61
93.00
88.42
80.66
71.80
63.58
56.95
52.02
48.36
45.48
43.23
41.94
42.15
44.35
48.78
55.23
63.26
71.99
80.22
86.67
90.31
90.81
88.80
85.76
83.33
83.22
86.17
92.11
100.58
111.20
123.90
138.46
153.80
166.98
174.34
171.15
153.66
120.64
74.25
19.85
-35.37
-84.30
-122.12
-145.91
-156.90
-159.26
-158.95
-162.04
-172.96
-192.95
-219.51
-247.62
-269.45
-279.31
-274.48
-255.73
-226.34
-190.20
-150.09
-103.07
-55.69
-6.74
42.45
88.79
128.07
156.19
170.51
170.63
158.62
137.89
114.39
92.70
75.74
64.01
55.68
47.66
37.15
22.97
5.58
-11.82
-26.50
-36.54
-41.39
-41.62
-38.36
-32.72
-25.61
-18.03
-10.00
-1.73
7.08
17.15
29.21
43.24
57.96
70.90
79.09
80.65
75.25
64.67
52.21
41.67
36.03
36.57
42.56
51.40
59.50
63.01
58.79
45.34
23.42
-3.82
-31.39
-53.67
-66.20
-67.22
-58.34
-43.79
-28.53
-16.10
-7.31
-0.32
8.00
20.23
37.04
57.02
77.54
96.03
110.79
121.00
126.15
125.36
117.27
100.48
74.47
40.44
1.43
-38.20
-73.81
-101.58
-119.35
-126.86
-125.77
-119.38
-112.15
-108.94
-113.86
-129.02
-153.69
-184.49
-216.57
-245.30
-267.80
-283.44
-293.14
-298.07
-298.56
-293.76
-282.30
-263.38
-237.58
-206.83
-173.62
-139.97
-106.81
-74.16
-41.85
-10.30
19.26
45.07
65.66
80.57
90.57
97.40
103.09
109.32
116.87
125.47
133.92
140.59
143.98
143.32
138.97
132.29
125.09
118.88
114.31
111.06
108.10
104.40
99.39
93.22
86.61
80.47
75.47
71.78
69.19
67.28
65.68
64.21
62.84
61.50
59.98
57.91
54.85
50.50
44.85
38.20
31.11
24.24
18.20
13.43
10.09
8.06
6.95
6.20
5.21
3.52
1.03
-1.87
-4.47
-5.95
-5.86
-4.30
-1.94
0.43
2.24
3.44
4.37
5.48
6.98
8.71
10.41
11.91
13.34
14.94
16.86
18.85
20.28
20.46
18.98
15.82
11.34
6.10
0.69
-4.41
-8.93
-12.88
-16.44
-19.90
-23.50
-27.31
-31.13
-34.46
-36.70
-37.43
-36.61
-34.53
-31.40
-27.26
-21.90
-14.94
-6.12
4.44
16.02
27.30
36.77
43.43
46.70
46.31
42.35
35.26
25.73
14.39
1.62
-12.30
-26.18
-38.74
-48.96
-56.07
-59.20
-57.30
-49.44
-35.33
-15.70
8.77
35.70
61.05
80.53
91.70
95.36
94.87
94.47
97.58
107.37
124.42
146.46
169.38
188.81
201.31
204.32
196.15
166.40
113.42
46.80
-17.16
-65.88
-96.17
-111.50
-117.45
-118.59
-117.29
-112.81
-104.54
-93.56
-82.44
-74.10
-69.70
-68.91
-71.59
-76.36
-81.23
-85.04
-87.68
-89.33
-90.30
-89.87
-87.45
-83.56
-79.73
-77.20
-77.01
-79.70
-81.10
-79.82
-75.25
-67.90
-59.03
-49.97
-41.19
-32.87
-25.32
-19.28
-16.24
-16.75
-19.97
-23.49
-24.09
-18.86
-7.23
8.28
23.07
32.41
34.87
33.27
33.31
40.39
56.78
79.97
103.83
121.43
127.35
119.54
99.00
69.74
35.07
-0.14
-30.44
-50.96
-58.81
-54.68
-42.71
-29.39
-20.86
-20.41
-26.95
-36.01
-41.91
-40.31
-30.12
-13.51
5.20
20.87
30.60
34.44
34.12
31.64
28.28
24.29
19.66
14.74
10.52
8.20
8.53
11.12
14.65
17.56
18.76
18.09
16.26
14.42
13.59
14.28
16.17
18.48
20.33
21.16
20.97
20.42
20.55
22.24
25.48
29.00
30.48
27.54
18.88
5.14
-11.15
-26.59
-38.28
-44.96
-47.18
-46.54
-44.67
-42.48
-40.00
-37.05
-33.41
-29.38
-25.60
-22.48
-19.98
-17.61
-14.77
-11.11
-6.86
-2.78
0.18
1.34
0.74
-0.77
-1.89
-1.36
1.38
5.94
11.11
15.38
17.62
17.52
15.69
13.29
11.48
10.96
11.76
13.32
14.76
15.18
14.10
11.59
8.17
4.65
1.58
-0.79
-2.58
-3.92
-4.94
-5.67
-6.29
-7.56
-10.69
-16.86
-26.38
-37.94
-49.30
-58.57
-65.10
-69.55
-72.66
-73.64
-69.70
-57.29
-34.94
-3.66
31.58
63.78
86.88
98.16
98.87
92.90
84.40
76.00
67.89
59.04
48.79
37.65
27.05
18.25
11.19
4.16
-5.28
-19.59
-39.18
-61.14
-79.87
-89.73
-87.50
-73.78
-53.84
-31.38
-9.39
10.93
29.48
46.08
59.61
68.26
70.44
65.95
56.70
43.60
29.02
14.81
1.57
-10.49
-20.21
-25.13
-22.69
-12.10
3.93
20.48
32.00
34.67
27.81
13.61
-5.07
-26.55
-50.39
-75.48
-97.02
-107.56
-100.79
-75.81
-38.27
1.30
32.62
50.90
58.79
64.80
76.22
93.33
108.26
110.52
92.67
54.25
1.88
-53.66
-100.50
-130.04
-138.90
-128.12
-99.81
-57.60
-7.93
40.17
70.94
73.84
53.04
26.01
4.47
-6.44
-7.10
-0.41
8.62
15.61
19.59
21.64
22.31
20.51
15.74
9.07
2.99
-0.61
-1.77
-2.59
-7.42
-21.63
-47.97
-85.33
-129.97
-173.22
-205.31
-216.96
-201.11
-156.05
-88.01
-10.83
58.89
107.71
130.26
129.55
114.69
96.37
82.26
75.13
74.09
77.45
84.12
92.50
98.58
96.76
82.98
57.90
27.70
1.57
-12.43
-11.05
2.31
19.43
31.49
32.81
22.01
0.46
-29.74
-66.33
-105.97
-141.31
-164.57
-173.24
-171.55
-166.77
-164.65
-166.95
-173.10
-176.39
-170.34
-151.48
-120.35
-80.43
-36.35
8.27
49.63
85.07
114.80
140.28
162.79
182.53
198.79
210.70
217.49
218.66
214.27
205.06
191.68
174.86
155.61
135.66
117.24
102.25
91.46
84.20
78.53
71.16
58.51
38.12
10.06
-22.34
-53.01
-74.92
-82.95
-76.24
-59.28
-40.06
-26.38
-22.34
-26.86
-34.90
-40.58
-40.54
-34.90
-27.01
-21.19
-20.56
-26.03
-36.70
-52.10
-70.33
-88.12
-101.35
-108.18
-109.64
-108.57
-108.06
-110.09
-114.44
-120.00
-122.39
-115.81
-96.54
-64.55
-23.57
20.61
62.51
99.15
131.14
152.34
160.84
158.25
147.87
132.19
112.22
88.71
63.27
40.76
21.43
6.21
-4.92
-13.16
-20.07
-26.65
-33.04
-38.33
-41.83
-43.89
-44.06
-42.45
-39.72
-36.52
-33.12
-29.36
-24.88
-19.66
-14.50
-9.59
-5.35
-2.31
-0.67
-0.20
-0.28
-0.39
-0.46
-1.04
-2.16
-3.67
-5.35
-6.86
-7.89
-8.30
-8.13
-7.53
-6.70
-5.47
-3.70
-1.40
1.12
3.35
4.85
5.46
5.31
4.81
4.42
4.32
4.28
3.73
2.06
-1.04
-5.34
-10.22
-14.94
-19.03
-22.41
-25.28
-27.80
-29.82
-30.92
-30.60
-28.57
-24.97
-20.29
-15.24
-10.50
-6.53
-3.51
-1.40
-0.02
0.88
1.58
2.27
3.09
4.03
4.96
5.73
6.27
6.64
7.10
8.02
9.77
12.52
16.19
20.41
24.60
28.10
30.44
31.34
30.86
29.38
27.42
25.60
24.31
23.65
23.29
22.65
21.13
18.35
14.28
9.12
3.20
-3.17
-9.74
-16.20
-22.06
-26.67
-29.35
-29.77
-28.06
-24.79
-20.74
-16.62
-12.86
-9.54
-6.49
-3.53
-0.63
2.10
4.51
6.61
8.62
10.82
13.42
16.40
19.24
21.06
21.09
19.29
16.48
14.02
13.13
14.38
17.70
22.13
26.05
27.86
26.80
23.22
18.31
13.53
10.14
9.09
10.19
11.97
12.41
10.31
5.96
0.77
-3.60
-5.76
-4.23
1.78
11.97
24.94
38.56
50.00
55.87
52.84
36.41
7.27
-27.11
-56.83
-76.32
-85.90
-88.78
-87.83
-84.24
-77.86
-68.19
-56.46
-46.13
-41.17
-43.65
-51.89
-61.24
-65.77
-60.56
-43.12
-14.77
19.44
52.14
75.84
85.33
80.04
62.39
38.95
18.67
9.03
12.75
26.49
42.39
52.02
49.37
33.45
8.50
-18.35
-40.44
-53.53
-55.63
-46.13
-24.71
6.61
42.99
77.69
103.72
116.14
113.97
100.74
79.79
57.63
39.06
27.32
24.40
30.68
44.24
60.88
75.14
82.10
79.72
67.51
48.15
25.87
3.61
-18.86
-43.87
-73.16
-106.36
-140.83
-175.42
-208.58
-237.77
-259.82
-271.83
-271.14
-255.83
-225.72
-172.29
-100.67
-27.27
30.46
64.71
78.06
78.34
73.38
67.80
62.96
56.80
49.21
41.29
34.54
27.97
18.62
4.08
-14.87
-33.34
-45.69
-46.73
-34.57
-10.40
18.90
44.82
61.58
68.48
68.84
66.18
62.86
59.35
54.92
48.62
41.00
34.16
30.54
31.31
35.12
39.12
40.64
38.56
33.45
27.33
22.53
20.34
20.36
20.76
19.55
15.76
9.73
2.43
-5.13
-12.33
-19.14
-25.78
-32.37
-38.82
-44.78
-49.86
-53.81
-56.42
-57.45
-56.62
-53.86
-49.38
-43.72
-37.61
-31.74
-26.49
-21.90
-17.70
-13.58
-9.35
-5.05
-0.90
2.81
5.83
8.08
9.68
10.90
12.05
13.34
14.74
16.04
16.88
17.01
16.39
15.21
13.76
12.22
10.63
8.84
6.70
4.17
1.42
-1.34
-3.93
-6.30
-8.58
-10.91
-13.33
-15.67
-17.53
-18.47
-18.07
-16.13
-12.66
-7.89
-2.14
4.21
10.79
17.30
23.50
29.15
34.08
38.07
40.96
42.60
42.97
42.22
40.58
38.39
35.97
33.60
31.50
29.85
28.81
28.43
28.60
29.00
29.22
28.88
27.79
26.05
23.94
21.77
19.65
17.46
14.89
11.67
7.76
3.35
-1.25
-5.68
-9.74
-13.39
-16.71
-19.78
-22.41
-24.26
-25.02
-24.52
-22.78
-19.93
-16.18
-11.75
-6.84
-1.43
4.30
9.85
14.59
18.16
20.68
22.56
24.25
25.90
27.84
29.92
31.49
31.67
30.00
26.67
22.37
17.92
14.05
12.10
12.63
15.09
17.99
20.07
21.00
21.35
22.11
24.14
28.94
37.00
47.44
58.48
68.62
77.23
84.06
88.61
82.78
62.54
30.67
-4.41
-34.87
-56.97
-70.51
-77.04
-78.30
-75.33
-67.73
-55.34
-39.04
-20.99
-3.49
11.57
22.94
30.06
33.15
33.60
30.09
21.57
7.30
-11.69
-32.09
-48.86
-56.84
-52.94
-38.15
-19.75
-8.19
-12.28
-34.79
-71.63
-114.34
-153.74
-182.97
-191.42
-174.05
-136.52
-93.51
-58.70
-37.50
-26.84
-20.38
-10.67
5.30
24.81
42.62
54.70
60.71
62.36
61.49
59.29
56.47
53.84
52.55
54.67
62.01
74.26
87.47
94.97
90.77
72.71
43.23
7.47
-28.98
-61.48
-86.03
-98.25
-92.99
-66.04
-17.54
45.17
107.76
153.76
171.10
157.32
119.79
71.32
24.10
-14.50
-41.70
-56.55
-57.44
-42.87
-14.71
19.78
49.55
65.06
63.21
49.57
35.02
29.12
34.21
44.23
48.87
39.55
13.46
-26.88
-75.71
-127.20
-176.90
-221.90
-259.63
-286.28
-296.92
-286.55
-253.53
-201.03
-137.49
-74.57
-24.47
4.60
11.89
3.90
-4.91
-3.78
8.64
25.45
40.77
54.52
69.44
88.45
109.04
123.72
123.40
103.58
66.40
23.88
-8.13
-18.29
-4.97
22.99
51.48
67.97
67.60
54.10
36.42
22.04
13.06
6.79
-1.13
-12.89
-27.54
-41.47
-50.78
-53.07
-48.97
-41.73
-35.19
-32.04
-32.64
-35.56
-38.45
-39.31
-37.06
-32.25
-26.56
-21.69
-18.48
-16.55
-14.77
-12.01
-7.78
-2.13
4.41
11.17
17.68
23.68
29.11
34.16
39.20
44.68
50.99
58.03
65.05
70.81
73.99
73.76
70.07
63.68
55.78
47.74
40.92
36.40
34.78
35.85
38.49
40.90
41.24
38.14
31.37
21.87
11.14
0.77
-7.63
-12.34
-11.58
-4.01
9.97
28.37
47.92
65.26
78.28
86.83
92.27
96.13
99.11
99.90
97.24
90.92
82.17
73.09
65.86
62.05
62.51
67.49
74.81
81.45
83.37
75.96
55.19
19.06
-31.58
-92.64
-157.04
-217.68
-266.41
-296.08
-303.07
-289.47
-262.90
-234.76
-215.92
-200.75
-184.97
-165.04
-139.94
-111.09
-81.49
-53.99
-31.04
-13.48
-0.46
7.78
11.89
13.68
15.91
21.72
33.61
52.86
78.27
106.91
133.40
152.97
162.54
161.16
145.67
120.97
93.08
66.92
46.21
32.16
24.69
22.55
23.64
25.48
26.52
25.24
20.75
13.24
2.94
-9.65
-24.05
-39.63
-55.51
-69.89
-79.49
-83.47
-81.80
-75.30
-65.08
-52.12
-37.31
-21.83
-7.17
4.30
10.19
10.40
6.92
3.34
3.54
9.99
22.49
38.44
53.73
63.49
66.26
63.36
57.77
52.50
49.27
48.11
47.69
46.10
41.61
33.88
23.58
12.09
1.12
-8.09
-15.01
-19.89
-23.15
-25.10
-25.65
-24.99
-24.23
-24.67
-27.77
-34.17
-43.08
-52.23
-58.57
-59.40
-53.00
-40.77
-25.58
-11.00
1.04
9.85
15.95
20.54
24.64
28.33
30.94
31.56
29.83
26.21
22.26
19.43
18.53
19.67
21.86
23.85
24.38
22.71
19.10
14.47
10.06
7.28
7.48
11.37
18.43
26.15
30.80
28.84
18.30
-0.42
-24.48
-49.37
-71.02
-84.23
-87.35
-82.98
-76.21
-71.67
-71.38
-73.17
-71.28
-59.34
-34.22
0.43
35.00
58.08
62.77
49.42
25.11
0.69
-14.46
-16.09
-5.79
11.92
32.79
53.65
71.26
81.59
80.80
67.40
44.40
19.04
0.29
-4.65
6.54
28.23
49.56
59.40
50.94
23.32
-19.23
-68.79
-114.85
-145.98
-152.46
-129.07
-77.98
-9.48
59.94
112.86
137.33
130.70
98.45
50.45
-2.36
-49.45
-81.36
-91.89
-80.62
-53.47
-20.87
5.66
18.09
15.29
3.57
-7.67
-10.52
-6.07
-3.25
-10.15
-27.74
-51.15
-73.80
-92.15
-102.96
-103.56
-92.52
-69.37
-35.11
7.13
52.75
93.20
118.34
124.32
114.01
92.42
64.11
34.08
8.56
-6.44
-8.44
0.33
13.51
23.64
25.35
18.52
8.76
3.89
9.27
23.72
42.15
57.80
66.28
67.03
62.30
54.53
44.67
31.96
15.57
-3.24
-21.23
-34.82
-42.22
-43.80
-41.72
-38.62
-36.58
-36.91
-38.94
-41.05
-41.24
-38.19
-31.73
-22.93
-13.55
-5.46
0.01
2.63
2.98
2.29
1.63
1.61
2.27
3.42
4.78
6.16
7.56
8.62
9.22
9.29
8.94
8.42
8.07
8.06
8.20
8.02
6.88
4.51
1.07
-2.80
-6.43
-9.35
-11.50
-13.08
-14.21
-14.93
-15.23
-15.36
-15.97
-17.88
-21.57
-26.76
-32.45
-37.39
-40.72
-42.24
-42.34
-41.43
-39.57
-36.37
-31.37
-24.49
-16.26
-7.56
0.73
8.01
13.99
18.64
22.00
24.19
25.47
26.14
26.53
26.74
26.72
26.33
25.60
24.74
23.99
23.40
22.71
21.51
19.59
17.08
14.49
12.33
10.83
9.80
8.87
7.72
6.29
4.75
3.25
1.82
0.23
-1.75
-4.26
-7.27
-10.60
-13.98
-17.19
-19.93
-21.90
-22.74
-22.21
-20.27
-17.22
-13.60
-9.94
-6.60
-3.64
-0.94
1.68
4.26
6.70
8.82
10.49
11.69
12.47
12.86
12.88
12.56
11.93
11.09
10.13
9.10
8.01
6.94
6.05
5.55
5.51
5.85
6.28
6.54
6.51
6.29
6.00
5.64
4.99
3.73
1.62
-1.32
-4.78
-8.37
-11.79
-14.94
-17.78
-20.19
-21.90
-22.46
-21.47
-18.85
-14.86
-10.04
-4.95
-0.03
4.50
8.65
12.43
15.79
18.58
20.63
21.95
22.65
22.92
22.86
22.42
21.45
19.82
17.55
14.82
11.93
9.19
6.80
4.81
3.24
2.03
1.07
0.22
-0.70
-1.89
-3.47
-5.46
-7.70
-9.92
-11.87
-13.32
-14.25
-14.76
-15.12
-15.59
-16.30
-17.24
-18.27
-19.09
-19.40
-19.01
-17.81
-15.84
-13.25
-10.16
-6.70
-2.91
1.09
5.14
8.96
12.19
14.58
16.09
16.91
17.32
17.56
17.71
17.72
17.49
17.00
16.38
15.76
15.26
14.87
14.47
13.86
12.81
11.23
9.18
6.88
4.64
2.74
1.31
0.25
-0.68
-1.74
-3.14
-4.91
-7.00
-9.33
-11.77
-14.22
-16.52
-18.48
-19.92
-20.72
-20.78
-19.96
-18.06
-14.83
-10.27
-4.74
0.98
5.96
9.50
11.32
11.76
11.60
11.68
12.43
13.58
14.22
13.33
10.39
5.71
0.48
-3.65
-5.25
-3.77
0.38
6.01
11.88
17.10
20.58
20.93
16.95
8.32
-3.32
-14.23
-19.86
-16.54
-3.33
16.14
35.27
47.70
50.34
44.72
35.95
29.36
28.86
36.00
48.53
62.41
74.35
82.74
87.48
89.17
87.18
81.26
72.91
62.70
51.24
39.60
28.19
15.52
-2.19
-30.98
-73.87
-126.83
-181.91
-228.14
-254.34
-253.61
-226.07
-170.59
-98.94
-37.02
6.52
32.33
43.01
42.81
36.06
26.21
15.64
4.54
-6.28
-13.59
-15.95
-13.34
-6.58
2.45
11.11
16.81
17.04
11.80
4.92
-0.04
-0.53
4.73
15.35
29.69
45.48
59.54
68.97
72.35
68.20
55.71
35.70
10.87
-14.90
-37.90
-56.36
-70.45
-80.44
-86.37
-87.29
-81.69
-68.46
-47.93
-22.16
7.02
34.76
55.16
64.63
64.09
57.49
48.96
41.24
35.26
30.47
25.33
18.54
9.57
-1.42
-13.71
-25.50
-33.84
-35.72
-29.85
-18.08
-4.49
7.11
15.56
22.97
33.09
48.05
65.36
78.09
78.35
62.55
34.62
4.52
-17.14
-25.03
-20.43
-9.79
-0.31
4.17
4.28
3.95
7.06
14.67
24.64
33.16
37.00
35.09
28.39
18.43
7.18
-3.58
-12.65
-19.64
-25.04
-29.84
-34.36
-38.10
-40.30
-39.15
-32.97
-21.77
-8.20
3.26
8.15
4.31
-6.67
-22.71
-40.09
-55.26
-66.84
-76.21
-86.29
-99.43
-115.28
-124.61
-120.91
-104.10
-80.79
-58.40
-40.07
-24.20
-9.92
6.97
25.87
42.66
54.01
58.85
58.23
53.35
45.51
35.16
21.99
1.95
-29.25
-71.95
-121.57
-170.14
-208.14
-227.80
-226.08
-194.40
-139.04
-79.84
-35.57
-11.81
-2.57
2.27
11.96
27.27
44.59
57.09
60.37
55.74
49.68
45.65
48.59
62.49
89.03
127.16
171.14
213.00
244.98
261.20
257.63
234.89
198.78
158.97
126.41
108.86
108.76
122.74
142.88
158.40
160.92
147.26
119.91
84.52
47.01
10.94
-27.57
-67.01
-103.04
-131.23
-149.61
-158.65
-160.80
-157.50
-151.45
-140.57
-121.21
-91.59
-52.74
-8.37
37.02
73.50
93.51
96.13
87.38
75.63
66.47
61.37
58.68
57.94
55.54
50.03
40.38
25.82
5.98
-19.26
-49.56
-84.33
-120.14
-153.60
-174.74
-176.91
-161.05
-134.85
-107.42
-84.69
-68.52
-57.79
-50.68
-44.50
-37.65
-30.01
-22.35
-15.67
-10.97
-9.12
-10.77
-16.66
-27.16
-40.59
-54.04
-63.10
-62.97
-50.68
-27.00
3.52
34.54
57.75
69.45
70.97
66.92
61.95
58.26
55.19
51.03
44.82
37.66
32.37
31.25
34.73
41.03
46.96
49.23
46.49
39.54
31.06
24.61
22.55
25.33
31.61
39.22
45.80
49.22
47.24
37.63
19.03
-8.21
-40.99
-73.57
-99.40
-114.65
-118.49
-114.02
-106.06
-97.85
-89.08
-76.23
-55.40
-25.91
7.94
38.40
57.86
62.92
55.92
43.33
32.13
26.31
25.54
26.62
26.24
22.73
16.50
9.19
2.66
-1.55
-2.38
0.41
6.21
13.57
19.94
22.49
19.05
8.87
-7.93
-28.51
-49.69
-68.59
-82.34
-89.80
-90.00
-83.43
-72.47
-60.67
-51.17
-45.55
-43.00
-40.51
-35.04
-25.10
-11.61
2.77
15.35
25.35
34.53
43.93
56.55
75.11
100.31
129.44
156.66
174.80
178.00
163.62
133.06
91.05
42.96
-6.89
-55.69
-101.07
-139.84
-167.78
-181.04
-178.10
-160.86
-134.59
-106.17
-81.79
-65.41
-58.30
-59.24
-65.15
-71.66
-73.92
-68.46
-54.42
-33.93
-11.25
9.07
23.89
32.08
34.12
31.23
24.74
16.13
7.28
0.42
-2.56
-0.85
4.96
13.18
21.85
29.28
34.30
36.26
34.95
30.77
24.65
17.82
11.28
5.44
0.20
-4.66
-8.91
-11.77
-12.19
-9.46
-3.63
4.58
14.28
24.89
36.21
48.15
60.38
72.23
83.10
92.76
101.47
109.59
116.96
122.62
125.00
122.48
113.99
99.21
78.42
52.34
22.17
-10.20
-42.17
-70.89
-93.94
-110.05
-119.30
-122.91
-122.73
-120.63
-118.15
-116.28
-115.25
-114.28
-111.44
-104.11
-89.92
-67.98
-39.61
-8.16
22.01
47.02
64.73
75.10
79.83
81.37
81.98
83.03
84.95
87.62
90.89
94.82
99.44
104.39
108.62
110.53
108.55
101.96
91.54
79.53
68.90
62.27
60.97
64.70
71.89
80.33
87.95
93.26
95.36
93.75
88.21
78.68
65.44
49.11
30.71
11.48
-7.43
-25.26
-41.83
-57.46
-72.52
-87.00
-100.27
-111.44
-119.96
-126.32
-131.99
-138.52
-146.13
-152.97
-155.46
-149.93
-134.80
-111.91
-86.13
-63.15
-46.74
-36.98
-30.57
-22.99
-11.19
4.70
21.79
36.28
45.66
49.83
50.55
49.95
49.17
48.13
46.26
43.46
40.61
39.03
39.57
41.95
45.03
47.64
49.39
50.77
52.66
55.46
58.63
60.85
60.65
57.11
50.15
40.40
28.78
16.12
2.96
-10.32
-23.41
-35.82
-46.78
-55.37
-60.80
-62.92
-62.51
-61.33
-61.61
-65.07
-72.15
-81.60
-90.82
-96.80
-97.01
-90.07
-76.11
-56.94
-35.85
-17.19
-5.22
-2.52
-8.49
-19.24
-28.99
-32.71
-28.40
-17.80
-5.03
5.93
13.35
18.11
22.28
27.03
31.57
33.67
31.54
25.35
17.34
10.56
7.02
6.73
8.02
9.01
8.84
8.11
8.10
9.74
12.79
16.01
17.99
17.98
16.24
13.65
11.09
9.03
7.56
6.76
6.96
8.62
12.04
16.93
22.40
27.33
30.78
32.35
32.08
30.15
26.62
21.40
14.56
6.60
-1.44
-8.26
-12.80
-14.69
-14.33
-12.62
-10.46
-8.38
-6.56
-4.94
-3.51
-2.36
-1.62
-1.30
-1.29
-1.46
-1.85
-2.62
-3.94
-5.69
-7.45
-8.53
-8.35
-6.75
-4.08
-1.05
1.66
3.63
4.81
5.44
5.84
6.24
6.77
7.47
8.39
9.66
11.47
13.99
17.23
20.96
24.70
27.81
29.77
30.41
29.95
28.82
27.44
25.93
24.09
21.63
18.39
14.55
10.56
7.01
4.37
2.86
2.39
2.59
2.98
3.05
2.42
0.93
-1.29
-3.90
-6.45
-8.56
-10.07
-11.07
-11.81
-12.55
-13.44
-14.51
-15.75
-17.16
-18.79
-20.63
-22.55
-24.22
-25.21
-25.11
-23.72
-21.08
-17.46
-13.23
-8.75
-4.29
0.01
4.15
8.22
12.33
16.54
20.72
24.50
27.38
28.86
28.66
26.87
23.91
20.41
17.00
14.09
11.81
10.09
8.76
7.72
6.96
6.50
6.28
6.11
5.72
4.84
3.36
1.36
-0.88
-3.04
-4.82
-6.10
-6.96
-7.67
-8.69
-10.47
-13.37
-17.42
-22.30
-27.32
-31.66
-34.57
-35.66
-34.90
-32.61
-29.22
-25.19
-20.87
-16.57
-12.52
-8.91
-5.85
-3.38
-1.40
0.20
1.55
2.69
3.59
4.21
4.61
4.94
5.41
6.27
7.62
9.38
11.31
13.02
14.13
14.44
13.95
12.92
11.69
10.52
9.48
8.42
7.18
5.75
4.34
3.31
2.99
3.37
4.09
4.56
4.25
3.01
1.15
-0.68
-1.73
-1.37
0.72
4.48
9.56
15.35
21.14
26.28
30.38
33.43
35.84
38.30
41.46
45.58
50.24
54.27
56.10
54.33
48.35
38.72
26.99
15.23
5.43
-1.16
-4.28
-4.67
-3.84
-3.57
-5.20
-9.10
-14.30
-18.94
-21.21
-20.44
-17.57
-14.78
-14.16
-16.48
-20.73
-24.70
-26.30
-24.63
-20.27
-14.68
-9.29
-4.95
-1.86
0.12
1.22
1.79
2.42
3.91
6.96
11.65
17.27
22.53
26.16
27.50
26.75
24.82
23.03
22.65
24.58
28.94
34.65
39.21
39.09
30.73
11.97
-16.82
-52.41
-89.45
-122.09
-145.55
-157.28
-157.35
-148.04
-132.90
-115.48
-98.10
-81.41
-64.64
-46.59
-26.73
-6.10
12.75
26.76
33.87
34.47
30.92
26.29
22.99
22.28
24.28
28.43
34.23
41.51
50.85
62.23
74.22
84.31
90.31
91.30
87.85
81.45
73.52
65.71
58.04
48.65
34.94
15.76
-7.56
-31.71
-52.61
-66.43
-68.52
-56.15
-29.73
6.70
46.65
82.43
106.49
113.25
94.18
50.17
-6.30
-57.62
-93.15
-113.49
-125.31
-134.24
-140.93
-143.50
-134.79
-111.04
-74.94
-34.54
0.82
24.69
35.56
36.62
31.29
25.32
22.55
23.63
26.44
28.38
28.38
26.92
24.95
22.82
20.92
18.60
15.33
11.02
6.61
4.01
5.06
10.55
20.05
32.65
46.90
61.83
76.29
88.90
98.59
104.48
105.87
102.33
93.91
81.13
65.98
50.47
35.90
23.04
11.85
1.63
-6.10
-9.74
-13.43
-18.82
-24.39
-29.76
-35.20
-41.65
-50.46
-62.92
-79.80
-100.09
-119.46
-131.96
-132.18
-117.25
-88.75
-52.95
-18.89
4.60
12.32
5.03
-12.09
-31.93
-47.96
-56.14
-55.56
-47.77
-35.77
-22.58
-9.97
1.14
10.30
17.28
21.66
22.89
20.67
15.21
7.49
-0.84
-8.27
-14.02
-18.08
-21.16
-23.81
-26.02
-27.19
-26.57
-23.77
-19.29
-14.42
-10.89
-10.48
-13.96
-20.87
-29.60
-38.04
-44.29
-47.09
-45.95
-41.38
-34.98
-28.37
-22.81
-18.99
-17.08
-16.82
-17.56
-18.15
-17.88
-16.94
-15.50
-13.54
-10.89
-7.53
-4.22
-2.38
-3.54
-4.93
-4.91
-2.64
1.80
8.04
15.59
23.52
29.08
33.07
36.40
39.17
41.33
42.64
42.59
41.44
39.05
35.75
32.65
30.62
29.76
29.82
30.20
30.13
28.97
26.34
22.57
18.72
15.66
13.69
12.91
13.22
14.59
17.10
20.77
25.56
31.33
37.42
42.81
46.67
48.56
48.55
47.00
44.33
40.78
36.47
31.21
24.76
17.15
8.79
0.42
-7.17
-13.53
-18.59
-22.64
-26.04
-28.89
-30.91
-31.68
-30.99
-29.08
-26.62
-24.37
-22.82
-21.98
-21.50
-21.04
-20.54
-20.32
-20.86
-22.47
-25.05
-27.99
-30.45
-31.60
-30.96
-28.46
-24.45
-19.44
-13.88
-8.07
-2.06
4.17
10.58
16.99
23.11
28.58
33.18
36.87
39.76
42.04
43.86
45.33
46.52
47.52
48.50
49.73
51.46
53.86
56.91
60.43
64.07
67.51
70.46
72.74
74.17
74.53
73.53
70.91
66.62
60.89
54.20
47.08
39.93
32.87
25.90
19.10
12.76
7.41
3.62
1.71
1.62
2.95
5.10
7.49
9.61
10.97
11.06
9.34
5.39
-0.91
-9.25
-18.94
-29.08
-38.83
-47.65
-55.34
-62.07
-68.11
-73.71
-78.95
-83.68
-87.68
-90.71
-92.64
-93.43
-93.13
-91.79
-89.48
-86.28
-82.38
-78.11
-73.92
-70.31
-67.61
-65.87
-64.83
-63.98
-62.77
-60.86
-58.21
-55.04
-51.62
-48.05
-44.07
-39.12
-32.59
-24.19
-14.15
-3.27
7.36
16.70
24.14
29.60
33.40
35.98
37.63
38.37
38.03
36.41
33.57
29.79
25.56
21.39
17.61
14.32
11.42
8.75
6.13
3.52
0.98
-1.39
-3.44
-5.08
-6.25
-6.95
-7.18
-7.05
-6.68
-6.21
-5.76
-5.43
-5.26
-5.39
-6.06
-7.57
-10.22
-14.09
-18.98
-24.32
-29.34
-33.22
-35.27
-35.11
-32.78
-28.69
-23.59
-18.37
-13.86
-10.63
-8.79
-7.94
-7.17
-5.31
-1.35
5.10
13.45
22.23
29.61
34.03
34.88
32.70
28.78
24.49
20.74
17.65
14.88
12.03
9.02
6.17
4.01
2.98
3.33
5.12
8.31
12.71
17.83
22.86
26.70
28.36
27.28
23.59
18.06
11.68
5.29
-0.73
-6.40
-11.97
-17.52
-22.90
-27.68
-31.38
-33.66
-34.41
-33.71
-31.72
-28.64
-24.60
-19.80
-14.47
-9.00
-3.89
0.37
3.48
5.37
6.22
6.41
6.29
6.09
5.85
5.45
4.69
3.45
1.71
-0.39
-2.56
-4.46
-5.75
-6.30
-6.20
-5.77
-5.39
-5.32
-5.65
-6.21
-6.73
-6.95
-6.76
-6.17
-5.34
-4.47
-3.77
-3.42
-3.56
-4.17
-5.09
-6.04
-6.63
-6.58
-5.72
-4.04
-1.66
1.26
4.54
8.02
11.53
14.96
18.24
21.43
24.66
27.97
31.21
33.89
35.31
34.78
31.99
27.17
21.17
15.14
10.20
7.13
6.14
7.01
9.17
11.97
14.77
17.10
18.69
19.49
19.66
19.49
19.30
19.23
19.27
19.22
18.88
18.06
16.70
14.79
12.40
9.56
6.36
2.90
-0.69
-4.26
-7.72
-11.01
-14.09
-16.82
-18.94
-20.12
-19.99
-18.39
-15.39
-11.31
-6.59
-1.65
3.21
7.81
12.03
15.74
18.76
20.86
21.89
21.81
20.74
19.01
17.10
15.56
14.85
15.17
16.42
18.18
19.91
21.12
21.55
21.23
20.34
19.16
17.88
16.59
15.26
13.89
12.47
11.05
9.60
7.98
5.93
3.16
-0.49
-4.90
-9.72
-14.53
-18.98
-22.98
-26.56
-29.70
-32.11
-33.24
-32.47
-29.43
-24.16
-17.15
-9.19
-1.22
5.87
11.35
14.81
16.23
16.03
14.97
13.85
13.24
13.24
13.53
13.62
13.06
11.66
9.39
6.36
2.78
-1.07
-4.66
-7.43
-8.87
-8.91
-7.89
-6.52
-5.54
-5.44
-6.25
-7.66
-9.24
-10.66
-11.83
-12.83
-13.86
-15.11
-16.75
-19.00
-22.01
-25.85
-30.32
-34.84
-38.51
-40.30
-39.32
-35.10
-27.76
-17.96
-6.74
4.80
15.72
25.34
33.29
39.42
43.78
46.52
47.83
47.87
46.70
44.27
40.45
35.20
28.63
21.09
13.08
5.19
-2.04
-8.17
-12.91
-16.12
-17.83
-18.26
-17.85
-17.18
-16.77
-16.92
-17.51
-18.10
-18.17
-17.40
-15.92
-14.27
-13.23
-13.38
-14.93
-17.71
-21.34
-25.49
-29.91
-34.38
-38.51
-41.70
-43.35
-43.11
-41.08
-37.73
-33.68
-29.36
-24.89
-20.17
-15.14
-9.93
-4.85
-0.28
3.56
6.60
8.87
10.46
11.43
11.92
12.18
12.47
13.02
13.80
14.61
15.08
14.98
14.22
12.95
11.40
9.77
8.12
6.45
4.69
2.77
0.61
-1.79
-4.36
-6.97
-9.43
-11.56
-13.27
-14.73
-16.24
-18.13
-20.62
-23.67
-27.05
-30.34
-33.10
-34.90
-35.32
-34.03
-30.83
-25.78
-19.23
-11.79
-4.17
2.97
9.18
14.29
18.35
21.46
23.73
25.22
25.95
26.00
25.49
24.59
23.51
22.42
21.43
20.63
20.02
19.57
19.22
18.86
18.32
17.50
16.22
14.40
12.00
9.12
5.97
2.86
0.11
-2.09
-3.78
-5.24
-6.94
-9.25
-12.36
-16.16
-20.30
-24.31
-27.81
-30.47
-32.11
-32.62
-31.87
-29.75
-26.23
-21.40
-15.53
-9.03
-2.35
4.10
10.01
15.23
19.69
23.35
26.22
28.29
29.60
30.23
30.32
30.04
29.53
28.89
28.16
27.35
26.48
25.52
24.42
23.11
21.51
19.56
17.21
14.49
11.44
8.13
4.67
1.12
-2.47
-6.11
-9.86
-13.85
-18.26
-23.28
-29.05
-35.51
-42.39
-49.19
-55.24
-59.82
-62.38
-62.61
-60.53
-56.46
-50.91
-44.42
-37.44
-30.30
-23.21
-16.33
-9.91
-4.17
0.66
4.44
7.17
8.96
9.92
10.14
9.66
8.45
6.57
4.10
1.19
-1.99
-5.28
-8.48
-11.39
-13.82
-15.70
-17.04
-18.07
-19.11
-20.49
-22.41
-24.84
-27.51
-30.01
-31.85
-32.65
-32.23
-30.65
-28.16
-25.14
-22.01
-19.10
-16.71
-15.00
-14.00
-13.53
-13.29
-12.81
-11.72
-9.81
-7.12
-3.86
-0.29
3.38
7.11
10.92
14.93
19.22
23.83
28.72
33.66
38.23
41.82
43.92
44.34
43.34
41.63
40.16
39.76
41.00
44.12
49.04
55.36
62.34
68.83
73.39
74.74
72.16
65.83
56.77
46.53
36.66
28.21
21.66
16.91
13.53
10.93
8.48
5.59
1.79
-3.16
-9.24
-16.02
-22.81
-28.73
-32.98
-35.01
-34.66
-32.19
-28.09
-22.98
-17.43
-11.90
-6.74
-2.24
1.49
4.46
6.87
8.95
10.90
12.81
14.60
16.18
17.56
18.82
20.14
21.71
23.69
26.14
29.00
31.98
34.53
35.86
35.18
31.96
26.15
18.25
9.04
-0.70
-10.45
-19.97
-29.23
-38.15
-46.47
-53.81
-59.79
-64.16
-66.86
-67.94
-67.39
-65.08
-60.77
-54.36
-46.01
-36.27
-25.91
-15.56
-5.48
4.60
15.23
26.80
39.05
50.91
60.78
67.09
69.01
66.76
61.49
54.82
48.29
42.97
39.31
37.28
36.46
36.20
35.72
34.15
30.91
26.03
20.48
16.07
14.81
18.17
26.42
38.49
52.33
65.65
76.47
83.55
86.34
84.75
78.89
69.01
55.68
39.97
23.53
8.24
-4.45
-13.84
-20.21
-24.62
-28.47
-33.00
-38.83
-45.82
-53.34
-60.91
-68.36
-75.81
-83.38
-90.95
-98.29
-105.18
-111.39
-116.96
-122.02
-126.40
-129.16
-128.63
-123.04
-111.18
-92.76
-67.74
-36.90
-2.06
34.07
68.42
97.98
120.17
133.38
137.47
135.23
130.16
124.69
119.73
115.43
111.80
108.70
105.73
102.09
98.83
96.55
94.18
89.83
82.71
73.69
64.33
55.91
48.89
45.98
49.44
59.33
74.00
92.11
113.26
137.39
164.22
174.22
156.27
115.48
67.41
23.65
-12.95
-44.33
-72.78
-99.07
-121.37
-137.81
-146.28
-147.38
-144.17
-139.54
-134.75
-130.03
-125.67
-121.27
-116.02
-109.80
-104.08
-100.69
-99.84
-99.91
-98.86
-95.50
-89.90
-81.75
-70.60
-56.80
-41.67
-26.91
-14.38
-6.05
-3.49
-7.09
-15.09
-24.19
-31.25
-34.38
-33.14
-28.41
-21.92
-15.48
-10.33
-6.78
-4.29
-2.15
0.12
2.83
6.07
9.67
13.28
16.49
18.93
20.59
21.69
22.55
23.38
24.05
24.14
23.28
21.45
19.02
16.62
14.74
13.42
12.27
10.77
8.67
6.20
3.97
2.57
2.17
2.24
1.82
-0.09
-3.98
-9.53
-15.69
-21.10
-24.71
-26.15
-25.84
-24.63
-23.24
-21.85
-19.96
-16.71
-11.43
-4.06
4.68
13.44
20.65
24.95
25.43
21.91
15.10
6.85
0.02
-2.14
2.89
15.62
33.88
53.11
67.78
73.33
67.81
52.45
31.01
8.19
-11.86
-26.53
-35.02
-37.79
-36.01
-31.19
-24.95
-18.91
-14.53
-12.73
-13.63
-16.41
-19.48
-21.00
-19.62
-15.08
-8.52
-2.21
1.31
0.21
-5.73
-14.83
-23.97
-29.79
-29.94
-24.08
-13.92
-2.37
7.70
14.53
17.94
19.12
19.75
21.31
24.26
28.07
31.67
33.96
33.98
31.14
25.81
19.16
13.68
12.49
18.41
32.72
53.97
77.52
96.78
106.08
102.41
87.01
64.02
38.31
13.34
-9.67
-31.60
-54.05
-77.44
-101.69
-122.93
-136.69
-140.34
-133.90
-118.32
-94.62
-67.65
-39.35
-13.69
4.61
11.81
7.20
-7.45
-26.83
-44.60
-56.10
-59.44
-56.32
-49.98
-43.76
-39.69
-38.11
-37.95
-37.98
-37.54
-36.10
-33.78
-30.56
-26.32
-20.87
-14.08
-6.00
2.73
10.90
17.57
22.00
24.23
25.10
25.98
28.36
33.29
41.06
51.12
62.81
74.78
85.21
92.17
94.60
92.76
88.23
83.11
78.86
76.19
74.27
71.38
66.35
59.62
52.85
47.72
44.74
43.01
41.78
40.61
39.40
38.20
36.87
34.68
30.34
22.45
6.10
-19.20
-49.36
-78.87
-104.62
-126.18
-143.72
-156.43
-162.51
-160.36
-150.63
-133.82
-111.97
-88.32
-65.70
-45.76
-28.97
-15.09
-3.42
7.71
17.61
26.17
33.52
40.27
47.20
54.68
62.21
68.45
71.94
71.51
66.67
57.83
46.53
35.09
25.87
20.55
19.70
23.02
29.51
37.90
46.86
55.34
62.84
69.40
75.47
81.62
88.30
95.54
102.88
109.26
113.48
114.49
111.61
104.62
93.72
79.50
62.78
44.47
25.35
6.06
-12.83
-30.73
-47.06
-61.38
-73.48
-83.51
-91.82
-98.78
-104.51
-108.85
-111.47
-112.15
-110.90
-107.97
-103.65
-98.29
-92.23
-85.97
-80.12
-75.33
-72.03
-70.04
-68.52
-66.22
-62.07
-55.57
-46.90
-36.65
-25.57
-14.26
-2.89
8.66
20.43
31.98
42.38
50.52
55.51
56.92
54.82
50.13
44.55
40.05
38.33
40.37
46.09
54.32
62.70
68.18
68.17
61.32
47.98
29.79
9.10
-11.82
-30.03
-42.49
-48.65
-50.82
-51.99
-53.15
-53.47
-51.97
-48.70
-44.91
-42.31
-41.95
-43.28
-44.49
-43.53
-39.81
-34.56
-30.20
-29.29
-33.61
-44.17
-59.10
-75.08
-87.70
-93.08
-89.26
-77.08
-60.06
-43.20
-31.09
-25.80
-26.35
-29.00
-29.45
-24.79
-14.44
0.20
17.04
34.71
53.83
74.30
97.29
124.31
156.35
192.73
230.15
262.64
282.46
282.34
257.74
208.96
140.87
61.62
-19.41
-93.45
-153.52
-194.93
-215.52
-216.05
-200.00
-173.38
-143.63
-117.64
-99.98
-91.82
-91.15
-94.07
-96.42
-95.10
-88.95
-78.59
-65.78
-52.49
-40.11
-29.17
-19.35
-9.89
0.04
11.02
23.20
36.33
49.76
62.55
73.54
81.54
85.50
84.90
79.88
71.37
60.88
50.16
40.72
33.45
28.47
25.32
23.27
21.70
20.33
19.22
18.59
18.56
19.03
19.64
19.91
19.48
18.26
16.41
14.30
12.41
11.21
11.14
12.47
15.24
19.14
23.47
27.32
29.84
30.47
29.24
26.72
23.84
21.43
19.98
19.43
19.26
18.81
17.53
15.26
12.25
9.09
6.47
4.98
4.85
5.91
7.54
8.85
8.98
7.36
3.95
-0.72
-5.68
-9.94
-12.86
-14.38
-15.01
-15.53
-16.65
-18.67
-21.42
-24.43
-27.15
-29.12
-30.12
-30.04
-28.85
-26.62
-23.51
-19.78
-15.81
-11.95
-8.39
-5.16
-2.15
0.70
3.35
5.66
7.47
8.65
9.22
9.24
8.77
7.85
6.58
5.20
4.13
3.81
4.51
6.19
8.41
10.51
11.90
12.28
11.70
10.44
8.77
6.84
4.65
2.07
-0.95
-4.38
-8.06
-11.75
-15.17
-18.02
-20.07
-21.15
-21.24
-20.42
-18.86
-16.79
-14.51
-12.35
-10.63
-9.63
-9.40
-9.65
-9.80
-9.11
-7.00
-3.29
1.71
7.33
12.84
17.68
21.56
24.44
26.29
27.05
26.57
24.81
21.95
18.45
15.00
12.24
10.58
10.02
10.24
10.69
10.87
10.48
9.48
8.03
6.37
4.72
3.22
1.94
0.91
0.18
-0.19
-0.22
-0.01
0.09
-0.33
-1.67
-4.09
-7.38
-10.98
-14.16
-16.23
-16.80
-15.82
-13.47
-10.06
-5.86
-1.16
3.71
8.33
12.17
14.83
16.14
16.33
15.88
15.32
15.05
15.22
15.73
16.35
16.83
16.91
16.44
15.40
13.91
12.29
10.90
10.13
10.18
11.04
12.48
14.15
15.61
16.44
16.30
14.99
12.56
9.30
5.75
2.51
0.08
-1.33
-1.85
-1.91
-2.04
-2.70
-4.07
-6.05
-8.30
-10.41
-12.04
-13.01
-13.26
-12.83
-11.74
-9.97
-7.55
-4.62
-1.52
1.34
3.52
4.72
4.91
4.25
3.08
1.76
0.57
-0.36
-1.08
-1.76
-2.67
-4.06
-6.05
-8.57
-11.32
-13.83
-15.64
-16.49
-16.43
-15.84
-15.21
-15.00
-15.44
-16.49
-17.93
-19.51
-21.02
-22.30
-23.22
-23.69
-23.69
-23.36
-22.92
-22.66
-22.76
-23.16
-23.55
-23.48
-22.49
-20.23
-16.59
-11.64
-5.58
1.28
8.60
15.94
22.76
28.50
32.61
34.73
34.77
32.90
29.49
25.04
20.13
15.32
11.18
8.14
6.37
5.77
5.93
6.39
6.70
6.68
6.41
6.08
5.82
5.61
5.21
4.29
2.55
-0.16
-3.67
-7.61
-11.42
-14.57
-16.71
-17.83
-18.18
-18.18
-18.21
-18.56
-19.35
-20.61
-22.23
-23.94
-25.34
-25.88
-25.05
-22.53
-18.31
-12.72
-6.35
0.13
6.05
10.92
14.41
16.44
17.17
16.92
16.07
14.95
13.78
12.70
11.87
11.45
11.57
12.16
12.95
13.49
13.38
12.45
10.88
9.16
7.75
6.86
6.30
5.59
4.18
1.77
-1.50
-5.19
-8.68
-11.46
-13.28
-14.20
-14.50
-14.54
-14.64
-15.10
-16.08
-17.56
-19.35
-21.06
-22.18
-22.25
-21.01
-18.43
-14.78
-10.50
-6.05
-1.83
1.97
5.28
8.12
10.56
12.67
14.52
16.10
17.35
18.14
18.30
17.65
16.20
14.14
11.86
9.89
8.60
8.16
8.38
8.97
9.58
9.94
9.87
9.22
7.88
5.82
3.16
0.24
-2.51
-4.65
-5.95
-6.47
-6.54
-6.60
-7.08
-8.35
-10.67
-14.13
-18.51
-23.20
-27.31
-29.85
-30.08
-27.82
-23.48
-17.87
-11.92
-6.35
-1.48
2.72
6.45
9.96
13.38
16.67
19.65
22.06
23.66
24.31
24.07
23.21
22.09
21.09
20.44
20.15
20.03
19.78
19.11
17.82
15.95
13.67
11.33
9.23
7.60
6.48
5.74
5.11
4.25
2.90
0.88
-1.82
-5.04
-8.51
-11.90
-14.91
-17.41
-19.41
-21.08
-22.60
-24.12
-25.58
-26.80
-27.52
-27.47
-26.48
-24.50
-21.55
-17.72
-13.13
-8.03
-2.73
2.39
6.98
10.75
13.58
15.43
16.33
16.37
15.67
14.45
12.98
11.53
10.26
9.13
7.99
6.70
5.24
3.81
2.73
2.24
2.43
3.08
3.81
4.16
3.74
2.30
-0.24
-3.73
-7.89
-12.29
-16.49
-20.11
-22.96
-25.08
-26.68
-28.09
-29.55
-31.13
-32.67
-33.82
-34.12
-33.18
-30.76
-26.84
-21.65
-15.66
-9.47
-3.65
1.39
5.50
8.80
11.62
14.34
17.19
20.20
23.20
25.90
27.98
29.24
29.56
28.98
27.60
25.64
23.40
21.24
19.43
18.09
17.05
15.91
14.16
11.39
7.51
2.88
-1.84
-5.83
-8.43
-9.43
-9.20
-8.59
-8.85
-11.16
-16.31
-24.34
-34.31
-44.49
-52.74
-57.11
-56.47
-50.89
-41.67
-31.00
-21.30
-14.47
-11.34
-11.36
-12.78
-13.21
-10.41
-3.09
8.59
23.14
38.26
51.71
61.97
68.50
71.52
71.64
69.41
65.09
58.71
50.28
39.99
28.37
16.41
5.55
-2.61
-6.72
-6.29
-2.06
4.03
9.39
11.63
9.37
2.55
-7.56
-19.01
-29.75
-38.14
-43.30
-45.11
-44.22
-41.72
-38.87
-36.76
-36.02
-36.67
-38.13
-39.40
-39.23
-36.52
-30.64
-21.91
-11.67
-1.96
5.20
8.63
8.49
6.24
3.94
3.44
5.67
10.54
17.15
24.22
30.38
34.38
35.29
32.72
27.17
20.06
13.42
9.21
8.43
10.75
14.65
18.13
19.48
17.93
13.77
8.03
1.96
-3.51
-7.85
-10.95
-12.91
-13.95
-14.33
-14.44
-14.78
-15.94
-18.34
-22.08
-26.84
-32.00
-36.77
-40.29
-41.78
-40.55
-36.06
-28.17
-17.30
-4.65
8.07
19.02
26.83
30.96
31.93
30.97
29.49
28.59
28.64
29.30
29.75
29.10
26.71
22.42
16.51
9.61
2.50
-4.03
-9.28
-12.79
-14.34
-14.00
-12.03
-8.83
-4.87
-0.51
3.89
7.95
11.20
13.10
13.12
10.93
6.55
0.29
-7.32
-15.66
-24.06
-31.76
-37.80
-41.03
-40.39
-35.24
-25.79
-13.27
0.40
13.05
23.04
29.61
33.00
34.10
33.99
33.52
33.19
33.12
33.21
33.28
33.11
32.54
31.44
29.81
27.76
25.43
22.96
20.36
17.61
14.69
11.64
8.59
5.65
2.93
0.49
-1.69
-3.59
-5.19
-6.60
-8.02
-9.77
-12.14
-15.36
-19.47
-24.30
-29.42
-34.27
-38.26
-40.78
-41.40
-40.00
-36.79
-32.24
-26.89
-21.13
-15.09
-8.70
-1.81
5.58
13.24
20.71
27.41
32.73
36.16
37.35
36.19
32.92
28.13
22.69
17.59
13.70
11.47
10.78
11.10
11.60
11.53
10.38
8.08
4.90
1.35
-2.02
-4.73
-6.53
-7.48
-7.90
-8.33
-9.32
-11.24
-14.07
-17.48
-20.92
-23.82
-25.86
-26.94
-27.17
-26.61
-25.26
-23.05
-20.00
-16.26
-12.10
-7.83
-3.65
0.36
4.15
7.59
10.48
12.60
13.89
14.49
14.68
14.76
14.91
15.19
15.54
15.88
16.14
16.22
15.94
15.08
13.52
11.34
8.92
6.86
5.85
6.38
8.54
11.97
15.91
19.42
21.55
21.57
19.14
14.36
7.79
0.31
-6.96
-12.98
-16.99
-18.82
-18.82
-17.84
-16.86
-16.63
-17.38
-18.69
-19.69
-19.30
-16.72
-11.71
-4.70
3.27
10.90
16.98
20.80
22.32
22.13
21.24
20.69
21.23
23.02
25.61
28.10
29.42
28.70
25.65
20.67
14.72
9.03
4.68
2.25
1.67
2.35
3.39
3.95
3.38
1.45
-1.73
-5.71
-9.79
-13.28
-15.69
-16.94
-17.44
-17.89
-19.04
-21.35
-24.77
-28.76
-32.46
-34.95
-35.49
-33.65
-29.49
-23.42
-16.21
-8.78
-2.01
3.53
7.61
10.33
12.01
13.09
13.92
14.78
15.79
16.90
17.87
18.32
17.93
16.59
14.43
11.87
9.43
7.55
6.49
6.29
6.71
7.37
7.68
7.05
4.99
1.35
-3.53
-8.81
-13.44
-16.52
-17.61
-16.93
-15.29
-13.77
-13.34
-14.56
-17.46
-21.53
-25.90
-29.61
-31.81
-31.96
-29.94
-26.07
-20.97
-15.35
-9.87
-4.93
-0.67
3.02
6.35
9.54
12.65
15.59
18.08
19.81
20.51
20.17
19.03
17.51
16.01
14.72
13.52
12.17
10.46
8.43
6.34
4.54
3.20
2.25
1.41
0.40
-0.90
-2.41
-3.99
-5.54
-7.09
-8.72
-10.49
-12.37
-14.30
-16.22
-18.12
-19.95
-21.62
-22.89
-23.51
-23.29
-22.25
-20.63
-18.72
-16.77
-14.84
-12.78
-10.29
-7.11
-3.08
1.75
7.12
12.57
17.54
21.46
23.94
24.83
24.26
22.57
20.18
17.43
14.62
11.92
9.48
7.46
6.00
5.17
4.98
5.26
5.78
6.22
6.33
5.89
4.86
3.32
1.42
-0.63
-2.67
-4.60
-6.35
-7.95
-9.48
-11.17
-13.34
-16.25
-19.90
-23.92
-27.51
-29.78
-30.00
-27.95
-23.92
-18.55
-12.59
-6.61
-1.01
3.95
8.14
11.47
13.99
15.88
17.38
18.67
19.79
20.63
21.05
20.97
20.47
19.70
18.82
17.91
16.95
15.86
14.57
13.07
11.39
9.55
7.59
5.50
3.28
1.01
-1.18
-3.12
-4.70
-5.95
-7.06
-8.32
-10.05
-12.39
-15.31
-18.56
-21.77
-24.54
-26.56
-27.66
-27.76
-26.87
-25.09
-22.62
-19.68
-16.51
-13.20
-9.71
-5.87
-1.57
3.11
7.90
12.29
15.78
18.01
18.88
18.60
17.59
16.36
15.35
14.81
14.73
14.89
14.88
14.40
13.32
11.80
10.13
8.61
7.37
6.29
5.10
3.57
1.63
-0.58
-2.85
-4.96
-6.82
-8.44
-9.83
-11.06
-12.15
-13.22
-14.43
-15.96
-17.91
-20.14
-22.33
-24.00
-24.69
-24.05
-21.94
-18.47
-13.88
-8.51
-2.78
2.86
8.00
12.33
15.76
18.40
20.54
22.40
24.08
25.46
26.22
25.98
24.49
21.76
18.12
14.17
10.59
7.99
6.64
6.46
7.01
7.68
7.89
7.31
5.87
3.74
1.16
-1.72
-4.88
-8.33
-11.98
-15.53
-18.53
-20.47
-21.06
-20.28
-18.49
-16.29
-14.33
-13.17
-13.12
-14.19
-16.10
-18.25
-19.87
-20.15
-18.48
-14.63
-8.93
-2.25
4.23
9.38
12.41
13.17
12.06
9.90
7.57
5.69
4.55
4.07
3.96
3.95
3.86
3.65
3.43
3.37
3.68
4.56
6.07
8.04
10.03
11.42
11.66
10.50
8.12
5.09
2.03
-0.66
-2.95
-5.18
-7.87
-11.49
-16.32
-22.23
-28.76
-35.00
-39.84
-42.17
-41.38
-37.57
-31.62
-24.94
-18.88
-14.30
-11.30
-9.34
-7.66
-5.62
-3.02
-0.01
3.08
5.92
8.29
10.09
11.25
11.76
11.63
10.99
10.07
9.08
8.20
7.44
6.70
5.80
4.65
3.27
1.83
0.46
-0.77
-1.88
-2.91
-3.90
-4.82
-5.70
-6.64
-7.78
-9.27
-11.09
-13.07
-14.96
-16.59
-18.06
-19.59
-21.37
-23.29
-24.85
-25.35
-24.20
-21.32
-17.12
-12.31
-7.56
-3.26
0.52
3.81
6.65
9.02
10.97
12.70
14.43
16.27
17.98
19.08
19.17
18.17
16.50
14.80
13.65
13.16
13.04
12.90
12.53
12.10
11.97
12.33
12.97
13.29
12.56
10.43
7.12
3.34
-0.00
-2.27
-3.32
-3.54
-3.53
-3.91
-5.12
-7.44
-10.99
-15.63
-20.81
-25.42
-28.05
-27.44
-23.22
-16.10
-7.66
0.34
6.66
11.00
13.88
16.10
18.28
20.71
23.46
26.49
29.67
32.75
35.20
36.37
35.78
33.46
29.98
26.22
22.92
20.46
18.82
17.66
16.58
15.19
13.14
10.24
6.57
2.54
-1.19
-3.96
-5.52
-6.22
-6.85
-8.25
-10.90
-14.73
-19.20
-23.65
-27.58
-30.71
-32.88
-33.90
-33.56
-31.68
-28.31
-23.75
-18.56
-13.32
-8.48
-4.21
-0.52
2.78
5.95
9.22
12.69
16.25
19.52
21.95
23.05
22.62
20.91
18.48
16.01
13.99
12.52
11.45
10.53
9.66
8.91
8.49
8.48
8.77
9.08
9.15
8.88
8.32
7.56
6.63
5.45
3.92
1.97
-0.31
-2.72
-5.02
-7.08
-8.89
-10.54
-12.17
-13.88
-15.71
-17.61
-19.44
-20.95
-21.80
-21.62
-20.12
-17.20
-13.01
-7.92
-2.43
3.03
8.09
12.52
16.16
18.85
20.45
20.92
20.34
19.00
17.25
15.46
13.89
12.71
12.08
12.15
13.06
14.77
16.90
18.85
19.93
19.64
17.85
14.85
11.20
7.48
4.11
1.30
-0.95
-2.76
-4.35
-5.97
-7.87
-10.18
-12.90
-15.78
-18.49
-20.63
-21.88
-22.00
-20.89
-18.63
-15.45
-11.84
-8.38
-5.65
-3.98
-3.26
-2.88
-1.96
0.32
4.36
9.92
16.14
21.73
25.37
26.09
23.63
18.51
12.01
5.80
1.46
-0.07
1.24
4.47
8.16
10.85
11.64
10.40
7.83
5.00
2.98
2.38
3.12
4.49
5.42
4.93
2.58
-1.32
-5.78
-9.47
-11.29
-10.78
-8.25
-4.66
-1.24
0.93
1.26
-0.27
-3.23
-6.94
-10.66
-13.62
-15.08
-14.40
-11.16
-5.46
1.97
9.81
16.54
20.90
22.30
20.99
17.81
13.83
10.00
6.90
4.80
3.71
3.46
3.70
3.95
3.63
2.31
-0.20
-3.68
-7.52
-10.88
-12.97
-13.33
-12.02
-9.64
-7.13
-5.42
-5.05
-6.04
-7.95
-10.13
-12.10
-13.76
-15.39
-17.38
-19.94
-23.00
-26.17
-28.95
-30.97
-32.10
-32.42
-32.16
-31.55
-30.75
-29.81
-28.66
-27.18
-25.21
-22.61
-19.35
-15.48
-11.15
-6.63
-2.24
1.62
4.57
6.32
6.80
6.28
5.29
4.42
4.05
4.19
4.52
4.66
4.46
4.08
3.89
4.20
5.02
6.00
6.63
6.57
5.78
4.65
3.81
3.84
5.07
7.43
10.46
13.34
15.19
15.25
13.12
8.92
3.25
-2.84
-8.10
-11.23
-11.24
-7.73
-1.10
7.44
16.26
23.87
29.44
32.93
34.88
35.78
35.65
33.99
30.15
23.84
15.48
6.13
-2.97
-10.77
-16.63
-20.24
-21.44
-20.14
-16.46
-10.89
-4.40
1.79
6.57
9.28
9.88
8.84
6.86
4.57
2.30
0.14
-1.98
-4.09
-6.17
-8.15
-10.02
-11.86
-13.76
-15.75
-17.63
-19.13
-19.96
-20.02
-19.49
-18.64
-17.69
-16.64
-15.26
-13.21
-10.30
-6.63
-2.56
1.41
4.88
7.72
10.11
12.42
15.02
18.10
21.62
25.30
28.79
31.79
34.10
35.60
36.18
35.63
33.76
30.52
26.18
21.40
17.09
14.10
12.98
13.67
15.61
17.89
19.61
20.12
19.15
16.77
13.28
9.06
4.50
-0.05
-4.30
-8.07
-11.30
-14.03
-16.31
-18.18
-19.61
-20.62
-21.26
-21.71
-22.12
-22.56
-22.94
-23.03
-22.60
-21.57
-20.02
-18.16
-16.19
-14.15
-11.99
-9.61
-7.02
-4.39
-2.01
-0.23
0.70
0.68
-0.25
-1.86
-3.78
-5.60
-6.95
-7.53
-7.24
-6.16
-4.52
-2.66
-0.97
0.19
0.56
0.08
-1.19
-3.01
-5.18
-7.55
-10.10
-12.84
-15.75
-18.72
-21.52
-23.89
-25.53
-26.22
-25.71
-23.83
-20.57
-16.13
-10.90
-5.39
-0.05
4.86
9.22
13.11
16.61
19.69
22.19
23.92
24.76
24.71
23.94
22.71
21.27
19.94
18.85
18.04
17.51
17.29
17.41
17.84
18.45
19.05
19.56
19.68
19.14
17.85
16.09
14.35
13.11
12.61
12.77
13.41
13.72
12.70
9.80
5.39
0.65
-2.97
-4.22
-2.55
2.15
8.41
13.91
16.72
16.41
14.13
12.00
12.34
16.88
26.78
40.41
53.76
61.86
60.87
49.23
28.04
0.49
-31.52
-61.06
-81.23
-90.22
-92.24
-92.73
-94.70
-98.25
-101.61
-102.11
-95.65
-81.45
-58.69
-28.31
7.35
44.62
79.29
108.05
124.12
127.90
123.47
114.56
101.79
83.61
58.56
27.51
-5.50
-34.50
-53.16
-59.08
-54.22
-43.60
-32.35
-23.88
-19.33
-17.99
-18.39
-18.50
-17.85
-17.34
-18.65
-23.24
-30.95
-40.25
-48.40
-52.38
-49.65
-40.17
-26.45
-12.61
-2.28
2.78
3.17
1.10
-0.98
-1.34
0.05
2.01
3.05
2.24
-0.43
-4.38
-8.88
-13.41
-17.67
-21.56
-24.95
-27.65
-28.93
-28.14
-24.89
-19.18
-11.31
-1.64
9.83
23.65
40.80
62.10
86.99
112.69
134.18
145.46
141.93
122.52
90.59
53.03
17.65
-9.68
-26.84
-35.51
-39.68
-43.54
-49.82
-59.23
-70.80
-82.70
-93.08
-100.58
-104.47
-104.78
-101.99
-96.61
-88.75
-78.14
-64.65
-49.09
-33.51
-20.71
-12.92
-10.27
-10.22
-8.44
-0.86
14.26
35.33
57.99
76.94
88.02
89.57
82.56
69.86
54.98
40.97
29.82
22.26
17.97
15.96
15.18
14.97
15.16
15.91
17.26
18.84
19.87
19.58
17.47
13.50
7.90
1.02
-6.90
-15.70
-25.15
-34.86
-44.29
-52.83
-59.83
-64.72
-67.04
-66.65
-64.04
-60.46
-57.67
-57.10
-59.01
-61.99
-63.56
-61.47
-55.25
-46.74
-39.20
-35.44
-36.14
-39.51
-42.46
-42.48
-38.91
-32.82
-25.97
-19.63
-14.09
-9.22
-5.04
-1.92
0.05
1.74
5.10
12.28
24.36
40.42
57.78
73.15
83.96
89.27
89.61
86.55
81.89
77.26
73.75
71.79
70.99
70.05
67.04
60.07
48.11
31.67
12.82
-5.40
-19.97
-28.82
-31.42
-28.74
-22.98
-16.92
-13.15
-13.46
-18.16
-25.94
-34.26
-40.25
-41.95
-39.20
-33.81
-28.54
-25.58
-24.88
-23.68
-17.45
-1.95
24.59
60.28
100.14
137.84
167.85
186.74
193.28
187.70
170.92
144.60
111.69
76.67
44.81
20.56
5.92
-0.00
-0.14
2.28
4.90
6.40
5.84
2.14
-5.60
-17.02
-29.74
-39.50
-41.96
-34.90
-19.64
-0.70
16.16
26.42
28.43
23.47
14.62
5.10
-2.97
-8.94
-13.26
-16.79
-20.32
-24.27
-28.75
-33.75
-39.25
-45.06
-50.75
-55.48
-58.12
-57.60
-53.34
-45.61
-35.58
-24.94
-15.31
-7.69
-2.20
1.65
4.54
6.99
9.14
10.99
12.51
13.82
15.03
16.18
17.13
17.70
17.74
17.33
16.54
15.32
13.38
10.27
5.73
-0.06
-6.47
-12.71
-18.20
-22.85
-26.92
-30.79
-34.64
-38.41
-41.95
-45.22
-48.41
-51.80
-55.54
-59.42
-62.85
-65.09
-65.53
-63.98
-60.85
-57.02
-53.59
-51.40
-50.80
-51.41
-52.32
-52.56
-51.50
-49.03
-45.47
-41.18
-36.24
-30.44
-23.54
-15.54
-6.92
1.56
9.05
15.01
19.30
22.12
23.84
24.83
25.41
25.74
25.91
25.88
25.59
24.91
23.79
22.26
20.37
18.18
15.70
12.95
10.00
7.04
4.38
2.32
1.01
0.46
0.44
0.61
0.64
0.41
0.08
0.11
1.13
3.65
7.84
13.37
19.53
25.45
30.40
33.98
36.14
37.05
36.92
36.00
34.55
32.93
31.58
30.87
30.97
31.77
32.90
33.87
34.17
33.35
31.15
27.48
22.54
16.85
11.15
6.24
2.67
0.56
-0.47
-1.09
