1593620516.00
64.000000
-0.00
-0.00
-0.00
-0.00
-0.00
-0.00
-0.00
-0.00
-0.00
-0.00
0.00
0.01
0.01
-0.00
-0.03
-0.05
-0.05
0.00
0.13
0.36
0.66
1.01
1.37
1.72
2.06
2.40
2.79
3.24
3.80
4.42
5.06
5.66
6.20
6.68
7.15
7.68
8.31
9.14
10.09
11.04
11.88
12.56
13.14
13.76
14.65
15.96
17.91
20.32
22.90
25.38
27.58
29.57
31.68
34.32
37.81
42.54
48.15
54.10
59.83
64.97
69.58
74.14
79.34
85.71
93.76
103.00
112.62
121.73
129.77
136.75
143.30
150.75
157.77
166.64
177.95
191.79
206.97
220.57
228.25
225.36
208.53
176.87
132.76
80.05
23.07
-34.94
-92.44
-149.16
-205.23
-260.37
-313.74
-363.87
-409.83
-450.91
-486.50
-515.74
-537.23
-549.23
-549.96
-538.35
-514.17
-478.63
-433.85
-382.47
-327.12
-270.05
-212.95
-157.05
-103.37
-52.79
-6.31
35.18
71.00
100.86
124.91
143.69
157.93
168.36
175.58
179.98
181.77
181.17
178.44
173.94
168.14
161.52
154.47
147.19
139.75
132.09
124.15
115.95
107.64
99.45
91.65
84.37
77.61
71.16
64.79
58.27
51.57
44.87
38.50
32.78
27.91
23.80
20.13
16.47
12.47
8.04
3.42
-0.97
-4.72
-7.57
-9.58
-11.04
-12.30
-13.71
-15.62
-18.42
-22.36
-27.21
-31.81
-34.17
-32.07
-24.09
-10.57
6.08
22.35
34.87
41.85
43.57
41.73
38.31
34.56
30.93
27.58
25.00
24.04
25.35
28.61
32.34
34.52
33.59
29.26
22.70
15.84
10.38
7.08
5.68
5.35
5.30
5.09
4.62
3.98
3.22
2.36
1.44
0.59
-0.15
-0.67
-0.98
-1.17
-1.30
-1.44
-1.61
-1.86
-2.20
-2.60
-2.94
-3.01
-2.63
-1.72
-0.42
1.03
2.32
3.28
3.91
4.39
4.89
5.50
6.20
6.90
7.53
8.09
8.66
9.31
10.11
11.03
12.01
12.94
13.66
13.96
13.63
12.51
10.62
8.12
5.39
2.61
-0.10
-2.79
-5.58
-8.58
-11.74
-14.82
-17.46
-19.38
-20.46
-20.81
-20.72
-20.53
-20.50
-20.67
-20.92
-21.01
-20.76
-20.11
-19.14
-18.10
-17.33
-17.12
-17.70
-19.05
-20.91
-22.71
-23.62
-22.75
-19.37
-13.20
-4.62
5.35
15.22
23.40
28.74
30.83
30.11
27.58
24.32
21.10
18.15
15.30
12.29
9.11
6.00
3.46
1.80
1.00
0.70
0.36
-0.44
-1.81
-3.61
-5.54
-7.34
-8.97
-10.51
-12.13
-13.87
-15.61
-17.04
-17.72
-17.45
-16.12
-13.83
-10.91
-7.82
-5.04
-2.94
-1.74
-1.45
-1.90
-2.82
-3.98
-5.25
-6.65
-8.31
-10.40
-12.96
-15.83
-18.56
-20.52
-21.05
-19.70
-16.39
-11.39
-5.19
1.66
8.74
15.71
22.31
28.27
33.21
36.82
38.92
39.56
39.02
37.67
35.84
33.67
31.17
28.29
25.08
21.68
18.35
15.29
12.61
10.29
8.21
6.31
4.56
2.99
1.63
0.41
-0.78
-2.00
-3.26
-4.51
-5.64
-6.65
-7.56
-8.46
-9.35
-10.16
-10.74
-11.00
-10.95
-10.68
-10.36
-10.10
-9.94
-9.88
-9.95
-10.22
-10.77
-11.63
-12.66
-13.60
-14.09
-13.86
-12.85
-11.22
-9.27
-7.29
-5.41
-3.59
-1.72
0.28
2.36
4.30
5.91
7.05
7.73
8.05
8.14
8.05
7.82
7.46
7.07
6.80
6.75
6.90
7.13
7.27
7.19
6.92
6.57
6.32
6.24
6.29
6.33
6.20
5.79
5.13
4.36
3.62
2.97
2.35
1.64
0.70
-0.49
-1.83
-3.10
-4.10
-4.77
-5.25
-5.78
-6.61
-7.88
-9.47
-11.11
-12.43
-13.17
-13.21
-12.58
-11.46
-10.03
-8.45
-6.76
-4.97
-3.08
-1.12
0.80
2.52
3.85
4.72
5.15
5.31
5.42
5.62
5.97
6.36
6.64
6.67
6.43
5.95
5.38
4.83
4.38
4.02
3.68
3.29
2.82
2.30
1.83
1.46
1.22
1.01
0.72
0.27
-0.36
-1.08
-1.77
-2.34
-2.79
-3.16
-3.51
-3.90
-4.31
-4.76
-5.24
-5.84
-6.61
-7.60
-8.74
-9.84
-10.61
-10.80
-10.29
-9.13
-7.50
-5.63
-3.72
-1.85
-0.07
1.60
3.15
4.56
5.81
6.89
7.78
8.41
8.70
8.62
8.24
7.73
7.26
7.00
6.94
6.98
6.97
6.81
6.51
6.13
5.73
5.34
4.89
4.31
3.54
2.61
1.62
0.71
0.01
-0.46
-0.78
-1.07
-1.45
-2.02
-2.76
-3.62
-4.53
-5.43
-6.28
-7.06
-7.76
-8.39
-9.01
-9.73
-10.62
-11.66
-12.66
-13.36
-13.44
-12.74
-11.27
-9.26
-7.06
-4.99
-3.21
-1.73
-0.42
0.88
2.23
3.60
4.86
5.89
6.66
7.18
7.52
7.74
7.85
7.81
7.61
7.29
6.94
6.63
6.41
6.24
6.06
5.83
5.52
5.12
4.62
3.98
3.19
2.23
1.18
0.14
-0.81
-1.59
-2.21
-2.70
-3.09
-3.44
-3.76
-4.10
-4.52
-5.10
-5.94
-7.07
-8.45
-9.95
-11.32
-12.30
-12.66
-12.29
-11.19
-9.49
-7.35
-4.96
-2.52
-0.22
1.76
3.31
4.40
5.13
5.64
6.09
6.55
7.07
7.59
8.04
8.35
8.44
8.29
7.93
7.45
6.98
6.59
6.29
6.01
5.64
5.14
4.51
3.84
3.21
2.64
2.12
1.56
0.92
0.21
-0.55
-1.31
-2.08
-2.84
-3.60
-4.37
-5.12
-5.87
-6.67
-7.56
-8.60
-9.75
-10.94
-12.03
-12.88
-13.36
-13.34
-12.76
-11.63
-9.99
-7.94
-5.63
-3.17
-0.65
1.89
4.40
6.79
8.90
10.58
11.69
12.21
12.29
12.13
11.94
11.85
11.88
11.94
11.89
11.63
11.13
10.41
9.54
8.56
7.52
6.47
5.46
4.57
3.82
3.22
2.70
2.18
1.54
0.73
-0.28
-1.44
-2.70
-3.94
-5.06
-6.00
-6.75
-7.36
-7.93
-8.54
-9.25
-10.07
-11.00
-11.98
-12.93
-13.67
-14.03
-13.83
-12.95
-11.45
-9.50
-7.31
-5.04
-2.75
-0.39
2.03
4.42
6.57
8.23
9.25
9.65
9.62
9.44
9.32
9.31
9.26
9.01
8.43
7.57
6.58
5.68
5.02
4.67
4.58
4.62
4.66
4.54
4.14
3.41
2.35
1.08
-0.24
-1.47
-2.52
-3.37
-4.04
-4.58
-5.01
-5.36
-5.71
-6.16
-6.79
-7.67
-8.74
-9.90
-10.99
-11.91
-12.62
-13.16
-13.55
-13.76
-13.74
-13.38
-12.56
-11.23
-9.40
-7.17
-4.65
-2.01
0.58
2.96
4.98
6.54
7.64
8.29
8.58
8.63
8.58
8.54
8.58
8.71
8.88
9.04
9.11
9.02
8.75
8.33
7.79
7.21
6.64
6.14
5.70
5.29
4.86
4.36
3.76
3.04
2.21
1.29
0.36
-0.50
-1.23
-1.80
-2.26
-2.71
-3.25
-3.94
-4.80
-5.80
-6.90
-8.07
-9.26
-10.32
-11.08
-11.34
-10.95
-9.94
-8.47
-6.72
-4.85
-2.92
-0.95
1.05
2.96
4.60
5.81
6.54
6.89
7.06
7.26
7.62
8.12
8.63
9.03
9.23
9.20
9.00
8.67
8.29
7.90
7.55
7.29
7.07
6.84
6.52
6.03
5.38
4.63
3.89
3.24
2.68
2.18
1.63
0.94
0.02
-1.15
-2.53
-4.02
-5.45
-6.67
-7.57
-8.22
-8.74
-9.35
-10.19
-11.24
-12.29
-13.02
-13.15
-12.52
-11.18
-9.30
-7.09
-4.69
-2.22
0.28
2.71
4.98
6.99
8.67
10.01
10.99
11.65
11.98
11.97
11.66
11.13
10.46
9.76
9.10
8.53
8.06
7.73
7.52
7.41
7.30
7.07
6.60
5.82
4.74
3.44
2.04
0.65
-0.67
-1.91
-3.11
-4.32
-5.54
-6.70
-7.73
-8.54
-9.13
-9.58
-9.97
-10.41
-10.90
-11.42
-11.98
-12.62
-13.45
-14.50
-15.69
-16.77
-17.42
-17.29
-16.24
-14.36
-11.91
-9.27
-6.74
-4.46
-2.38
-0.39
1.62
3.60
5.39
6.78
7.64
8.03
8.17
8.31
8.58
8.93
9.17
9.09
8.63
7.91
7.17
6.67
6.53
6.68
6.94
7.09
6.98
6.58
5.96
5.25
4.51
3.77
2.97
2.10
1.17
0.28
-0.45
-0.96
-1.24
-1.43
-1.69
-2.14
-2.83
-3.70
-4.67
-5.65
-6.65
-7.69
-8.81
-9.92
-10.87
-11.42
-11.35
-10.57
-9.13
-7.24
-5.17
-3.15
-1.32
0.28
1.70
2.97
4.12
5.08
5.78
6.22
6.42
6.47
6.41
6.29
6.09
5.80
5.42
5.01
4.64
4.37
4.22
4.16
4.11
3.99
3.72
3.31
2.79
2.29
1.89
1.63
1.41
1.05
0.38
-0.66
-1.93
-3.17
-4.07
-4.46
-4.38
-4.06
-3.77
-3.76
-4.13
-4.86
-5.91
-7.17
-8.56
-9.89
-10.95
-11.45
-11.17
-10.01
-8.04
-5.49
-2.76
-0.23
1.82
3.25
4.17
4.83
5.49
6.30
7.26
8.20
8.93
9.30
9.28
8.95
8.44
7.83
7.18
6.55
6.00
5.64
5.55
5.76
6.13
6.42
6.36
5.77
4.70
3.37
2.15
1.34
1.04
1.12
1.28
1.21
0.72
-0.21
-1.43
-2.75
-4.00
-5.11
-6.07
-6.92
-7.72
-8.55
-9.49
-10.60
-11.87
-13.20
-14.44
-15.40
-15.92
-15.90
-15.32
-14.18
-12.54
-10.48
-8.16
-5.77
-3.55
-1.68
-0.22
0.88
1.76
2.54
3.23
3.78
4.09
4.14
4.00
3.85
3.84
4.02
4.30
4.52
4.60
4.54
4.48
4.51
4.67
4.84
4.86
4.61
4.11
3.48
2.89
2.43
2.06
1.65
1.09
0.35
-0.46
-1.17
-1.69
-1.97
-2.12
-2.26
-2.54
-3.04
-3.77
-4.70
-5.72
-6.68
-7.37
-7.61
-7.29
-6.40
-5.10
-3.59
-2.06
-0.59
0.82
2.19
3.47
4.57
5.35
5.74
5.77
5.55
5.21
4.80
4.36
3.88
3.39
2.98
2.74
2.72
2.86
3.08
3.26
3.35
3.29
3.07
2.69
2.13
1.43
0.70
0.04
-0.42
-0.63
-0.61
-0.47
-0.35
-0.33
-0.50
-0.83
-1.30
-1.85
-2.42
-2.99
-3.55
-4.13
-4.73
-5.33
-5.86
-6.20
-6.24
-5.93
-5.27
-4.33
-3.17
-1.80
-0.16
1.81
4.07
6.48
8.79
10.75
12.22
13.21
13.88
14.47
15.22
16.27
17.65
19.26
20.92
22.37
23.46
24.17
24.68
25.35
26.54
28.43
30.93
33.66
36.12
37.99
39.29
40.37
41.83
44.09
47.32
51.33
55.73
60.28
64.95
69.88
75.03
79.96
83.80
85.50
84.43
80.51
74.07
65.32
54.05
39.74
22.33
2.85
-16.30
-32.04
-41.71
-44.16
-40.08
-31.55
-21.00
-10.34
-0.53
8.33
16.49
24.24
31.68
38.70
45.05
50.44
54.56
57.18
58.05
56.94
53.54
47.63
39.36
29.47
19.42
11.05
5.82
3.96
4.11
3.52
-0.98
-11.59
-28.50
-49.63
-71.40
-90.25
-104.15
-113.26
-119.53
-125.39
-132.39
-140.51
-148.48
-154.80
-158.57
-159.84
-159.20
-156.89
-152.28
-143.97
-130.53
-111.62
-88.76
-65.33
-45.46
-32.56
-28.14
-31.27
-39.40
-49.64
-60.12
-70.78
-83.11
-98.72
-117.82
-138.40
-156.27
-166.30
-163.93
-146.67
-115.20
-73.71
-28.63
13.37
47.16
70.43
83.65
89.35
90.78
90.73
90.21
89.67
89.67
91.09
94.85
100.57
107.06
112.60
115.39
112.65
103.23
88.27
70.62
53.69
38.65
25.09
11.59
-3.58
-23.64
-49.23
-77.69
-104.49
-125.33
-140.32
-151.77
-162.51
-174.55
-191.15
-212.57
-235.54
-254.78
-264.67
-263.70
-251.80
-229.47
-180.00
-100.65
-4.49
86.57
149.26
185.80
202.35
204.80
198.31
186.80
170.79
151.63
132.23
116.23
106.93
103.32
103.25
104.78
106.49
105.19
98.94
87.84
73.51
58.43
42.90
27.18
12.27
-0.26
-10.22
-17.21
-20.56
-19.72
-14.57
-7.13
0.37
6.32
10.15
11.58
11.29
10.57
10.46
11.15
11.14
8.60
2.57
-6.28
-15.93
-23.57
-26.88
-25.15
-19.57
-12.72
-7.02
-3.52
-1.66
0.09
2.96
7.09
11.36
14.08
14.02
11.03
6.03
0.49
-4.27
-7.32
-7.81
-4.77
2.60
14.27
28.81
43.49
55.27
62.37
65.16
66.00
67.86
72.63
80.15
88.53
95.36
99.05
99.44
97.41
93.93
89.32
83.11
74.69
64.03
52.09
40.64
31.50
25.62
22.57
20.60
17.35
10.72
-0.35
-15.53
-33.21
-51.04
-66.62
-78.12
-84.65
-86.34
-84.10
-79.20
-72.85
-65.92
-58.98
-52.35
-46.31
-41.12
-36.86
-33.40
-30.29
-27.00
-23.21
-19.01
-14.92
-11.64
-9.74
-9.36
-10.20
-11.62
-12.92
-13.61
-13.57
-12.98
-12.27
-11.92
-12.19
-13.11
-14.37
-15.48
-15.90
-15.29
-13.60
-11.07
-8.18
-5.35
-2.88
-0.87
0.66
1.73
2.32
2.43
2.07
1.42
0.77
0.46
0.88
2.30
4.82
8.40
12.80
17.55
21.83
24.57
24.74
21.82
16.10
8.65
0.84
-6.27
-12.21
-17.07
-21.01
-23.87
-25.03
-23.81
-19.93
-13.90
-6.84
-0.04
5.43
8.89
9.91
8.28
4.10
-1.97
-8.63
-14.31
-17.63
-18.00
-15.81
-12.31
-8.94
-6.75
-5.99
-6.14
-6.28
-5.55
-3.49
-0.17
4.01
8.50
12.85
16.78
20.10
22.65
24.26
24.87
24.76
24.50
24.85
26.32
28.97
32.36
35.75
38.56
40.51
41.77
42.59
43.11
43.08
41.97
39.19
34.46
27.98
20.41
12.73
5.86
0.47
-3.21
-5.29
-6.13
-6.12
-5.52
-4.43
-2.82
-0.62
2.08
5.09
8.09
10.78
12.92
14.42
15.32
15.73
15.77
15.62
15.42
15.39
15.72
16.54
17.84
19.48
21.24
22.99
24.72
26.51
28.39
30.22
31.56
31.81
30.43
27.24
22.49
16.83
11.04
5.86
1.77
-0.97
-2.33
-2.44
-1.61
-0.30
1.04
2.01
2.43
2.32
1.72
0.64
-1.10
-3.73
-7.37
-11.89
-16.85
-21.66
-25.64
-28.22
-29.05
-28.03
-25.40
-21.82
-18.27
-15.95
-15.85
-18.45
-23.57
-30.47
-38.06
-45.18
-50.73
-53.71
-53.33
-49.09
-40.97
-29.53
-15.85
-1.35
12.48
24.28
32.94
37.59
37.73
33.35
25.11
14.25
2.43
-8.71
-17.86
-24.17
-27.29
-27.20
-24.15
-18.55
-11.02
-2.42
6.20
13.66
18.90
21.18
20.15
16.01
9.36
1.23
-7.07
-14.23
-19.11
-21.02
-19.91
-16.36
-11.42
-6.34
-2.26
0.12
0.67
-0.09
-1.14
-1.17
1.14
6.83
16.39
29.74
46.28
65.08
84.99
104.73
122.93
138.21
149.31
155.25
155.48
150.04
139.55
125.28
108.98
92.56
77.58
64.81
53.98
44.06
33.74
22.06
8.82
-5.43
-19.74
-33.18
-45.08
-55.10
-63.10
-69.05
-73.06
-75.39
-76.45
-76.70
-76.51
-76.18
-75.94
-76.06
-76.78
-78.25
-80.40
-82.91
-85.40
-87.56
-89.23
-90.44
-91.21
-91.48
-91.05
-89.74
-87.57
-84.89
-82.19
-79.91
-78.15
-76.46
-73.95
-69.62
-62.79
-53.51
-42.52
-30.98
-19.97
-10.09
-1.35
6.61
14.11
21.17
27.44
32.49
36.05
38.18
39.20
39.42
39.04
38.05
36.40
34.05
31.13
27.88
24.57
21.46
18.70
16.33
14.26
12.31
10.28
8.07
5.72
3.47
1.62
0.39
-0.18
-0.30
-0.33
-0.63
-1.42
-2.70
-4.39
-6.36
-8.54
-10.89
-13.32
-15.66
-17.63
-19.03
-19.81
-20.14
-20.33
-20.74
-21.62
-23.00
-24.77
-26.76
-28.90
-31.21
-33.84
-36.88
-40.41
-44.41
-48.82
-53.51
-58.08
-61.64
-62.81
-60.08
-52.38
-39.69
-23.17
-4.77
13.46
30.09
44.55
56.86
67.07
74.95
80.00
81.79
80.34
76.22
70.35
63.62
56.61
49.53
42.36
35.10
27.81
20.74
14.11
8.11
2.76
-2.07
-6.55
-10.79
-14.75
-18.22
-20.90
-22.57
-23.21
-23.03
-22.37
-21.52
-20.66
-19.77
-18.71
-17.33
-15.62
-13.74
-12.01
-10.71
-9.98
-9.67
-9.37
-8.59
-6.95
-4.35
-0.97
2.78
6.49
9.89
12.87
15.50
17.89
20.16
22.38
24.65
27.03
29.63
32.50
35.59
38.75
41.69
44.08
45.67
46.29
45.92
44.63
42.53
39.66
36.08
31.89
27.30
22.68
18.41
14.81
12.00
9.88
8.19
6.66
5.13
3.56
2.02
0.52
-0.96
-2.48
-4.06
-5.61
-6.95
-7.96
-8.64
-9.17
-9.88
-11.05
-12.75
-14.76
-16.60
-17.76
-17.85
-16.83
-14.94
-12.59
-10.23
-8.11
-6.29
-4.62
-2.89
-0.98
1.01
2.86
4.24
4.97
5.06
4.76
4.41
4.28
4.40
4.58
4.55
4.16
3.48
2.79
2.39
2.44
2.83
3.28
3.52
3.42
3.02
2.45
1.83
1.18
0.47
-0.34
-1.25
-2.22
-3.25
-4.36
-5.56
-6.86
-8.17
-9.34
-10.26
-10.89
-11.29
-11.59
-11.91
-12.33
-12.83
-13.32
-13.69
-13.77
-13.45
-12.69
-11.50
-9.97
-8.20
-6.25
-4.16
-1.91
0.39
2.56
4.33
5.40
5.61
4.98
3.74
2.28
1.02
0.32
0.35
1.07
2.26
3.55
4.56
5.04
5.01
4.69
4.36
4.29
4.50
4.84
5.00
4.71
3.78
2.23
0.16
-2.28
-4.96
-7.81
-10.78
-13.84
-16.93
-20.03
-23.06
-25.95
-28.58
-30.79
-32.36
-33.06
-32.65
-30.99
-28.10
-24.17
-19.57
-14.71
-9.90
-5.28
-0.77
3.76
8.38
12.99
17.31
20.90
23.38
24.60
24.74
24.38
24.30
25.28
27.76
31.68
36.38
40.86
44.07
45.26
44.20
41.10
36.40
30.47
23.48
15.39
6.12
-4.22
-15.33
-26.70
-37.78
-47.95
-56.57
-62.88
-66.09
-65.60
-61.29
-53.74
-44.08
-33.73
-23.81
-14.92
-7.06
0.07
6.73
12.85
18.05
21.79
23.62
23.37
21.19
17.55
13.11
8.66
4.87
2.21
0.83
0.55
1.05
1.97
3.10
4.33
5.60
6.83
7.88
8.64
9.10
9.37
9.65
10.06
10.55
10.95
11.04
10.74
10.10
9.37
8.78
8.46
8.37
8.34
8.15
7.64
6.76
5.58
4.28
3.06
2.12
1.53
1.23
1.02
0.63
-0.14
-1.33
-2.75
-4.05
-4.87
-4.96
-4.29
-3.06
-1.64
-0.39
0.40
0.64
0.37
-0.22
-0.88
-1.30
-1.26
-0.65
0.42
1.64
2.56
2.82
2.26
1.02
-0.57
-2.11
-3.41
-4.45
-5.38
-6.37
-7.44
-8.48
-9.34
-9.94
-10.33
-10.62
-10.99
-11.58
-12.57
-14.22
-16.82
-20.53
-25.22
-30.30
-34.85
-37.83
-38.47
-36.44
-31.80
-24.91
-16.21
-6.21
4.49
15.14
24.88
32.90
38.66
41.99
43.02
42.00
39.16
34.65
28.67
21.66
14.29
7.39
1.68
-2.42
-4.88
-6.03
-6.30
-6.09
-5.69
-5.21
-4.70
-4.15
-3.55
-2.81
-1.88
-0.65
0.93
2.83
4.95
7.12
9.13
10.80
11.97
12.58
12.72
12.61
12.53
12.73
13.29
14.09
14.81
15.10
14.71
13.57
11.85
9.83
7.84
6.07
4.55
3.10
1.43
-0.69
-3.34
-6.35
-9.38
-12.06
-14.14
-15.63
-16.74
-17.81
-19.21
-21.18
-23.84
-27.15
-30.89
-34.56
-37.45
-38.69
-37.60
-33.82
-27.56
-19.43
-10.22
-0.58
9.10
18.66
27.97
36.67
44.11
49.48
52.06
51.53
48.12
42.58
35.88
28.99
22.55
16.80
11.64
6.79
1.99
-2.82
-7.53
-11.88
-15.61
-18.52
-20.57
-21.85
-22.47
-22.55
-22.13
-21.26
-20.02
-18.64
-17.42
-16.67
-16.52
-16.90
-17.56
-18.28
-18.97
-19.78
-20.87
-22.28
-23.84
-25.15
-25.80
-25.57
-24.45
-22.67
-20.47
-18.00
-15.27
-12.20
-8.74
-4.96
-1.06
2.61
5.72
7.98
9.27
9.64
9.31
8.67
8.14
8.19
9.16
11.12
13.83
16.75
19.20
20.69
21.11
20.76
20.15
19.77
19.84
20.27
20.79
21.18
21.32
21.23
20.85
20.08
18.79
16.94
14.67
12.30
10.15
8.40
7.02
5.80
4.42
2.67
0.46
-2.06
-4.65
-6.98
-8.83
-10.14
-11.01
-11.67
-12.34
-13.08
-13.79
-14.27
-14.37
-13.97
-13.06
-11.65
-9.73
-7.31
-4.46
-1.42
1.51
4.00
5.88
7.15
8.01
8.68
9.34
10.01
10.59
10.94
10.94
10.57
9.93
9.17
8.42
7.75
7.18
6.68
6.25
5.87
5.54
5.17
4.62
3.78
2.63
1.28
-0.07
-1.23
-2.17
-3.02
-3.95
-5.12
-6.53
-8.00
-9.29
-10.16
-10.55
-10.56
-10.43
-10.50
-11.09
-12.36
-14.24
-16.39
-18.27
-19.33
-19.19
-17.75
-15.23
-12.13
-8.98
-6.23
-4.10
-2.54
-1.31
-0.13
1.20
2.73
4.36
5.94
7.38
8.64
9.71
10.57
11.16
11.45
11.46
11.34
11.26
11.37
11.67
12.03
12.23
12.06
11.44
10.37
9.01
7.56
6.29
5.43
5.09
5.20
5.47
5.52
5.02
3.88
2.27
0.51
-1.05
-2.21
-2.94
-3.35
-3.58
-3.77
-4.06
-4.58
-5.48
-6.85
-8.64
-10.59
-12.36
-13.56
-13.98
-13.61
-12.61
-11.27
-9.84
-8.49
-7.28
-6.18
-5.18
-4.27
-3.46
-2.81
-2.34
-2.08
-2.02
-2.12
-2.28
-2.36
-2.25
-1.94
-1.49
-1.06
-0.80
-0.77
-0.96
-1.25
-1.59
-1.97
-2.44
-3.08
-3.91
-4.85
-5.81
-6.74
-7.64
-8.61
-9.71
-10.95
-12.23
-13.46
-14.59
-15.71
-16.94
-18.49
-20.50
-22.98
-25.86
-28.96
-32.05
-34.86
-37.20
-38.91
-39.92
-40.15
-39.47
-37.63
-34.30
-29.23
-22.39
-14.16
-5.19
3.64
11.60
18.21
23.30
26.96
29.34
30.61
30.90
30.41
29.43
28.31
27.36
26.74
26.40
26.16
25.76
25.08
24.07
22.88
21.64
20.48
19.42
18.37
17.25
15.98
14.64
13.35
12.27
11.50
11.05
10.75
10.42
9.86
9.02
7.94
6.76
5.62
4.62
3.78
3.06
2.41
1.77
1.09
0.28
-0.73
-1.98
-3.39
-4.75
-5.74
-6.05
-5.49
-4.05
-1.92
0.59
3.13
5.44
7.37
8.90
10.12
11.13
12.03
12.84
13.55
14.12
14.51
14.75
14.83
14.77
14.53
14.05
13.33
12.45
11.57
10.83
10.29
9.87
9.32
8.40
6.95
5.07
3.05
1.31
0.17
-0.32
-0.36
-0.35
-0.69
-1.57
-2.92
-4.44
-5.76
-6.66
-7.10
-7.23
-7.29
-7.45
-7.81
-8.34
-9.00
-9.77
-10.61
-11.52
-12.42
-13.17
-13.59
-13.52
-12.86
-11.67
-10.10
-8.34
-6.50
-4.61
-2.61
-0.45
1.87
4.19
6.30
7.96
9.04
9.58
9.78
9.91
10.20
10.72
11.41
12.04
12.39
12.33
11.90
11.32
10.89
10.86
11.27
11.99
12.69
13.11
13.11
12.86
12.71
13.08
14.24
16.12
18.36
20.40
21.76
22.26
22.07
21.60
21.35
21.59
22.36
23.40
24.31
24.64
23.93
21.76
17.77
11.73
3.73
-5.71
-15.64
-24.87
-32.29
-37.25
-39.73
-40.27
-39.69
-38.69
-37.59
-36.32
-34.58
-32.15
-29.03
-25.53
-22.05
-18.90
-16.22
-13.94
-11.97
-10.27
-8.91
-7.96
-7.40
-7.07
-6.72
-6.11
-5.15
-3.91
-2.59
-1.43
-0.62
-0.26
-0.30
-0.60
-0.97
-1.26
-1.42
-1.49
-1.59
-1.82
-2.21
-2.69
-3.19
-3.64
-4.10
-4.64
-5.29
-6.01
-6.61
-6.96
-7.04
-7.01
-7.16
-7.75
-8.88
-10.43
-12.05
-13.32
-13.89
-13.59
-12.52
-10.93
-9.11
-7.29
-5.58
-3.95
-2.35
-0.74
0.84
2.27
3.45
4.31
4.91
5.38
5.85
6.39
6.94
7.36
7.46
7.12
6.37
5.40
4.47
3.83
3.59
3.71
3.98
4.19
4.21
4.05
3.78
3.56
3.43
3.34
3.18
2.82
2.22
1.47
0.74
0.20
-0.07
-0.12
-0.10
-0.21
-0.57
-1.19
-2.01
-2.93
-3.87
-4.84
-5.88
-7.02
-8.19
-9.25
-9.98
-10.21
-9.83
-8.83
-7.36
-5.59
-3.69
-1.81
-0.02
1.64
3.14
4.40
5.31
5.81
5.91
5.81
5.72
5.84
6.17
6.59
6.84
6.75
6.30
5.66
5.08
4.73
4.68
4.82
5.01
5.11
5.06
4.89
4.63
4.30
3.89
3.36
2.65
1.74
0.68
-0.46
-1.57
-2.58
-3.42
-4.11
-4.70
-5.28
-5.90
-6.61
-7.40
-8.29
-9.33
-10.67
-12.48
-14.88
-17.82
-21.05
-24.12
-26.61
-28.23
-29.03
-29.36
-29.69
-30.38
-31.48
-32.76
-33.80
-34.32
-34.27
-33.90
-33.63
-33.90
-35.05
-37.37
-41.13
-46.45
-53.15
-60.42
-66.77
-70.29
-69.21
-62.47
-50.07
-32.94
-12.55
9.57
32.16
54.29
75.27
94.48
111.20
124.70
134.30
139.62
140.79
138.46
133.71
127.66
121.01
113.80
105.47
95.28
82.90
68.75
53.87
39.53
26.72
15.85
6.78
-0.86
-7.45
-13.20
-18.22
-22.60
-26.55
-30.32
-34.15
-38.07
-41.84
-44.96
-46.84
-47.06
-45.51
-42.57
-38.89
-35.24
-32.23
-30.14
-28.93
-28.41
-28.36
-28.63
-29.14
-29.79
-30.40
-30.73
-30.54
-29.66
-28.08
-26.00
-23.79
-21.79
-20.24
-19.13
-18.22
-17.18
-15.78
-14.02
-12.14
-10.50
-9.40
-8.94
-8.94
-9.12
-9.18
-8.92
-8.35
-7.60
-6.80
-6.01
-5.16
-4.08
-2.65
-0.88
0.98
2.58
3.51
3.52
2.61
1.05
-0.73
-2.31
-3.35
-3.76
-3.63
-3.17
-2.59
-1.99
-1.31
-0.40
0.92
2.71
4.86
7.14
9.24
10.94
12.09
12.72
12.88
12.73
12.38
11.92
11.44
10.95
10.48
10.05
9.74
9.61
9.75
10.13
10.55
10.74
10.41
9.40
7.79
5.82
3.85
2.14
0.77
-0.39
-1.52
-2.76
-4.07
-5.26
-6.11
-6.48
-6.46
-6.33
-6.39
-6.90
-7.89
-9.17
-10.35
-10.98
-10.70
-9.41
-7.31
-4.86
-2.56
-0.76
0.51
1.56
2.82
4.67
7.13
9.93
12.60
14.74
16.16
16.89
17.12
17.04
16.86
16.81
17.22
18.49
20.97
24.86
30.13
36.66
44.48
53.89
65.41
79.42
95.58
112.61
128.27
140.05
145.90
144.89
137.43
124.83
108.77
90.68
71.62
52.45
33.90
16.54
0.47
-14.95
-30.88
-48.57
-68.72
-91.12
-114.74
-137.98
-158.89
-175.33
-185.22
-186.88
-179.59
-163.88
-141.47
-114.65
-85.49
-55.42
-25.32
3.86
30.59
52.75
68.32
76.17
76.61
71.27
62.40
52.21
42.38
34.04
27.83
23.98
22.26
22.02
22.39
22.62
22.34
21.61
20.74
19.91
18.99
17.60
15.30
11.96
7.87
3.65
-0.05
-2.83
-4.66
-5.84
-6.75
-7.66
-8.64
-9.61
-10.43
-11.06
-11.58
-12.19
-13.08
-14.28
-15.66
-17.04
-18.32
-19.57
-21.05
-22.98
-25.44
-28.26
-31.12
-33.63
-35.52
-36.72
-37.35
-37.63
-37.82
-38.07
-38.34
-38.39
-37.84
-36.31
-33.61
-29.88
-25.49
-20.92
-16.56
-12.57
-8.92
-5.48
-2.16
0.98
3.75
5.94
7.40
8.07
8.03
7.47
6.63
5.74
5.01
4.48
4.10
3.72
3.15
2.26
1.04
-0.45
-2.09
-3.75
-5.39
-7.10
-9.01
-11.21
-13.71
-16.36
-18.96
-21.31
-23.38
-25.31
-27.34
-29.67
-32.41
-35.67
-39.56
-44.21
-49.53
-54.86
-58.89
-59.82
-56.02
-46.64
-31.91
-12.99
8.49
30.93
52.96
73.38
91.00
104.62
113.30
116.78
115.61
111.06
104.66
97.68
90.77
83.99
76.95
69.19
60.43
50.71
40.42
30.14
20.36
11.31
2.84
-5.31
-13.26
-20.84
-27.50
-32.64
-35.83
-37.08
-36.78
-35.57
-34.06
-32.71
-31.75
-31.23
-31.12
-31.47
-32.40
-34.10
-36.71
-40.11
-43.81
-46.88
-48.21
-46.69
-41.49
-32.17
-18.67
-1.39
18.68
39.93
60.22
77.15
88.68
93.50
91.50
83.72
72.17
59.29
47.35
37.85
31.16
26.57
22.81
18.71
13.85
8.64
3.98
0.64
-1.20
-1.96
-2.25
-2.47
-2.54
-2.13
-1.04
0.57
2.21
3.34
3.72
3.56
3.36
3.73
5.04
7.36
10.58
14.47
18.73
22.97
26.58
28.63
27.98
23.63
15.06
2.49
-13.09
-30.12
-46.79
-61.31
-72.09
-77.82
-77.69
-71.70
-60.93
-47.40
-33.63
-21.79
-13.05
-7.38
-3.79
-1.06
1.71
4.76
7.79
10.35
12.08
12.83
12.60
11.44
9.38
6.47
2.88
-1.07
-5.04
-8.59
-11.34
-12.99
-13.42
-12.78
-11.46
-9.97
-8.79
-8.21
-8.23
-8.71
-9.44
-10.28
-11.16
-12.11
-13.14
-14.29
-15.57
-16.97
-18.42
-19.78
-20.86
-21.45
-21.41
-20.76
-19.61
-18.16
-16.55
-14.81
-12.86
-10.61
-8.08
-5.45
-3.07
-1.26
-0.24
0.08
0.02
-0.00
0.37
1.19
2.19
2.92
3.03
2.41
1.35
0.30
-0.28
-0.23
0.24
0.68
0.58
-0.33
-1.95
-3.94
-5.86
-7.46
-8.80
-10.16
-11.85
-14.12
-17.04
-20.65
-24.99
-30.06
-35.62
-40.98
-45.01
-46.36
-44.00
-37.48
-27.04
-13.38
2.59
19.94
37.68
54.69
69.67
81.32
88.63
91.13
89.00
83.07
74.55
64.80
55.06
46.17
38.40
31.45
24.71
17.71
10.45
3.43
-2.59
-7.00
-9.70
-11.09
-11.77
-12.20
-12.49
-12.44
-11.90
-10.95
-9.98
-9.53
-10.01
-11.49
-13.63
-15.84
-17.61
-18.72
-19.27
-19.69
-20.46
-21.91
-24.08
-26.69
-29.28
-31.34
-32.59
-33.06
-33.13
-33.51
-35.03
-38.43
-43.97
-51.25
-59.01
-65.29
-67.93
-65.21
-56.44
-42.13
-23.84
-3.63
16.52
35.07
51.07
64.02
73.73
80.23
83.70
84.41
82.68
78.79
73.06
65.88
57.89
49.82
42.44
36.22
31.17
26.85
22.60
17.87
12.36
6.20
-0.22
-6.35
-11.65
-15.69
-18.20
-19.09
-18.48
-16.73
-14.37
-12.02
-10.27
-9.52
-9.88
-11.14
-12.83
-14.46
-15.70
-16.46
-16.95
-17.43
-18.14
-19.11
-20.24
-21.37
-22.40
-23.34
-24.23
-25.11
-25.99
-26.82
-27.51
-27.97
-27.98
-27.21
-25.25
-21.81
-16.97
-11.17
-5.20
0.12
4.20
6.87
8.34
9.00
9.20
9.14
8.85
8.32
7.63
6.90
6.30
5.97
6.04
6.64
7.94
10.05
12.95
16.34
19.68
22.35
23.93
24.34
23.86
22.97
22.08
21.36
20.71
19.92
18.80
17.33
15.62
13.82
12.10
10.50
9.03
7.61
6.17
4.63
2.98
1.26
-0.38
-1.74
-2.64
-2.97
-2.73
-2.00
-0.86
0.65
2.49
4.64
7.01
9.47
11.89
14.14
16.08
17.59
18.53
18.85
18.57
17.90
17.09
16.38
15.87
15.52
15.13
14.57
13.74
12.71
11.57
10.38
9.11
7.72
6.14
4.39
2.61
0.93
-0.52
-1.68
-2.58
-3.33
-4.05
-4.85
-5.82
-7.04
-8.57
-10.41
-12.50
-14.73
-16.92
-18.97
-20.86
-22.63
-24.34
-26.06
-27.83
-29.66
-31.57
-33.56
-35.59
-37.48
-38.99
-39.83
-39.84
-39.07
-37.82
-36.57
-35.74
-35.72
-36.75
-38.94
-42.21
-46.09
-49.64
-51.59
-50.71
-46.36
-38.76
-28.90
-17.98
-6.80
4.53
16.38
29.01
42.15
54.82
65.71
73.72
78.31
79.47
77.46
72.60
65.24
55.98
45.77
35.80
27.17
20.48
15.66
12.08
8.90
5.50
1.70
-2.26
-5.89
-8.75
-10.62
-11.57
-11.85
-11.79
-11.67
-11.74
-12.20
-13.26
-15.13
-17.89
-21.43
-25.37
-29.17
-32.32
-34.45
-35.47
-35.54
-34.90
-33.83
-32.59
-31.42
-30.60
-30.46
-31.40
-33.70
-37.38
-41.89
-46.08
-48.32
-46.95
-40.91
-30.11
-15.49
1.36
18.77
35.43
50.56
63.73
74.63
82.92
88.28
90.55
89.90
86.71
81.48
74.61
66.44
57.36
47.85
38.54
30.07
22.89
17.16
12.70
9.10
5.84
2.48
-1.18
-5.11
-9.10
-12.85
-16.02
-18.34
-19.61
-19.73
-18.74
-16.84
-14.38
-11.87
-9.85
-8.75
-8.73
-9.59
-10.83
-11.82
-12.08
-11.39
-9.87
-7.84
-5.70
-3.76
-2.18
-1.03
-0.31
0.01
-0.02
-0.30
-0.72
-1.19
-1.62
-2.00
-2.35
-2.68
-3.05
-3.55
-4.32
-5.45
-6.93
-8.66
-10.40
-11.90
-13.04
-13.84
-14.45
-15.11
-15.95
-16.95
-17.96
-18.77
-19.28
-19.58
-19.91
-20.57
-21.69
-23.14
-24.52
-25.32
-25.08
-23.56
-20.88
-17.36
-13.45
-9.50
-5.69
-2.04
1.54
5.09
8.49
11.51
13.87
15.41
16.14
16.26
16.04
15.69
15.30
14.88
14.44
14.02
13.71
13.59
13.66
13.82
13.86
13.60
12.90
11.77
10.37
8.97
7.82
7.05
6.61
6.30
5.81
4.89
3.49
1.73
-0.11
-1.75
-3.04
-3.95
-4.61
-5.22
-5.97
-6.98
-8.28
-9.78
-11.30
-12.70
-13.80
-14.48
-14.64
-14.22
-13.24
-11.83
-10.20
-8.54
-6.97
-5.49
-3.93
-2.12
-0.02
2.25
4.36
6.00
6.98
7.34
7.35
7.32
7.47
7.82
8.21
8.44
8.38
8.08
7.75
7.61
7.80
8.26
8.77
9.03
8.82
8.11
7.05
5.85
4.72
3.71
2.79
1.85
0.85
-0.19
-1.16
-1.93
-2.45
-2.75
-3.01
-3.48
-4.36
-5.74
-7.48
-9.29
-10.81
-11.75
-12.02
-11.71
-11.03
-10.14
-9.09
-7.76
-6.00
-3.73
-1.07
1.72
4.27
6.25
7.49
8.07
8.26
8.40
8.77
9.46
10.35
11.22
11.81
12.01
11.84
11.41
10.85
10.26
9.68
9.14
8.67
8.31
8.07
7.88
7.62
7.17
6.45
5.49
4.41
3.32
2.31
1.40
0.55
-0.34
-1.29
-2.33
-3.42
-4.50
-5.57
-6.64
-7.75
-8.89
-10.02
-11.06
-11.97
-12.68
-13.18
-13.44
-13.39
-12.92
-11.97
-10.51
-8.63
-6.48
-4.26
-2.10
-0.11
1.64
3.10
4.25
5.09
5.64
6.00
6.25
6.46
6.65
6.73
6.62
6.27
5.67
4.93
4.16
3.48
2.92
2.43
1.90
1.21
0.30
-0.78
-1.89
-2.90
-3.77
-4.53
-5.32
-6.25
-7.41
-8.81
-10.35
-11.85
-13.12
-13.93
-14.13
-13.64
-12.58
-11.16
-9.74
-8.66
-8.19
-8.44
-9.37
-10.74
-12.23
-13.49
-14.24
-14.37
-13.96
-13.23
-12.51
-12.05
-11.97
-12.18
-12.43
-12.38
-11.72
-10.29
-8.18
-5.63
-3.03
-0.71
1.12
2.44
3.29
3.74
3.75
3.15
1.80
-0.36
-3.24
-6.58
-10.06
-13.42
-16.49
-19.22
-21.73
-24.30
-27.36
-31.49
-37.18
-44.57
-53.21
-61.90
-68.90
-72.23
-70.28
-62.20
-48.09
-28.98
-6.56
17.13
40.00
60.18
76.29
87.59
93.98
95.85
94.01
89.51
83.53
77.33
71.95
67.97
65.18
62.64
58.97
53.01
44.35
33.52
21.79
10.57
0.78
-7.38
-14.30
-20.48
-26.13
-30.93
-34.14
-35.04
-33.34
-29.42
-24.25
-18.93
-14.27
-10.45
-7.07
-3.47
0.79
5.63
10.50
14.66
17.59
19.21
19.86
20.08
20.31
20.67
20.98
20.91
20.23
19.01
17.71
17.09
17.96
20.87
25.84
32.26
39.13
45.50
50.99
56.02
61.68
69.17
79.22
91.63
105.25
118.28
128.82
135.26
136.58
132.53
123.61
110.97
96.13
80.63
65.54
51.37
38.13
25.81
14.66
5.20
-2.09
-7.35
-11.52
-16.16
-22.69
-31.68
-42.46
-53.48
-63.13
-70.54
-75.99
-80.61
-85.65
-91.72
-98.41
-104.59
-108.92
-110.61
-109.61
-106.69
-103.16
-100.57
-100.34
-103.43
-109.99
-119.18
-129.14
-137.44
-141.63
-139.97
-131.85
-117.93
-99.85
-79.68
-59.31
-40.00
-22.17
-5.45
10.88
27.36
43.92
59.71
73.21
82.74
86.96
85.35
78.42
67.58
54.78
42.02
30.87
22.28
16.43
12.96
11.15
10.25
9.61
8.77
7.53
5.85
3.92
2.05
0.53
-0.43
-0.83
-0.87
-0.84
-0.98
-1.32
-1.74
-2.00
-1.96
-1.71
-1.54
-1.78
-2.62
-3.94
-5.43
-6.76
-7.82
-8.78
-9.96
-11.64
-13.82
-16.21
-18.40
-20.05
-21.14
-21.95
-22.87
-24.26
-26.22
-28.57
-30.94
-32.94
-34.32
-35.04
-35.27
-35.25
-35.29
-35.66
-36.58
-38.27
-40.82
-44.12
-47.74
-50.89
-52.61
-52.02
-48.75
-43.03
-35.70
-27.82
-20.25
-13.29
-6.66
0.28
8.05
16.74
25.81
34.31
41.22
45.87
48.13
48.35
47.17
45.23
43.00
40.77
38.65
36.70
34.93
33.33
31.82
30.30
28.62
26.72
24.60
22.33
20.01
17.73
15.49
13.30
11.11
8.90
6.68
4.52
2.62
1.22
0.52
0.56
1.17
2.02
2.79
3.31
3.67
4.08
4.78
5.84
7.15
8.45
9.51
10.17
10.48
10.57
10.60
10.73
11.02
11.47
12.04
12.62
13.14
13.52
13.76
13.89
14.01
14.12
14.18
14.05
13.54
12.53
11.08
9.38
7.72
6.36
5.37
4.60
3.85
2.94
1.85
0.69
-0.36
-1.23
-1.93
-2.54
-3.13
-3.69
-4.16
-4.55
-4.92
-5.40
-6.09
-7.00
-8.02
-8.95
-9.57
-9.69
-9.20
-8.10
-6.50
-4.66
-2.85
-1.31
-0.06
1.06
2.33
3.93
5.81
7.67
9.02
9.51
9.05
7.94
6.73
5.95
5.93
6.65
7.78
8.89
9.63
9.88
9.78
9.60
9.60
9.88
10.35
10.81
11.07
11.04
10.74
10.28
9.78
9.27
8.71
8.00
7.05
5.79
4.22
2.40
0.39
-1.71
-3.81
-5.82
-7.71
-9.48
-11.13
-12.63
-13.89
-14.78
-15.17
-14.97
-14.21
-13.00
-11.50
-9.89
-8.24
-6.57
-4.83
-2.99
-1.05
0.94
2.87
4.58
5.95
6.89
7.39
7.56
7.53
7.45
7.40
7.37
7.27
6.96
6.38
5.58
4.74
4.10
3.87
4.12
4.75
5.50
6.06
6.22
5.87
5.08
4.01
2.87
1.81
0.92
0.18
-0.45
-1.04
-1.63
-2.20
-2.72
-3.17
-3.58
-4.06
-4.76
-5.79
-7.15
-8.73
-10.28
-11.55
-12.33
-12.53
-12.15
-11.28
-9.99
-8.35
-6.45
-4.35
-2.16
0.01
2.09
4.04
5.82
7.39
8.68
9.64
10.32
10.84
11.39
12.11
13.03
14.06
15.02
15.75
16.22
16.51
16.74
16.96
17.16
17.26
17.25
17.14
17.01
16.90
16.77
16.48
15.83
14.67
12.93
10.67
8.05
5.25
2.43
-0.31
-2.87
-5.23
-7.41
-9.45
-11.44
-13.41
-15.39
-17.37
-19.35
-21.37
-23.47
-25.67
-27.87
-29.88
-31.41
-32.19
-32.05
-31.06
-29.44
-27.61
-25.99
-24.96
-24.68
-25.10
-25.92
-26.72
-27.11
-26.88
-26.14
-25.36
-25.21
-26.38
-29.25
-33.53
-38.13
-41.20
-40.56
-34.35
-21.69
-3.18
19.13
42.15
62.68
78.22
87.59
91.03
89.78
85.44
79.43
72.73
65.93
59.50
53.94
49.76
47.27
46.36
46.41
46.47
45.60
43.33
39.73
35.36
30.97
27.15
24.16
21.95
20.34
19.06
17.77
15.96
12.84
7.59
-0.24
-10.30
-21.33
-31.48
-38.99
-42.88
-43.25
-41.04
-37.43
-33.33
-29.16
-25.05
-21.12
-17.72
-15.29
-14.16
-14.27
-15.19
-16.31
-17.15
-17.49
-17.42
-17.24
-17.26
-17.73
-18.72
-20.13
-21.81
-23.64
-25.66
-28.07
-31.06
-34.57
-38.18
-41.16
-42.77
-42.61
-40.84
-38.12
-35.22
-32.71
-30.75
-29.08
-27.37
-25.45
-23.47
-21.78
-20.84
-20.85
-21.72
-23.07
-24.41
-25.32
-25.64
-25.46
-25.02
-24.61
-24.41
-24.50
-24.94
-25.79
-26.98
-28.23
-28.87
-28.05
-24.99
-19.46
-11.83
-2.98
6.22
15.23
23.99
32.64
41.10
48.91
55.19
59.09
60.20
58.79
55.63
51.66
47.56
43.56
39.63
35.64
31.67
28.00
25.07
23.12
22.10
21.55
20.82
19.34
16.91
13.84
10.76
8.33
6.90
6.34
6.18
5.82
4.89
3.34
1.44
-0.45
-2.02
-3.15
-3.83
-4.11
-4.00
-3.47
-2.47
-0.96
1.07
3.62
6.60
9.88
13.16
16.13
18.48
20.07
20.99
21.50
21.90
22.31
22.53
21.95
19.62
14.52
5.93
-6.18
-20.89
-36.51
-50.92
-62.28
-69.47
-72.39
-71.67
-68.20
-62.81
-56.02
-48.34
-40.49
-33.62
-28.91
-27.08
-27.85
-29.92
-31.56
-31.64
-30.20
-28.29
-27.13
-27.30
-28.35
-29.19
-28.91
-27.45
-25.46
-23.53
-21.16
-16.46
-6.92
8.98
30.64
55.27
79.20
99.75
116.28
129.67
140.73
148.56
150.30
142.70
124.45
98.00
69.36
45.71
32.12
29.34
33.73
39.48
41.54
37.83
29.57
19.87
11.67
6.19
2.66
-0.85
-6.06
-13.51
-22.33
-30.81
-37.28
-40.90
-41.93
-41.44
-40.67
-40.46
-40.89
-41.31
-40.67
-37.95
-32.62
-24.86
-15.66
-6.48
1.16
6.33
8.99
10.03
10.67
11.76
13.22
14.03
12.88
8.93
2.29
-6.20
-15.55
-25.26
-35.30
-45.54
-54.92
-61.08
-61.02
-52.61
-36.18
-15.11
5.28
19.91
26.32
25.66
22.02
20.35
24.09
33.83
47.41
61.43
72.83
80.07
83.17
83.04
80.52
75.73
68.03
56.49
40.52
20.39
-2.60
-26.25
-48.04
-65.86
-78.49
-85.91
-89.10
-89.58
-88.87
-88.02
-87.42
-86.97
-86.39
-85.53
-84.56
-83.96
-84.20
-85.42
-87.19
-88.62
-88.82
-87.25
-84.12
-80.23
-76.68
-74.37
-73.69
-74.41
-75.88
-77.22
-77.56
-76.07
-72.08
-65.10
-54.88
-41.31
-24.35
-3.91
19.98
46.85
75.36
103.26
127.64
145.72
155.62
156.93
150.72
139.12
124.63
109.40
94.87
81.63
69.62
58.38
47.45
36.60
25.94
15.88
6.82
-0.96
-7.47
-12.82
-17.14
-20.37
-22.37
-23.07
-22.59
-21.35
-20.03
-19.31
-19.64
-21.04
-23.09
-25.10
-26.33
-26.37
-25.22
-23.33
-21.36
-19.88
-19.18
-19.10
-19.15
-18.87
-18.10
-17.24
-17.10
-18.62
-22.41
-28.47
-36.21
-44.67
-52.68
-58.95
-62.10
-60.93
-54.78
-43.90
-29.47
-13.22
3.32
19.39
35.00
50.49
65.78
79.98
91.55
98.96
101.38
99.01
92.88
84.39
74.81
65.11
55.94
47.72
40.58
34.48
29.19
24.47
20.14
16.16
12.60
9.48
6.81
4.48
2.33
0.23
-1.80
-3.66
-5.12
-5.93
-5.99
-5.41
-4.54
-3.79
-3.41
-3.34
-3.21
-2.50
-0.88
1.53
4.21
6.42
7.65
7.82
7.26
6.53
6.06
5.98
6.07
6.01
5.57
4.73
3.70
2.75
2.14
1.94
2.06
2.29
2.37
2.11
1.43
0.38
-0.82
-1.91
-2.65
-2.93
-2.82
-2.50
-2.20
-2.04
-2.07
-2.26
-2.56
-2.98
-3.60
-4.55
-5.90
-7.69
-9.87
-12.33
-14.97
-17.60
-19.98
-21.79
-22.76
-22.81
-22.14
-21.18
-20.44
-20.22
-20.38
-20.46
-19.87
-18.29
-15.92
-13.44
-11.69
-11.24
-12.16
-13.97
-15.98
-17.59
-18.57
-19.08
-19.57
-20.59
-22.66
-26.21
-31.36
-37.75
-44.36
-49.60
-51.68
-49.11
-41.26
-28.55
-12.31
5.64
23.55
40.06
54.36
66.08
75.06
81.27
84.64
85.17
82.97
78.38
72.02
64.65
57.01
49.63
42.66
35.96
29.32
22.69
16.26
10.45
5.63
1.95
-0.77
-2.94
-4.99
-7.14
-9.33
-11.28
-12.62
-13.14
-12.79
-11.68
-10.04
-8.12
-6.14
-4.29
-2.70
-1.46
-0.54
0.12
0.65
1.11
1.55
2.02
2.55
3.28
4.37
5.90
7.65
9.08
9.38
7.90
4.44
-0.53
-6.06
-11.06
-14.73
-16.81
-17.52
-17.27
-16.46
-15.34
-14.06
-12.81
-11.83
-11.35
-11.42
-11.88
-12.46
-12.94
-13.22
-13.42
-13.67
-14.15
-14.94
-16.06
-17.49
-19.18
-21.02
-22.83
-24.40
-25.52
-26.09
-26.09
-25.60
-24.71
-23.51
-22.10
-20.63
-19.27
-18.16
-17.38
-16.88
-16.56
-16.34
-16.18
-16.16
-16.44
-17.24
-18.80
-21.41
-25.20
-30.03
-35.20
-39.40
-40.92
-38.18
-30.32
-17.63
-1.43
16.27
33.53
48.94
61.80
72.03
79.79
85.33
88.88
90.71
91.07
90.09
87.71
83.61
77.44
69.06
58.74
47.14
35.18
23.70
13.31
4.33
-3.22
-9.49
-14.77
-19.46
-23.83
-27.95
-31.62
-34.36
-35.73
-35.56
-34.03
-31.63
-28.86
-26.03
-23.22
-20.37
-17.55
-14.98
-13.00
-11.81
-11.39
-11.43
-11.52
-11.38
-10.98
-10.46
-10.04
-9.94
-10.23
-10.86
-11.74
-12.72
-13.70
-14.61
-15.47
-16.33
-17.20
-17.97
-18.45
-18.42
-17.75
-16.54
-15.15
-14.08
-13.89
-15.01
-17.64
-21.69
-26.69
-31.79
-35.80
-37.54
-36.15
-31.46
-24.07
-15.02
-5.38
4.22
13.67
23.17
32.85
42.37
50.97
57.65
61.65
62.62
60.68
56.22
49.74
41.81
33.23
25.00
18.14
13.38
10.75
9.59
8.92
7.89
6.32
4.68
3.75
4.03
5.46
7.40
9.02
9.81
9.78
9.36
9.09
9.27
9.80
10.28
10.34
9.83
8.91
7.85
6.74
5.34
3.14
-0.25
-4.80
-9.83
-14.31
-17.22
-18.05
-17.06
-15.08
-13.13
-12.01
-12.06
-13.12
-14.74
-16.39
-17.59
-18.04
-17.64
-16.49
-14.88
-13.16
-11.69
-10.73
-10.30
-10.22
-10.14
-9.72
-8.75
-7.29
-5.67
-4.25
-3.30
-2.81
-2.57
-2.26
-1.70
-0.92
-0.06
0.69
1.24
1.68
2.14
2.74
3.45
4.10
4.43
4.17
3.28
1.90
0.33
-1.09
-2.22
-3.13
-4.08
-5.34
-7.01
-8.92
-10.76
-12.20
-13.10
-13.59
-13.98
-14.59
-15.58
-16.86
-18.12
-19.00
-19.20
-18.60
-17.25
-15.36
-13.15
-10.81
-8.47
-6.16
-3.88
-1.56
0.84
3.28
5.58
7.47
8.63
8.82
8.05
6.56
4.82
3.38
2.72
3.15
4.83
7.67
11.42
15.69
19.98
23.83
26.92
29.09
30.33
30.74
30.43
29.50
28.11
26.52
24.97
23.70
22.71
21.77
20.52
18.58
15.76
12.17
8.11
3.92
-0.19
-4.21
-8.35
-12.99
-18.62
-25.73
-34.69
-45.45
-57.23
-68.40
-76.77
-80.28
-77.71
-69.21
-56.21
-40.75
-24.70
-9.15
5.69
19.97
33.74
46.59
57.70
66.24
71.64
73.77
72.90
69.53
64.33
58.08
51.62
45.65
40.62
36.62
33.39
30.53
27.74
24.94
22.22
19.74
17.55
15.58
13.66
11.63
9.44
7.16
4.89
2.69
0.51
-1.79
-4.33
-7.09
-9.88
-12.37
-14.29
-15.55
-16.32
-16.96
-17.76
-18.83
-20.04
-21.09
-21.68
-21.61
-20.93
-19.82
-18.47
-17.02
-15.48
-13.77
-11.79
-9.53
-7.15
-4.95
-3.32
-2.62
-3.09
-4.70
-7.18
-9.99
-12.54
-14.28
-14.93
-14.53
-13.39
-11.99
-10.74
-9.85
-9.31
-9.02
-8.85
-8.77
-8.89
-9.31
-10.08
-11.12
-12.23
-13.15
-13.71
-13.85
-13.66
-13.40
-13.34
-13.62
-14.24
-15.04
-15.80
-16.37
-16.77
-17.15
-17.74
-18.75
-20.25
-22.23
-24.60
-27.29
-30.24
-33.36
-36.43
-39.00
-40.43
-40.00
-37.09
-31.35
-22.70
-11.34
2.33
17.72
34.01
50.09
64.61
76.10
83.38
85.86
83.74
77.97
69.90
60.91
52.06
43.96
36.86
30.77
25.62
21.31
17.74
14.69
11.95
9.36
6.89
4.55
2.39
0.40
-1.49
-3.30
-5.03
-6.65
-8.14
-9.58
-11.05
-12.55
-13.87
-14.73
-14.86
-14.31
-13.41
-12.74
-12.81
-13.87
-15.74
-17.93
-19.83
-20.92
-20.92
-19.83
-17.97
-15.81
-13.83
-12.32
-11.28
-10.42
-9.31
-7.65
-5.43
-3.00
-0.92
0.30
0.42
-0.41
-1.74
-3.08
-4.12
-4.85
-5.51
-6.44
-7.89
-9.99
-12.81
-16.37
-20.64
-25.22
-29.21
-31.32
-30.31
-25.66
-17.98
-8.75
0.33
8.21
14.85
21.00
27.34
33.85
39.56
43.10
43.48
40.66
35.60
29.73
24.27
19.80
16.24
13.18
10.19
7.08
3.80
0.39
-3.20
-7.03
-11.04
-14.94
-18.17
-20.12
-20.29
-18.61
-15.39
-11.23
-6.79
-2.58
1.05
3.94
6.00
7.26
7.81
7.81
7.39
6.54
5.13
2.97
0.01
-3.56
-7.29
-10.65
-13.21
-14.82
-15.53
-15.50
-14.85
-13.63
-11.91
-9.87
-7.88
-6.39
-5.80
-6.27
-7.57
-9.23
-10.72
-11.69
-12.19
-12.60
-13.52
-15.50
-18.86
-23.56
-29.07
-34.52
-38.73
-40.46
-38.60
-32.51
-22.11
-8.07
8.36
25.64
42.19
56.78
68.61
77.25
82.54
84.47
83.10
78.68
71.73
63.12
53.95
45.32
38.06
32.49
28.47
25.54
23.16
20.96
18.73
16.45
14.17
11.91
9.70
7.59
5.68
4.09
2.92
2.16
1.68
1.28
0.69
-0.24
-1.59
-3.28
-5.15
-6.95
-8.45
-9.54
-10.31
-11.07
-12.17
-13.89
-16.25
-18.96
-21.60
-23.77
-25.30
-26.25
-26.83
-27.18
-27.35
-27.22
-26.67
-25.61
-24.07
-22.13
-19.84
-17.22
-14.29
-11.17
-8.06
-5.26
-3.04
-1.55
-0.69
-0.22
0.21
0.89
1.95
3.33
4.75
5.87
6.41
6.24
5.43
4.22
2.97
1.98
1.43
1.30
1.30
0.93
-0.41
-3.28
-7.87
-13.86
-20.42
-26.48
-31.17
-34.16
-35.81
-36.80
-37.73
-38.64
-38.94
-37.69
-34.00
-27.40
-17.97
-6.21
7.08
20.82
33.68
44.12
50.70
52.55
49.75
43.37
35.11
26.57
18.70
11.67
5.20
-0.91
-6.34
-10.38
-12.34
-12.02
-9.96
-7.20
-4.78
-3.25
-2.58
-2.29
-1.85
-1.02
0.13
1.28
2.17
2.68
2.90
3.01
3.18
3.49
3.88
4.20
4.25
3.93
3.27
2.45
1.73
1.35
1.40
1.76
2.18
2.35
2.07
1.29
0.11
-1.26
-2.61
-3.76
-4.64
-5.27
-5.77
-6.26
-6.90
-7.74
-8.73
-9.69
-10.37
-10.52
-10.03
-8.91
-7.33
-5.51
-3.65
-1.87
-0.20
1.38
2.86
4.23
5.43
6.40
7.08
7.48
7.64
7.65
7.61
7.60
7.69
7.88
8.09
8.19
8.00
7.45
6.56
5.48
4.45
3.68
3.24
3.08
3.03
2.93
2.66
2.19
1.51
0.64
-0.37
-1.49
-2.60
-3.57
-4.37
-5.04
-5.75
-6.64
-7.78
-9.09
-10.41
-11.60
-12.63
-13.58
-14.54
-15.54
-16.43
-16.99
-16.98
-16.30
-14.98
-13.21
-11.25
-9.29
-7.44
-5.69
-4.00
-2.36
-0.84
0.46
1.40
1.90
1.95
1.61
1.04
0.43
-0.05
-0.27
-0.23
0.02
0.35
0.66
0.91
1.11
1.31
1.49
1.57
1.40
0.85
-0.10
-1.43
-3.05
-4.89
-6.93
-9.19
-11.64
-14.21
-16.76
-19.24
-21.65
-24.09
-26.62
-29.16
-31.44
-33.06
-33.63
-32.83
-30.58
-26.99
-22.42
-17.32
-12.21
-7.52
-3.47
0.00
3.16
6.34
9.70
13.15
16.34
18.87
20.56
21.46
21.88
22.20
22.64
23.23
23.82
24.17
24.11
23.59
22.68
21.58
20.48
19.54
18.80
18.13
17.32
16.22
14.77
13.16
11.67
10.60
10.09
10.04
10.20
10.24
9.95
9.27
8.29
7.15
5.95
4.72
3.46
2.21
1.01
0.00
-0.74
-1.22
-1.55
-1.96
-2.65
-3.73
-5.10
-6.57
-7.83
-8.63
-8.79
-8.27
-7.12
-5.44
-3.37
-1.10
1.17
3.25
4.99
6.33
7.28
7.93
8.37
8.69
8.91
9.01
8.99
8.83
8.56
8.24
7.91
7.59
7.27
6.86
6.34
5.68
4.94
4.18
3.47
2.82
2.23
1.69
1.23
0.87
0.63
0.46
0.24
-0.17
-0.88
-1.87
-3.00
-4.05
-4.85
-5.34
-5.63
-5.95
-6.55
-7.60
-9.06
-10.69
-12.11
-12.95
-12.95
-12.06
-10.40
-8.25
-5.95
-3.77
-1.88
-0.24
1.28
2.82
4.42
5.97
7.26
8.12
8.56
8.72
8.85
9.11
9.52
9.97
10.31
10.43
10.32
10.02
9.60
9.09
8.49
7.79
6.99
6.12
5.22
4.33
3.48
2.69
1.97
1.31
0.69
0.11
-0.44
-0.97
-1.47
-1.97
-2.55
-3.26
-4.11
-5.07
-6.08
-7.12
-8.20
-9.36
-10.63
-11.96
-13.22
-14.20
-14.72
-14.68
-14.14
-13.22
-12.12
-10.94
-9.71
-8.34
-6.78
-4.98
-3.00
-0.94
1.02
2.74
4.11
5.10
5.77
6.20
6.49
6.69
6.85
6.98
7.10
7.20
7.30
7.43
7.59
7.79
7.96
8.01
7.83
7.33
6.48
5.39
4.25
3.28
2.61
2.19
1.88
1.45
0.74
-0.22
-1.28
-2.25
-2.98
-3.48
-3.89
-4.37
-5.02
-5.83
-6.72
-7.57
-8.37
-9.16
-9.97
-10.80
-11.52
-11.94
-11.85
-11.14
-9.81
-7.96
-5.78
-3.41
-1.03
1.19
3.12
4.60
5.58
6.08
6.25
6.30
6.46
6.88
7.59
8.49
9.38
10.04
10.34
10.28
9.98
9.59
9.24
8.98
8.74
8.41
7.91
7.19
6.27
5.24
4.19
3.22
2.40
1.72
1.16
0.67
0.17
-0.40
-1.10
-1.96
-2.98
-4.10
-5.24
-6.28
-7.14
-7.81
-8.36
-8.86
-9.35
-9.73
-9.82
-9.40
-8.33
-6.60
-4.32
-1.63
1.26
4.18
6.97
9.43
11.45
12.98
14.18
15.32
16.70
18.46
20.47
22.39
23.83
24.59
24.77
24.74
25.04
26.10
28.15
31.07
34.43
37.50
39.41
39.31
36.64
31.37
24.11
16.01
8.36
2.18
-2.20
-5.16
-7.51
-10.07
-13.25
-16.90
-20.51
-23.52
-25.61
-26.85
-27.59
-28.25
-29.07
-30.06
-31.03
-31.73
-31.96
-31.65
-30.86
-29.73
-28.44
-27.07
-25.61
-23.96
-22.04
-19.92
-17.83
-16.16
-15.26
-15.25
-15.96
-17.04
-18.15
-19.14
-20.09
-21.19
-22.57
-24.18
-25.93
-27.88
-30.33
-33.71
-38.14
-43.11
-47.39
-49.40
-47.84
-42.15
-32.64
-20.23
-5.95
9.34
24.97
40.27
54.38
66.32
75.26
80.81
83.13
82.70
80.09
75.72
69.84
62.68
54.46
45.42
35.81
25.92
16.15
6.98
-0.97
-7.29
-11.87
-15.03
-17.36
-19.53
-21.95
-24.65
-27.33
-29.51
-30.76
-30.84
-29.78
-27.88
-25.58
-23.30
-21.34
-19.75
-18.41
-17.18
-16.03
-15.09
-14.56
-14.57
-15.04
-15.66
-16.08
-16.05
-15.61
-15.00
-14.63
-14.82
-15.68
-17.09
-18.73
-20.31
-21.61
-22.67
-23.65
-24.94
-26.96
-30.17
-34.81
-40.70
-47.07
-52.54
-55.46
-54.33
-48.38
-37.76
-23.46
-6.92
10.35
27.14
42.55
55.95
66.92
75.20
80.70
83.50
83.70
81.38
76.53
69.26
59.96
49.45
38.91
29.58
22.41
17.76
15.43
14.81
15.14
15.80
16.30
16.38
15.91
14.88
13.42
11.83
10.47
9.66
9.54
10.02
10.79
11.42
11.53
10.87
9.35
6.99
3.91
0.32
-3.56
-7.44
-11.09
-14.37
-17.26
-19.84
-22.21
-24.35
-26.09
-27.21
-27.60
-27.45
-27.24
-27.61
-28.98
-31.34
-34.09
-36.43
-37.68
-37.67
-36.77
-35.66
-34.93
-34.76
-34.86
-34.68
-33.75
-31.96
-29.69
-27.72
-26.96
-28.15
-31.50
-36.55
-42.08
-46.36
-47.52
-44.09
-35.37
-21.66
-4.07
15.79
36.27
55.94
73.71
88.83
100.80
109.25
113.97
114.83
111.94
105.60
96.37
85.07
72.68
60.18
48.41
37.85
28.68
20.75
13.80
7.55
1.77
-3.69
-8.90
-13.91
-18.69
-23.06
-26.76
-29.55
-31.28
-32.04
-32.11
-31.87
-31.67
-31.69
-31.92
-32.17
-32.16
-31.62
-30.34
-28.24
-25.37
-21.95
-18.31
-14.82
-11.77
-9.29
-7.37
-5.90
-4.74
-3.77
-2.91
-2.05
-1.12
-0.06
1.04
2.06
2.84
3.26
3.35
3.27
3.18
3.19
3.24
3.20
2.94
2.39
1.62
0.79
0.06
-0.46
-0.77
-0.93
-1.04
-1.16
-1.34
-1.59
-1.87
-2.18
-2.50
-2.84
-3.22
-3.62
-4.01
-4.26
-4.24
-3.80
-2.85
-1.35
0.67
3.15
5.99
9.03
12.10
14.92
17.25
18.82
19.49
19.21
18.06
16.27
14.19
12.23
10.85
10.35
10.86
12.20
14.05
16.02
17.87
19.57
21.33
23.45
26.11
29.19
32.14
34.07
33.91
30.84
24.56
15.55
4.91
-5.99
-16.00
-24.58
-31.92
-38.68
-45.54
-52.82
-60.26
-67.14
-72.66
-76.40
-78.46
-79.56
-80.80
-83.32
-88.08
-95.55
-105.46
-116.46
-126.07
-131.05
-128.19
-115.46
-92.75
-62.10
-27.00
8.61
41.46
69.64
92.45
109.97
122.50
130.35
133.85
133.35
129.20
121.82
111.75
99.63
86.07
71.33
55.28
37.52
17.89
-3.07
-23.55
-40.73
-51.72
-54.74
-49.76
-38.28
-22.48
-4.56
12.94
27.79
38.60
44.97
47.43
47.34
46.72
47.60
51.35
56.94
62.78
68.16
73.63
80.04
87.61
95.75
103.57
110.57
114.95
116.08
115.00
113.41
111.60
107.48
97.60
78.75
49.06
5.80
-51.35
-118.97
-190.19
-257.21
-313.34
-353.90
-376.43
-364.17
-310.49
-225.81
-133.34
-53.64
4.13
40.35
59.97
69.03
72.68
71.51
65.12
54.06
40.73
27.75
16.73
8.41
3.09
0.78
-1.13
-3.12
-5.26
-6.60
-6.44
-4.98
-2.85
-0.22
3.36
7.40
11.67
16.19
21.52
27.96
35.19
42.38
48.31
51.19
48.11
36.64
16.19
-10.85
-39.87
-66.03
-85.90
-98.46
-104.79
-106.77
-105.28
-99.79
-89.03
-72.64
-52.55
-32.37
-15.80
-4.79
1.31
5.05
8.84
13.27
16.62
15.27
6.36
-10.24
-31.26
-50.88
-62.74
-62.37
-48.81
-24.51
3.80
28.28
41.33
37.40
14.68
-23.72
-69.85
-112.57
-139.59
-144.45
-125.48
-87.31
-39.12
8.58
47.11
71.70
82.18
83.90
80.81
79.41
85.02
100.27
124.46
153.81
183.07
207.50
226.41
236.75
240.20
239.80
238.79
239.34
241.92
245.03
231.03
213.20
183.76
140.07
83.77
21.49
-36.88
-81.27
-104.42
-103.90
-80.43
-43.82
-5.04
24.06
35.96
29.33
6.95
-26.37
-64.68
-100.32
-132.48
-158.78
-177.72
-189.13
-194.18
-194.94
-193.79
-189.13
-179.86
-167.74
-153.37
-137.60
-121.42
-106.08
-92.82
-82.28
-74.22
-67.64
-62.22
-56.77
-50.36
-42.50
-33.15
-22.67
-11.63
-0.59
9.65
18.02
24.16
28.22
30.87
33.08
35.80
39.63
44.67
50.23
55.34
59.22
61.39
61.81
60.74
58.61
55.88
52.95
50.06
47.46
45.42
44.07
43.36
43.05
42.77
42.17
40.96
38.88
35.79
31.73
26.86
21.53
16.13
10.92
5.95
1.12
-3.69
-8.39
-12.62
-15.90
-17.93
-18.80
-18.99
-19.17
-19.83
-21.12
-22.86
-24.69
-26.27
-27.35
-27.73
-27.19
-25.53
-22.64
-18.72
-14.27
-10.02
-6.63
-4.42
-3.29
-2.67
-1.85
-0.22
2.41
5.78
9.23
12.03
13.65
13.99
13.40
12.52
12.02
12.30
13.44
15.17
17.00
18.49
19.36
19.67
19.70
19.86
20.48
21.58
22.91
24.02
24.56
24.54
24.36
24.70
26.15
28.89
32.59
36.61
40.32
43.31
45.54
47.02
47.68
47.24
45.49
42.61
39.29
36.55
35.35
36.15
38.88
43.12
48.30
53.75
58.36
60.26
56.94
45.93
26.12
-1.13
-31.68
-59.38
-77.86
-82.47
-71.90
-48.77
-19.04
9.66
30.13
37.66
30.98
12.01
-15.46
-47.63
-81.96
-117.45
-153.88
-190.34
-224.16
-250.88
-265.34
-263.42
-243.63
-207.86
-161.07
-109.99
-61.42
-20.53
10.33
31.91
47.29
60.42
74.40
90.20
106.45
120.12
128.02
128.07
120.02
105.16
85.52
63.09
39.74
17.58
-0.72
-12.23
-14.76
-7.90
6.43
24.59
42.66
57.86
69.40
78.11
85.47
92.49
99.19
104.80
108.47
109.85
109.20
107.19
104.37
100.91
96.69
91.43
85.04
77.77
70.09
62.43
54.87
47.16
38.95
30.30
21.86
14.79
10.21
8.63
9.90
13.49
19.18
27.28
38.24
51.74
65.67
75.86
76.67
62.75
31.16
-16.88
-75.64
-136.16
-188.88
-226.59
-246.73
-251.97
-249.02
-246.05
-249.72
-262.84
-283.56
-306.15
-323.11
-327.45
-314.63
-283.67
-237.21
-180.78
-121.38
-65.89
-19.60
14.77
37.38
50.86
59.27
66.58
75.35
86.09
97.70
108.52
117.41
124.34
130.08
135.40
140.41
144.46
146.59
146.20
143.23
137.90
130.26
120.03
107.00
91.69
75.73
61.42
50.65
43.73
39.07
33.87
25.51
12.98
-2.75
-19.39
-34.59
-47.04
-56.59
-63.61
-68.31
-70.53
-70.11
-67.35
-63.13
-58.23
-52.38
-43.87
-30.23
-9.86
16.48
45.38
71.89
91.61
102.32
104.44
100.23
92.22
82.19
71.00
59.12
47.37
37.44
31.64
32.04
39.43
52.41
67.05
77.58
78.16
65.02
38.16
1.58
-38.60
-76.82
-110.53
-140.39
-168.36
-194.78
-216.50
-227.77
-223.24
-201.61
-167.06
-127.80
-92.18
-64.95
-45.62
-29.78
-12.35
9.16
33.15
54.85
68.62
70.70
60.83
42.22
20.23
0.23
-14.31
-22.85
-27.42
-31.16
-36.52
-44.14
-53.00
-61.77
-70.22
-79.65
-91.92
-107.60
-124.56
-138.05
-142.34
-133.01
-108.66
-71.24
-25.02
24.92
73.87
117.86
153.68
178.98
192.66
195.45
189.96
179.97
168.96
158.89
149.72
139.92
127.56
111.19
90.47
66.25
40.25
14.78
-7.71
-25.27
-36.99
-43.18
-45.22
-44.88
-43.60
-42.12
-40.59
-39.00
-37.67
-37.15
-37.86
-39.53
-41.11
-41.21
-38.76
-33.69
-27.02
-20.59
-16.35
-15.60
-18.49
-24.09
-30.65
-36.25
-39.46
-39.79
-37.97
-36.01
-36.84
-43.44
-57.61
-78.64
-102.93
-124.67
-137.73
-137.76
-123.46
-96.67
-61.39
-22.50
15.25
47.68
71.65
85.46
89.30
85.20
76.24
65.38
54.48
44.10
34.35
25.90
20.32
19.47
24.43
34.83
48.66
63.20
75.80
84.50
88.29
87.09
81.58
73.05
63.17
53.73
46.36
42.13
41.23
42.74
44.80
45.18
42.16
35.23
25.34
14.40
4.22
-4.63
-13.24
-23.93
-38.95
-59.04
-82.35
-104.40
-119.11
-120.75
-105.87
-74.94
-32.72
12.91
53.16
81.05
93.42
91.44
79.63
63.82
49.12
38.77
33.98
34.54
39.59
48.00
58.20
67.76
73.42
71.68
60.29
39.50
12.47
-15.75
-40.02
-56.81
-64.86
-64.52
-56.73
-41.84
-19.58
10.03
45.57
83.77
120.24
150.92
173.45
187.34
193.59
193.78
189.28
181.17
170.66
159.37
149.18
141.36
135.32
128.87
119.21
104.27
83.88
60.16
36.78
17.85
6.59
3.73
9.12
22.67
44.29
72.74
104.56
134.37
156.56
167.50
165.12
151.74
133.57
117.54
107.43
101.95
95.79
82.45
57.21
15.51
-42.06
-109.06
-175.53
-232.52
-275.51
-305.13
-325.74
-343.19
-366.85
-401.95
-446.65
-493.53
-534.20
-563.24
-579.59
-585.74
-557.44
-484.07
-374.78
-253.82
-143.27
-52.96
16.69
68.09
103.97
127.24
136.93
132.18
117.60
99.22
81.95
68.79
61.25
60.20
65.98
74.67
82.39
87.55
92.48
98.06
104.05
109.44
113.30
115.33
113.87
108.50
100.74
92.72
85.42
78.33
69.97
59.13
45.56
28.95
9.93
-9.70
-27.54
-41.48
-50.09
-53.19
-52.01
-48.83
-46.43
-46.57
-48.92
-51.38
-51.34
-46.95
-38.36
-27.49
-17.06
-9.17
-4.39
-1.61
1.09
5.18
10.82
16.49
19.87
18.82
12.60
2.49
-8.46
-16.67
-19.65
-17.12
-11.70
-7.26
-7.48
-14.11
-26.12
-39.94
-50.89
-54.95
-49.67
-35.84
-15.51
7.50
27.92
39.70
37.83
20.55
-8.86
-41.11
-66.30
-74.59
-62.54
-34.93
-2.45
23.85
37.63
39.02
34.27
27.21
22.19
19.22
14.94
5.97
-7.82
-22.86
-34.02
-35.58
-28.81
-12.95
10.27
37.11
63.46
87.35
109.61
120.08
135.92
156.64
186.91
229.01
280.64
335.15
384.30
420.78
439.52
440.51
399.85
313.27
197.56
80.86
-16.31
-88.60
-139.80
-175.05
-195.85
-205.17
-201.28
-185.82
-165.14
-147.91
-140.61
-144.72
-156.65
-168.47
-172.97
-160.45
-126.08
-73.10
-12.30
42.34
78.67
90.05
77.15
46.01
8.21
-25.62
-49.52
-62.85
-67.94
-67.26
-62.05
-53.08
-40.67
-25.37
-9.15
5.12
14.86
19.28
19.65
18.32
16.82
16.28
17.63
21.47
27.87
35.41
42.12
46.70
49.11
49.42
48.28
46.03
42.31
36.06
24.81
7.26
-14.81
-36.91
-55.50
-68.28
-74.87
-76.29
-74.02
-72.06
-74.35
-82.54
-89.09
-89.94
-82.71
-66.59
-42.38
-12.98
12.87
24.37
13.42
-22.33
-80.72
-154.20
-230.97
-297.60
-324.62
-293.96
-215.22
-119.59
-35.67
23.18
58.20
77.67
90.17
100.54
106.34
103.38
91.25
74.71
59.93
51.34
50.30
55.63
64.84
72.91
75.71
71.90
62.69
49.32
32.62
13.81
-4.64
-19.76
-30.28
-35.34
-33.86
-24.47
-7.01
16.56
42.35
65.75
82.23
88.70
85.45
76.46
67.84
65.19
71.30
85.62
105.30
125.13
139.28
143.25
134.85
114.90
86.76
54.98
23.83
-3.47
-26.27
-44.99
-60.66
-71.84
-76.91
-75.76
-70.67
-69.95
-74.59
-82.54
-90.40
-90.32
-77.52
-50.72
-11.87
35.16
86.35
139.39
192.07
242.23
287.24
323.37
346.84
355.00
347.23
325.19
292.84
254.26
213.23
172.86
134.84
99.74
67.22
36.34
6.08
-23.85
-53.58
-82.83
-111.14
-138.47
-165.23
-192.29
-220.72
-251.27
-283.72
-316.83
-348.39
-375.65
-395.98
-407.14
-407.25
-394.80
-369.27
-331.96
-286.89
-240.46
-199.77
-170.41
-154.61
-151.09
-156.61
-167.96
-183.10
-200.58
-217.90
-230.55
-233.19
-222.39
-199.07
-168.52
-137.85
-112.23
-92.77
-77.13
-62.21
-46.99
-33.57
-25.74
-26.65
-37.04
-55.13
-77.85
-102.13
-125.29
-144.75
-157.73
-161.71
-155.56
-140.37
-119.15
-95.57
-72.42
-50.80
-30.30
-9.90
11.01
32.24
53.08
72.85
91.32
108.85
126.12
143.79
162.29
181.84
202.60
224.72
248.00
271.40
292.81
309.34
318.18
317.64
307.74
290.13
267.31
241.67
214.89
188.00
161.82
137.50
116.60
100.67
90.59
86.00
85.19
85.58
84.51
80.13
72.04
61.39
50.45
41.60
36.42
35.05
36.29
38.22
39.16
38.25
35.73
32.47
29.41
27.07
25.41
24.08
22.74
21.41
20.45
20.30
21.17
22.75
24.24
24.63
23.09
19.36
13.90
7.81
2.39
-1.32
-2.97
-2.93
-2.03
-1.17
-0.80
-0.90
-1.05
-0.87
-0.26
0.40
0.58
-0.18
-1.94
-4.28
-6.55
-7.94
-8.01
-6.82
-4.84
-2.59
-0.46
1.38
3.01
4.42
5.71
6.82
7.67
8.19
8.44
8.66
9.09
9.88
10.95
12.37
14.02
15.60
16.82
17.57
18.02
18.30
18.48
18.28
18.16
18.47
19.20
19.99
20.57
20.91
20.98
21.09
21.46
24.27
31.14
42.13
55.45
68.59
79.57
86.96
90.98
92.22
94.51
100.69
110.91
122.67
132.87
139.97
143.72
146.36
149.99
159.88
179.12
206.96
239.21
271.26
300.45
325.16
345.80
335.77
279.44
180.44
61.84
-49.43
-135.93
-186.88
-211.05
-217.76
-215.60
-207.60
-194.99
-178.92
-160.95
-142.60
-124.32
-106.88
-89.57
-72.72
-54.86
-36.96
-23.81
-22.76
-39.36
-73.18
-117.65
-161.10
-193.44
-208.54
-208.13
-200.19
-194.28
-196.01
-204.37
-213.75
-216.97
-210.10
-192.98
-169.33
-144.40
-122.93
-107.28
-97.35
-91.78
-88.56
-86.14
-83.41
-79.60
-74.23
-67.00
-57.85
-47.09
-35.58
-24.57
-15.54
-9.70
-7.50
-8.32
-10.65
-12.61
-12.73
-10.62
-7.15
-4.08
-3.17
-5.17
-9.28
-13.46
-15.28
-13.12
-6.77
2.64
13.39
23.98
33.63
42.14
49.49
55.51
59.76
61.82
61.61
59.44
55.91
51.65
47.10
42.40
37.56
32.63
27.89
24.01
22.02
23.11
28.10
36.85
47.67
57.49
62.60
60.04
48.76
30.24
7.89
-14.24
-32.92
-46.64
-55.64
-61.19
-64.62
-66.71
-67.70
-67.61
-66.64
-65.40
-64.49
-64.21
-64.32
-64.22
-63.73
-63.79
-66.65
-75.10
-90.88
-113.09
-137.57
-157.81
-167.20
-161.42
-139.93
-105.73
-63.91
-19.78
22.28
59.01
88.04
107.84
118.09
120.38
118.05
115.18
114.91
118.13
123.37
127.93
129.56
127.59
123.14
118.16
114.26
111.92
110.41
108.22
103.87
96.35
85.39
71.49
55.87
40.24
26.60
16.88
12.64
14.71
22.91
35.92
51.33
66.06
77.10
82.28
80.77
73.02
60.30
44.04
25.51
5.85
-13.65
-31.42
-45.73
-55.26
-59.49
-58.98
-55.19
-50.12
-45.87
-44.27
-46.53
-52.90
-62.57
-73.85
-84.60
-93.01
-97.98
-99.28
-97.18
-92.10
-84.39
-74.37
-62.67
-50.24
-38.24
-27.68
-19.08
-12.29
-6.63
-1.26
4.51
10.98
17.96
24.82
30.65
34.52
35.77
34.33
30.77
26.31
22.48
20.66
21.53
24.81
29.34
33.49
35.80
35.58
33.01
28.99
24.62
20.69
17.54
15.21
13.72
13.24
14.18
16.98
22.23
30.71
42.98
58.64
75.41
88.54
91.10
75.85
37.59
-23.65
-101.26
-182.95
-254.00
-301.61
-318.81
-306.18
-270.66
-223.12
-173.60
-128.77
-91.14
-60.22
-34.35
-11.96
8.57
30.17
55.67
88.48
130.19
179.28
231.39
281.01
323.36
355.51
376.73
384.72
377.77
354.18
314.12
261.43
203.90
151.52
113.37
95.45
95.59
107.86
123.67
135.04
137.01
128.49
111.27
81.62
51.31
19.21
-15.32
-52.67
-92.04
-131.43
-168.43
-201.24
-229.14
-251.42
-270.37
-286.84
-301.11
-312.23
-317.94
-315.30
-301.81
-276.48
-239.81
-196.44
-151.04
-108.34
-71.24
-40.58
-15.99
2.72
15.23
21.24
19.47
10.67
-3.16
-18.56
-31.80
-40.56
-44.89
-46.47
-47.78
-51.99
-60.88
-74.97
-92.72
-110.86
-125.41
-132.98
-130.93
-118.47
-97.32
-64.67
-23.75
17.28
50.64
73.29
86.31
92.88
97.88
103.95
113.52
129.62
154.50
188.38
229.07
267.45
295.37
306.92
299.79
266.67
210.32
142.45
77.58
25.26
-12.49
-37.69
-53.36
-62.06
-65.47
-64.09
-59.21
-52.97
-47.76
-45.17
-44.94
-45.70
-46.11
-45.27
-42.17
-37.14
-31.67
-27.60
-26.09
-26.72
-28.10
-28.96
-28.59
-26.59
-23.85
-22.12
-23.20
-27.85
-35.53
-43.92
-50.49
-53.22
-50.84
-43.59
-32.98
-21.09
-9.64
0.42
8.88
15.83
21.50
26.54
31.78
38.03
45.45
53.04
58.69
60.14
56.28
48.22
39.11
32.51
30.59
32.99
37.39
41.33
43.80
45.58
48.18
52.15
56.00
56.72
51.34
38.86
21.44
3.85
-8.45
-11.83
-5.94
6.09
19.11
28.01
29.55
23.25
11.12
-3.57
-17.68
-29.10
-37.11
-41.92
-44.17
-44.47
-43.34
-41.45
-39.63
-38.59
-38.38
-38.05
-36.05
-30.93
-22.38
-11.54
-0.60
8.15
13.31
14.76
13.35
10.21
6.35
2.67
0.24
0.38
4.17
11.69
21.56
31.09
37.39
38.60
34.60
26.91
17.75
8.94
1.35
-4.98
-10.20
-14.20
-16.56
-16.87
-15.29
-12.50
-9.57
-7.35
-6.25
-6.24
-7.18
-9.06
-12.00
-15.96
-20.46
-24.55
-27.21
-27.88
-26.85
-25.19
-24.26
-24.98
-27.39
-30.64
-33.52
-35.10
-35.27
-34.80
-34.80
-36.09
-38.36
-40.31
-40.18
-36.69
-29.81
-20.89
-12.07
-5.25
-1.35
0.03
-0.21
-1.51
-4.17
-9.08
-16.79
-26.58
-36.24
-42.91
-43.75
-37.77
-26.07
-11.29
3.60
16.39
26.25
33.70
39.45
45.53
53.06
62.56
73.89
86.22
98.14
107.74
113.00
111.03
102.01
85.99
64.08
38.16
10.38
-17.49
-44.68
-71.71
-101.81
-134.21
-168.31
-200.87
-226.12
-237.13
-228.19
-197.35
-147.87
-90.46
-33.86
11.03
36.63
40.06
22.91
-10.49
-54.78
-88.95
-125.16
-154.76
-171.85
-172.07
-154.56
-122.89
-84.20
-46.37
-14.77
7.20
24.88
42.69
63.59
87.30
110.60
129.13
139.52
140.65
131.91
118.12
102.83
89.32
80.12
76.84
80.19
89.84
104.55
120.96
137.61
151.90
161.84
166.52
166.16
161.97
155.57
148.38
140.72
133.63
127.50
122.88
120.23
119.19
117.86
112.48
98.05
69.61
24.84
-34.83
-103.40
-171.16
-226.95
-261.30
-269.20
-251.61
-214.95
-168.92
-123.60
-86.79
-62.68
-51.88
-52.19
-59.87
-70.60
-80.30
-85.76
-85.25
-78.81
-68.09
-55.69
-44.21
-35.43
-29.88
-26.85
-24.82
-22.07
-17.22
-9.66
0.21
11.17
21.64
30.21
36.15
39.53
41.02
41.51
41.66
41.72
41.53
40.73
38.81
35.43
30.42
24.06
17.11
10.75
6.28
4.68
6.23
10.39
16.03
21.81
26.71
30.26
32.47
33.51
33.30
31.33
26.88
19.62
9.95
-0.77
-10.71
-18.28
-22.71
-24.25
-23.73
-22.05
-19.78
-17.25
-14.89
-13.41
-13.65
-15.97
-19.82
-23.70
-25.84
-25.02
-21.19
-15.41
-9.17
-3.64
0.88
4.80
8.82
13.21
17.55
20.80
21.81
19.88
15.13
8.58
1.74
-3.85
-7.15
-7.85
-6.34
-3.55
-0.44
2.21
4.04
5.18
6.19
7.92
11.31
17.07
25.33
35.45
45.90
54.65
59.75
60.01
55.54
47.80
39.14
31.96
27.90
27.29
29.16
31.73
33.16
32.11
28.13
21.55
13.21
4.06
-5.01
-13.34
-20.33
-25.48
-28.39
-28.92
-27.30
-24.22
-20.65
-17.53
-15.44
-14.35
-13.65
-12.45
-10.07
-6.39
-2.04
1.95
4.61
5.52
5.01
3.91
3.10
3.00
3.50
4.05
4.12
3.52
2.43
1.27
0.49
0.26
0.54
1.10
1.58
1.62
0.94
-0.57
-2.70
-4.95
-6.79
-7.85
-8.14
-8.08
-8.18
-8.81
-9.94
-11.33
-12.70
-14.07
-15.79
-18.38
-22.23
-27.40
-33.56
-40.13
-46.48
-52.02
-56.19
-58.38
-58.01
-54.69
-48.51
-40.15
-30.82
-21.92
-14.55
-9.27
-5.92
-3.78
-1.96
0.29
3.34
7.12
11.21
15.04
18.09
20.07
21.00
21.15
20.88
20.45
19.87
18.94
17.35
14.90
11.62
7.81
3.92
0.34
-2.67
-5.04
-6.74
-7.63
-7.48
-6.06
-3.42
-0.02
3.35
5.75
6.57
5.66
3.47
0.74
-1.84
-3.86
-5.24
-6.13
-6.76
-7.35
-8.11
-9.27
-11.06
-13.67
-16.97
-20.50
-23.52
-25.25
-25.28
-23.63
-20.72
-17.23
-13.81
-10.75
-7.91
-4.88
-1.22
3.13
7.81
12.28
15.93
18.34
19.55
20.11
20.85
22.46
25.11
28.44
32.06
35.35
37.73
38.99
39.60
40.32
41.75
43.87
45.93
47.49
47.68
45.35
39.75
31.26
21.23
11.44
3.28
-2.45
-4.50
-2.84
1.14
5.57
9.41
12.84
16.72
22.08
29.84
42.18
59.84
81.37
103.56
122.94
136.56
142.29
139.07
117.82
78.42
30.94
-10.93
-39.98
-56.31
-63.31
-64.41
-62.22
-58.61
-53.60
-48.24
-44.02
-42.33
-43.12
-45.12
-46.94
-48.12
-49.27
-50.48
-53.84
-60.86
-73.16
-90.76
-111.27
-130.18
-141.98
-141.84
-123.68
-91.41
-53.11
-18.12
6.85
19.83
23.15
21.21
17.91
15.49
13.62
11.75
9.85
8.88
10.17
14.32
20.68
27.65
33.67
37.74
40.10
42.13
45.59
51.81
60.92
71.48
80.73
85.52
83.23
73.36
57.61
39.32
22.27
9.40
1.90
-0.87
-0.82
-0.14
-0.09
-0.76
-1.37
-0.99
0.84
3.76
6.84
9.15
10.18
10.16
9.80
9.70
10.03
10.38
10.05
8.57
5.97
2.81
-0.18
-2.48
-4.06
-5.25
-6.52
-8.20
-10.39
-13.07
-16.22
-19.85
-23.92
-28.24
-32.47
-36.25
-39.37
-41.93
-44.20
-46.39
-48.38
-49.60
-49.37
-47.17
-43.16
-38.21
-33.64
-30.62
-29.60
-29.98
-30.33
-29.01
-24.94
-18.17
-9.91
-1.96
4.11
7.75
9.82
12.27
17.40
27.10
42.09
61.62
83.56
104.72
121.46
130.42
129.28
117.27
95.41
66.22
33.09
-0.51
-31.68
-58.37
-79.34
-93.85
-101.48
-102.15
-96.31
-85.31
-71.35
-57.20
-45.44
-37.60
-33.70
-32.46
-32.07
-31.22
-29.83
-29.04
-30.47
-35.27
-43.32
-53.23
-62.74
-69.42
-71.48
-68.29
-60.68
-50.51
-39.91
-30.48
-22.69
-16.05
-9.88
-4.00
1.07
4.63
6.92
9.65
15.34
25.79
40.49
56.36
69.02
75.00
73.35
66.26
57.86
52.09
50.88
53.82
59.22
65.29
70.96
75.09
76.68
74.94
69.58
61.30
52.05
44.89
42.92
47.61
56.83
66.24
71.14
68.44
57.43
39.55
17.36
-6.64
-30.78
-55.25
-79.82
-102.99
-122.36
-136.37
-145.22
-150.37
-153.17
-146.67
-126.34
-93.53
-55.56
-20.65
5.58
20.81
25.93
24.19
20.63
16.22
10.82
4.67
-1.35
-6.46
-10.24
-12.13
-11.40
-7.57
-1.54
5.49
13.07
21.40
30.57
39.93
48.72
56.31
62.04
64.17
61.39
54.61
47.25
43.40
45.59
54.39
68.34
84.52
98.93
102.54
89.69
63.03
31.38
2.18
-21.95
-42.19
-60.84
-80.43
-103.30
-129.15
-154.10
-172.83
-181.36
-177.43
-161.07
-134.33
-101.10
-62.12
-24.76
4.08
25.14
40.60
51.52
54.87
50.46
40.63
29.38
20.64
17.55
20.44
25.98
30.04
30.23
27.53
25.18
26.40
32.29
42.33
54.53
65.65
73.10
75.85
74.63
71.33
67.58
64.11
61.62
60.92
61.74
62.96
62.59
58.97
52.36
44.62
38.32
35.90
38.85
46.29
56.19
66.01
67.03
54.00
28.33
-3.46
-35.82
-66.91
-97.98
-129.98
-163.30
-195.38
-221.01
-235.05
-234.69
-220.66
-191.18
-149.27
-99.33
-46.09
5.84
52.17
87.88
108.01
108.99
90.97
58.25
19.31
-16.06
-39.97
-48.25
-41.48
-23.47
-0.79
19.60
32.37
36.43
34.71
32.31
33.83
41.05
53.63
68.30
80.96
88.45
90.38
88.50
85.11
81.96
80.46
83.82
94.16
111.55
133.33
154.90
171.03
177.31
171.51
143.33
93.96
35.40
-16.99
-54.65
-77.68
-90.36
-97.49
-103.16
-110.33
-119.33
-130.40
-143.60
-156.42
-164.81
-164.28
-152.07
-128.85
-98.24
-62.61
-30.02
-6.02
8.70
17.18
23.28
30.22
35.94
37.03
31.62
19.55
3.62
-11.69
-22.14
-25.22
-21.16
-12.73
-3.48
3.92
7.99
9.81
11.66
15.44
21.63
29.07
35.68
40.09
42.30
43.26
44.53
47.16
51.05
55.18
58.29
59.51
59.15
58.63
59.84
64.37
72.13
80.64
85.84
83.78
72.76
54.56
33.84
15.93
4.35
-0.80
-2.53
-4.80
-10.13
-18.25
-26.54
-31.87
-32.46
-28.72
-22.65
-16.49
-11.41
-7.29
-3.33
0.99
5.19
7.99
8.17
5.48
1.11
-2.77
-3.98
-1.47
4.16
10.89
16.14
17.93
15.66
10.22
3.54
-2.34
-6.04
-7.23
-6.64
-5.62
-5.68
-8.14
-13.91
-23.32
-35.81
-49.88
-62.93
-71.78
-73.53
-66.70
-52.10
-32.94
-13.79
0.95
8.68
9.26
4.62
-2.43
-9.43
-15.09
-19.15
-21.92
-23.64
-24.28
-23.72
-22.09
-19.98
-18.25
-17.73
-18.75
-21.02
-23.73
-25.94
-27.07
-27.12
-26.74
-26.76
-27.78
-29.78
-32.18
-34.04
-34.61
-33.62
-31.20
-27.74
-23.49
-18.46
-12.47
-5.37
2.71
11.26
19.41
26.13
30.41
31.60
29.56
24.73
18.02
10.58
3.50
-2.40
-6.66
-9.20
-10.11
-9.66
-8.12
-5.71
-2.62
0.86
4.21
6.73
7.65
6.44
3.04
-2.03
-7.79
-13.21
-17.62
-21.08
-24.22
-27.85
-32.34
-37.31
-41.58
-43.66
-42.50
-38.18
-32.09
-26.52
-23.90
-26.25
-35.18
-51.75
-75.94
-105.85
-137.17
-163.59
-178.28
-176.39
-157.23
-125.47
-89.19
-56.30
-31.09
-13.19
0.81
14.66
29.95
45.50
57.95
64.28
64.01
59.62
54.65
51.41
50.22
50.24
51.02
52.39
54.50
57.31
59.97
60.14
54.46
40.30
17.45
-6.09
-20.19
-19.11
-5.79
12.46
29.87
43.92
54.33
61.71
66.53
68.09
65.52
59.09
50.62
42.39
35.83
31.05
27.29
22.82
15.89
4.90
-10.28
-27.80
-44.29
-55.94
-59.63
-54.04
-40.41
-23.02
-7.23
3.04
6.85
6.04
3.94
3.76
7.55
17.53
31.79
45.71
55.20
58.93
57.93
53.94
48.38
42.14
35.85
29.98
25.45
23.98
26.97
34.33
43.75
50.89
50.85
40.28
19.70
-7.43
-34.57
-54.91
-64.46
-63.49
-55.71
-46.07
-38.31
-33.79
-31.60
-29.78
-26.96
-23.21
-19.67
-17.58
-17.48
-19.03
-21.42
-23.76
-25.45
-26.28
-26.40
-26.24
-26.17
-26.29
-26.32
-25.78
-24.33
-21.98
-19.27
-17.12
-16.34
-17.07
-18.65
-19.78
-19.10
-15.87
-10.26
-3.30
3.47
8.77
12.05
13.79
15.16
17.43
21.30
26.51
32.00
36.31
38.39
37.97
35.63
32.49
29.63
27.64
26.54
25.93
25.30
24.30
22.85
21.07
19.16
17.26
15.39
13.44
11.24
8.73
5.91
3.02
0.41
-1.67
-3.17
-4.40
-5.96
-8.47
-12.31
-17.38
-23.21
-29.04
-34.08
-37.56
-38.78
-37.25
-32.93
-26.42
-18.94
-12.03
-6.93
-4.18
-3.45
-3.98
-5.02
-6.23
-7.53
-8.80
-9.58
-9.14
-6.84
-2.53
3.30
9.75
16.02
21.67
26.67
31.20
35.34
38.89
41.41
42.46
41.83
39.78
37.00
34.35
32.55
31.83
31.87
31.99
31.61
30.50
28.90
27.18
25.53
23.88
21.98
19.69
17.12
14.56
12.24
10.14
8.07
5.79
3.28
0.79
-1.31
-2.66
-3.01
-2.31
-0.69
1.50
3.67
5.06
5.01
3.35
0.55
-2.41
-4.53
-5.34
-5.21
-5.15
-6.15
-8.64
-12.13
-15.55
-17.85
-18.57
-17.97
-16.72
-15.31
-13.75
-11.62
-8.49
-4.40
0.00
3.70
5.81
6.00
4.63
2.54
0.67
-0.32
-0.29
0.45
1.26
1.58
1.18
0.26
-0.65
-1.04
-0.68
0.19
1.07
1.40
0.94
-0.20
-1.54
-2.57
-2.93
-2.51
-1.39
0.27
2.31
4.53
6.60
8.02
8.25
6.88
4.00
0.13
-3.86
-7.20
-9.56
-11.25
-12.97
-15.40
-18.85
-23.02
-27.22
-30.70
-32.92
-33.74
-33.20
-31.45
-28.61
-24.79
-20.21
-15.30
-10.53
-6.26
-2.58
0.77
4.22
8.07
12.22
16.14
19.07
20.38
19.95
18.28
16.31
15.05
15.08
16.39
18.47
20.58
22.16
23.08
23.54
23.93
24.49
25.21
25.83
25.99
25.47
24.17
22.19
19.68
16.88
14.02
11.34
8.93
6.80
4.77
2.68
0.47
-1.86
-4.26
-6.80
-9.58
-12.71
-16.07
-19.36
-22.13
-24.11
-25.37
-26.38
-27.69
-29.70
-32.34
-35.06
-37.10
-37.79
-36.84
-34.33
-30.65
-26.21
-21.38
-16.32
-11.16
-6.07
-1.29
2.90
6.39
9.26
11.74
14.02
16.13
17.95
19.30
20.19
20.85
21.59
22.63
23.94
25.29
26.41
27.13
27.41
27.25
26.63
25.56
24.14
22.67
21.43
20.58
19.89
18.93
17.27
14.89
12.24
10.03
8.85
8.73
9.23
9.58
9.20
7.89
5.80
3.23
0.40
-2.67
-6.06
-9.82
-13.94
-18.32
-22.87
-27.47
-31.92
-36.00
-39.37
-41.75
-42.95
-42.86
-41.48
-38.83
-34.97
-30.04
-24.41
-18.57
-13.05
-8.24
-4.30
-1.17
1.29
3.18
4.53
5.37
5.83
6.21
6.83
7.95
9.67
11.82
14.07
16.13
17.76
18.91
19.64
20.04
20.14
19.88
19.17
17.97
16.39
14.72
13.27
12.22
11.48
10.64
9.19
6.76
3.38
-0.51
-4.20
-7.10
-8.97
-9.98
-10.65
-11.50
-12.90
-14.93
-17.49
-20.35
-23.23
-25.75
-27.45
-27.86
-26.69
-23.99
-20.22
-16.09
-12.27
-9.11
-6.48
-3.94
-1.00
2.70
7.16
12.09
16.97
21.20
24.21
25.69
25.69
24.67
23.34
22.28
21.79
21.74
21.76
21.59
21.23
20.95
21.08
21.74
22.71
23.51
23.60
22.63
20.62
17.86
14.79
11.79
9.01
6.41
3.83
1.10
-1.79
-4.73
-7.58
-10.24
-12.72
-15.15
-17.57
-19.95
-22.17
-24.19
-26.06
-27.93
-29.90
-31.95
-33.88
-35.44
-36.38
-36.51
-35.66
-33.75
-30.75
-26.85
-22.39
-17.80
-13.39
-9.15
-4.81
-0.02
5.32
10.87
15.84
19.34
20.91
20.77
19.80
19.09
19.40
20.72
22.36
23.30
22.83
20.89
18.06
15.15
12.80
11.19
10.16
9.50
9.19
9.36
10.13
11.39
12.70
13.54
13.49
12.50
10.83
8.92
7.12
5.59
4.18
2.60
0.54
-2.14
-5.30
-8.52
-11.31
-13.27
-14.34
-14.81
-15.17
-15.87
-17.16
-18.99
-21.08
-22.98
-24.26
-24.52
-23.42
-20.79
-16.60
-11.19
-5.17
0.61
5.32
8.48
10.11
10.75
11.18
12.15
14.03
16.64
19.36
21.42
22.24
21.66
19.98
17.78
15.58
13.72
12.20
10.87
9.58
8.27
7.05
6.00
5.14
4.30
3.28
1.90
0.09
-2.15
-4.77
-7.77
-11.03
-14.41
-17.64
-20.39
-22.37
-23.35
-23.18
-21.80
-19.33
-16.12
-12.80
-10.07
-8.53
-8.25
-8.70
-8.90
-7.93
-5.45
-1.87
1.78
4.41
5.44
5.09
4.20
3.84
4.75
7.08
10.48
14.36
18.23
21.75
24.72
26.94
28.24
28.53
27.91
26.66
25.24
24.07
23.46
23.47
23.91
24.53
25.08
25.40
25.44
25.22
24.88
24.46
23.82
22.62
20.50
17.32
13.35
9.21
5.66
3.46
2.86
3.28
3.56
2.51
-0.49
-5.28
-11.08
-16.88
-21.51
-24.39
-25.97
-27.69
-31.38
-38.53
-49.91
-65.33
-83.26
-100.06
-110.91
-111.40
-99.16
-74.72
-41.51
-5.24
27.58
51.69
65.51
70.70
70.79
69.38
69.45
72.77
79.59
88.31
90.98
81.00
57.82
28.04
-0.18
-21.66
-35.09
-41.83
-44.69
-46.34
-47.49
-47.69
-46.60
-44.97
-43.91
-44.65
-46.17
-46.77
-44.60
-38.00
-26.86
-13.28
-1.20
5.74
5.92
0.37
-8.21
-16.62
-22.09
-23.52
-20.53
-14.90
-8.94
-4.21
-0.93
1.52
3.95
6.67
9.05
9.68
6.95
0.37
-8.91
-18.41
-25.52
-28.52
-27.13
-22.36
-15.81
-8.97
-2.48
3.74
9.97
16.03
21.19
24.52
25.46
24.23
21.57
18.46
15.60
13.14
10.80
8.34
5.92
4.16
3.97
5.95
10.02
15.27
20.10
22.83
22.30
18.44
12.24
5.42
-0.33
-4.01
-5.56
-5.74
-5.54
-5.68
-6.33
-7.24
-8.11
-8.91
-9.87
-11.20
-12.91
-14.61
-15.82
-16.29
-16.20
-16.06
-16.37
-17.38
-18.96
-20.83
-22.76
-24.71
-26.69
-28.60
-30.00
-30.34
-29.06
-25.99
-21.35
-15.64
-9.42
-3.20
2.61
7.64
11.56
14.26
15.93
17.13
18.52
20.48
22.91
25.30
26.99
27.58
27.06
25.75
24.01
22.04
19.87
17.55
15.35
13.69
12.91
13.02
13.59
13.89
13.24
11.38
8.48
5.11
1.83
-0.95
-3.14
-4.89
-6.46
-8.05
-9.75
-11.47
-13.11
-14.60
-16.01
-17.51
-19.32
-21.59
-24.30
-27.26
-30.18
-32.77
-34.80
-36.10
-36.53
-35.91
-34.07
-30.88
-26.37
-20.83
-14.72
-8.64
-3.08
1.76
5.95
9.92
14.10
18.71
23.59
28.20
31.90
34.30
35.49
36.00
36.56
37.70
39.50
41.63
43.48
44.50
44.40
43.09
40.66
37.34
33.51
29.56
25.85
22.60
19.76
17.15
14.39
11.15
7.38
3.33
-0.52
-3.75
-6.00
-7.16
-7.20
-6.36
-5.23
-4.45
-4.54
-5.84
-8.59
-12.76
-18.40
-25.22
-32.97
-41.38
-49.61
-56.33
-59.86
-59.06
-53.39
-43.39
-29.75
-13.53
2.25
14.65
22.94
28.69
33.23
39.16
45.07
49.12
49.93
47.02
41.39
32.65
22.28
11.82
2.66
-4.48
-8.75
-9.70
-7.40
-2.36
4.43
11.96
19.11
25.31
30.34
34.56
38.10
40.42
40.70
38.11
32.59
24.56
15.12
5.50
-2.96
-9.41
-13.74
-16.41
-18.29
-20.17
-22.79
-26.48
-31.27
-36.77
-42.44
-47.78
-52.36
-55.96
-58.43
-59.96
-60.88
-61.68
-62.70
-64.00
-65.34
-66.17
-65.87
-63.90
-60.08
-54.57
-47.73
-40.00
-31.76
-23.38
-15.24
-7.77
-1.30
4.00
8.25
11.72
14.68
17.25
19.31
20.62
20.96
20.20
18.40
15.81
12.93
10.51
9.51
10.90
15.37
23.00
33.13
44.47
55.48
64.63
70.76
73.11
71.43
66.02
57.69
47.64
37.24
27.67
19.66
13.38
8.55
4.68
1.20
-2.33
-6.22
-10.63
-15.56
-20.85
-26.17
-31.02
-34.85
-37.10
-37.34
-35.41
-31.55
-26.43
-20.99
-16.22
-12.79
-10.70
-9.34
-7.71
-4.79
-0.05
6.34
13.45
19.76
23.54
23.46
19.13
11.49
2.72
-4.44
-7.61
-5.77
0.39
8.83
17.14
23.47
27.15
28.52
28.38
27.23
25.10
21.76
17.23
12.15
7.70
5.07
4.81
6.51
8.92
10.54
10.33
8.05
4.29
-0.00
-4.09
-7.72
-11.07
-14.47
-17.99
-21.31
-23.85
-25.18
-25.37
-25.13
-25.46
-27.11
-30.12
-33.62
-36.17
-36.39
-33.59
-28.07
-20.92
-13.43
-6.53
-0.43
5.24
10.87
16.46
21.44
24.86
25.98
24.65
21.45
17.46
13.73
10.89
9.01
7.89
7.32
7.42
8.51
10.81
14.07
17.45
19.87
20.48
19.24
17.00
15.06
14.51
15.49
17.07
17.74
16.26
12.39
7.16
2.31
-0.60
-1.10
-0.01
1.00
0.37
-2.57
-7.32
-12.71
-17.57
-21.33
-24.10
-26.22
-27.85
-28.79
-28.78
-27.89
-26.74
-26.27
-27.24
-29.75
-33.17
-36.37
-38.24
-38.10
-35.78
-31.51
-25.80
-19.25
-12.45
-5.99
-0.35
4.17
7.51
9.83
11.40
12.52
13.44
14.37
15.39
16.48
17.52
18.30
18.65
18.46
17.82
16.91
16.07
15.64
15.91
16.98
18.71
20.71
22.46
23.50
23.59
22.79
21.46
20.09
19.00
18.19
17.30
15.77
13.22
9.72
5.93
2.80
1.16
1.29
2.62
4.01
4.18
2.31
-1.58
-6.79
-12.27
-17.12
-20.91
-23.64
-25.48
-26.42
-26.25
-24.65
-21.49
-17.08
-12.14
-7.58
-4.24
-2.48
-2.15
-2.63
-3.08
-2.83
-1.56
0.57
3.12
5.57
7.58
9.04
9.92
10.21
9.82
8.75
7.32
6.16
5.99
7.19
9.50
12.05
13.67
13.48
11.29
7.64
3.46
-0.30
-3.02
-4.57
-5.20
-5.40
-5.79
-6.97
-9.37
-13.07
-17.71
-22.51
-26.57
-29.23
-30.33
-30.44
-30.59
-31.85
-34.90
-39.63
-45.15
-49.95
-52.28
-50.72
-44.61
-34.47
-22.00
-9.68
0.12
6.25
9.36
11.82
16.56
25.70
39.42
55.89
72.09
85.26
93.98
98.33
99.36
98.25
95.65
91.79
86.61
80.08
72.14
62.56
50.83
36.50
19.69
1.44
-16.36
-31.55
-42.42
-48.31
-49.66
-47.64
-43.61
-38.68
-33.53
-28.57
-24.07
-20.31
-17.61
-16.29
-16.60
-18.67
-22.59
-28.24
-35.35
-43.35
-51.42
-58.59
-63.99
-67.07
-67.77
-66.50
-63.92
-60.63
-56.95
-52.78
-47.85
-41.99
-35.36
-28.48
-21.97
-16.21
-11.17
-6.50
-1.80
3.09
8.02
12.69
16.93
20.78
24.39
27.81
30.76
32.74
33.34
32.49
30.67
28.64
27.13
26.39
26.13
25.72
24.57
22.47
19.73
17.02
15.00
13.99
13.78
13.74
13.16
11.63
9.22
6.42
3.79
1.70
0.08
-1.54
-3.74
-6.97
-11.37
-16.69
-22.50
-28.27
-33.59
-38.28
-42.47
-46.47
-50.82
-56.17
-63.13
-71.98
-82.33
-92.76
-100.67
-102.79
-96.12
-79.19
-52.87
-20.34
13.94
45.75
72.41
93.23
108.97
120.75
128.98
133.15
132.39
126.32
115.84
103.08
90.71
80.83
74.14
69.79
66.08
61.45
55.35
48.51
42.34
38.02
35.72
34.51
32.85
29.58
24.53
18.69
13.62
10.55
9.67
9.91
9.45
6.74
1.37
-5.53
-11.73
-14.91
-13.84
-8.87
-1.56
6.20
13.22
19.22
24.28
28.10
29.65
27.86
22.84
16.79
13.53
16.62
27.20
42.70
57.62
66.07
64.60
53.90
38.21
23.01
12.32
7.22
6.13
6.41
6.01
4.30
1.70
-1.29
-4.79
-9.50
-16.08
-24.41
-33.32
-40.93
-45.44
-45.74
-41.81
-34.50
-25.12
-15.07
-5.55
2.49
8.36
11.61
12.12
10.13
6.33
1.79
-2.31
-5.05
-6.28
-6.50
-6.61
-7.51
-9.63
-12.71
-15.97
-18.51
-19.87
-20.34
-20.57
-21.16
-22.39
-24.26
-26.78
-30.24
-35.16
-41.97
-50.72
-60.42
-69.07
-74.50
-75.44
-71.96
-65.37
-57.43
-49.70
-43.78
-40.00
-37.43
-34.76
-31.37
-27.49
-23.85
-21.21
-20.11
-22.23
-27.83
-35.09
-41.30
-44.87
-45.73
-44.91
-43.86
-43.78
-47.75
-56.53
-67.62
-77.34
-83.68
-86.74
-87.85
-88.70
-90.84
-98.89
-115.13
-137.59
-161.68
-183.16
-198.68
-205.72
-202.88
-169.61
-103.49
-23.17
47.27
96.59
126.25
142.69
151.76
157.03
160.30
159.50
154.91
150.51
151.90
160.35
173.08
185.01
191.08
188.12
173.25
147.98
118.07
90.56
69.94
57.50
52.15
52.14
55.50
58.31
57.47
51.83
41.75
28.05
12.12
-4.00
-17.92
-27.57
-32.78
-34.14
-32.39
-28.25
-22.55
-15.83
-8.34
-0.25
7.83
14.51
18.44
19.06
16.93
13.29
9.57
6.78
5.09
3.95
2.56
0.49
-1.98
-4.11
-5.15
-4.92
-3.95
-3.27
-3.86
-6.06
-9.44
-13.26
-17.23
-22.05
-29.43
-41.28
-58.65
-80.78
-104.92
-127.00
-142.74
-148.76
-143.34
-126.69
-100.80
-68.99
-35.31
-3.74
22.54
41.73
53.59
59.16
60.14
58.22
54.60
49.74
43.59
35.80
26.24
15.26
3.89
-6.35
-13.90
-17.68
-17.42
-13.68
-7.48
0.14
8.47
17.09
25.65
33.68
40.56
45.77
49.14
50.94
51.54
51.12
49.42
45.78
39.64
30.96
20.43
9.27
-1.21
-10.13
-17.15
-22.51
-26.77
-30.52
-34.18
-37.91
-41.67
-45.27
-48.50
-51.29
-53.67
-55.73
-57.48
-58.76
-59.30
-58.76
-56.87
-53.50
-48.60
-42.21
-34.48
-25.76
-16.59
-7.68
0.31
6.94
12.07
15.68
17.79
18.37
17.38
15.00
11.64
7.81
3.91
-0.06
-4.47
-9.78
-16.21
-23.42
-30.46
-36.18
-39.69
-40.61
-39.12
-35.56
-30.11
-22.60
-12.81
-0.89
12.25
25.01
35.65
43.00
47.01
48.61
49.08
49.27
49.24
48.35
45.99
42.05
37.16
32.34
28.37
25.43
23.08
20.64
17.66
14.25
10.91
8.23
6.47
5.41
4.50
3.17
1.26
-0.76
-1.95
-1.33
1.59
6.48
12.34
17.97
22.49
25.68
27.92
29.75
31.48
33.08
34.14
34.34
33.55
31.98
29.98
27.84
25.68
23.47
21.11
18.54
15.80
13.01
10.33
7.89
5.75
3.86
2.10
0.33
-1.54
-3.52
-5.54
-7.53
-9.40
-11.12
-12.68
-14.00
-15.01
-15.72
-16.26
-16.94
-18.03
-19.69
-21.82
-24.19
-26.59
-29.01
-31.56
-34.29
-36.96
-39.03
-39.87
-39.07
-36.71
-33.20
-29.10
-24.76
-20.22
-15.35
-10.06
-4.51
0.94
5.88
10.02
13.28
15.68
17.24
17.97
17.93
17.34
16.58
16.01
15.90
16.22
16.74
17.20
17.48
17.67
17.97
18.54
19.30
20.01
20.28
19.86
18.69
16.94
14.91
12.94
11.27
9.98
8.90
7.67
5.90
3.34
0.09
-3.42
-6.64
-9.16
-11.01
-12.68
-14.90
-18.29
-23.09
-28.99
-35.30
-41.20
-46.09
-49.70
-52.17
-53.79
-54.94
-55.86
-56.69
-57.47
-58.12
-58.28
-57.21
-53.82
-47.05
-36.40
-22.41
-6.75
8.37
21.06
30.59
37.57
43.30
48.77
53.84
57.44
58.30
56.09
51.84
47.49
44.75
44.11
44.59
44.45
42.41
38.42
33.70
29.86
27.83
27.16
26.31
23.43
17.46
8.62
-1.67
-11.43
-19.05
-23.83
-26.37
-28.23
-31.39
-37.45
-46.96
-59.08
-71.70
-81.92
-86.78
-84.22
-73.83
-57.43
-38.88
-23.09
-14.34
-14.52
-22.28
-33.50
-42.99
-46.68
-43.11
-33.51
-20.61
-7.02
5.82
17.75
29.08
39.80
49.33
56.83
61.76
64.27
65.09
65.23
65.69
67.25
70.46
75.47
82.01
89.36
96.36
101.78
104.58
104.09
100.10
92.87
82.99
71.34
58.94
46.72
35.31
24.99
15.80
7.77
1.09
-4.03
-7.62
-10.19
-12.70
-16.14
-21.03
-27.11
-33.47
-39.05
-43.27
-46.32
-49.07
-52.60
-57.69
-64.50
-72.58
-81.17
-89.42
-96.53
-101.71
-104.10
-102.94
-97.85
-89.20
-78.35
-67.40
-58.65
-53.81
-53.34
-56.17
-59.86
-61.37
-57.95
-48.18
-32.43
-12.96
6.86
23.52
34.45
38.70
37.03
31.49
24.71
19.19
16.59
17.39
20.67
24.31
25.59
22.07
12.59
-1.95
-18.51
-32.45
-38.74
-33.68
-16.32
10.68
41.60
69.27
87.53
93.30
87.41
73.78
57.40
42.38
30.92
23.55
20.12
20.53
24.69
32.07
41.16
49.82
56.19
59.58
60.82
61.56
63.06
65.39
67.25
66.71
62.20
53.40
41.21
27.35
13.65
1.54
-8.13
-15.08
-19.40
-21.54
-22.14
-21.96
-21.61
-21.54
-21.94
-22.86
-24.24
-26.00
-28.00
-29.98
-31.61
-32.59
-32.79
-32.45
-32.15
-32.63
-34.54
-38.23
-43.60
-50.21
-57.38
-64.32
-70.31
-74.80
-77.52
-78.55
-78.34
-77.50
-76.60
-75.91
-75.30
-74.27
-72.27
-68.91
-64.04
-57.76
-50.26
-41.91
-33.26
-25.12
-18.07
-11.86
-4.84
5.72
22.40
45.75
73.12
99.07
117.50
124.39
119.58
106.52
90.27
75.09
63.08
54.49
49.19
47.73
51.26
60.32
73.62
87.99
99.70
106.38
108.06
106.81
105.00
103.53
101.21
95.51
84.26
67.06
45.85
24.05
5.26
-8.13
-15.51
-17.88
-17.17
-15.53
-14.85
-16.54
-21.50
-30.15
-42.37
-57.53
-74.36
-91.07
-105.55
-115.80
-120.47
-119.33
-113.39
-104.55
-94.91
-85.96
-78.20
-71.12
-63.88
-55.93
-47.51
-39.56
-33.17
-29.03
-26.94
-26.00
-25.09
-23.39
-20.74
-17.53
-14.35
-11.65
-9.54
-7.92
-6.64
-5.64
-4.90
-4.30
-3.55
-2.33
-0.43
2.01
4.59
6.74
7.99
8.03
6.67
3.78
-0.68
-6.33
-12.24
-16.82
-18.22
-14.85
-5.94
8.10
25.81
44.91
62.70
76.45
83.82
83.36
74.97
60.06
41.47
22.73
7.10
-3.28
-8.04
-8.28
-5.94
-2.81
0.29
3.86
9.25
17.76
29.61
43.49
56.98
67.61
74.15
77.13
78.52
80.46
84.02
88.54
91.89
91.59
86.07
75.46
61.64
47.51
35.82
28.16
24.45
23.05
21.62
18.04
11.27
1.60
-9.71
-21.12
-31.44
-40.16
-47.28
-52.99
-57.35
-60.25
-61.62
-61.71
-61.18
-60.96
-61.90
-64.50
-68.84
-74.82
-82.43
-92.03
-104.24
-119.35
-136.58
-153.59
-166.62
-171.30
-164.05
-143.46
-110.95
-70.52
-27.62
12.38
45.43
69.46
84.34
91.43
92.90
91.13
88.25
85.65
83.68
81.76
78.83
73.97
66.95
58.33
49.08
40.10
31.83
24.44
18.19
13.63
11.28
11.21
12.58
13.98
14.03
12.31
9.54
7.10
6.19
7.03
8.79
10.11
9.95
8.16
5.49
3.13
2.03
2.35
3.23
2.90
-1.06
-11.23
-29.54
-56.32
-89.55
-124.73
-155.82
-176.80
-183.54
-174.98
-153.20
-122.50
-87.96
-54.06
-24.07
0.16
18.08
30.26
38.32
44.56
51.39
60.44
71.98
84.81
96.86
106.12
111.26
111.92
108.46
101.62
92.30
81.53
70.60
60.89
53.54
49.04
47.03
46.41
45.81
44.09
40.62
35.34
28.65
21.13
13.44
6.29
0.21
-4.55
-8.07
-10.78
-13.08
-15.12
-16.72
-17.54
-17.49
-16.97
-16.81
-17.90
-20.67
-24.86
-29.62
-33.97
-37.24
-39.34
-40.60
-41.47
-42.18
-42.61
-42.32
-40.69
-37.15
-31.38
-23.57
-14.57
-5.83
0.92
4.38
4.24
1.52
-1.76
-3.48
-2.52
0.53
3.51
3.60
-1.41
-12.08
-26.92
-42.80
-55.87
-62.60
-60.80
-50.21
-32.74
-12.13
6.96
20.31
25.44
22.49
14.08
4.35
-2.68
-4.45
-0.59
7.26
16.38
24.10
28.63
29.47
27.26
23.19
18.48
13.94
9.96
6.59
3.78
1.45
-0.44
-2.02
-3.45
-4.79
-5.91
-6.46
-5.99
-4.15
-0.87
3.64
9.01
14.87
20.90
26.91
32.73
38.23
43.36
48.12
52.47
56.28
59.21
60.82
60.65
58.47
54.40
48.95
42.87
36.93
31.67
27.23
23.32
19.42
15.02
10.02
4.78
0.05
-3.39
-5.15
-5.55
-5.45
-5.88
-7.45
-10.11
-13.17
-15.77
-17.34
-17.94
-18.19
-18.86
-20.37
-22.62
-24.98
-26.78
-27.63
-27.65
-27.39
-27.47
-28.28
-29.84
-31.82
-33.66
-34.81
-34.85
-33.55
-30.94
-27.28
-22.95
-18.39
-13.90
-9.58
-5.35
-1.11
3.18
7.38
11.29
14.66
17.33
19.19
20.22
20.49
20.18
19.60
19.14
19.16
19.80
20.91
22.08
22.87
22.94
22.23
20.98
19.51
18.14
16.99
15.99
14.98
13.80
12.39
10.87
9.44
8.30
7.50
6.89
6.19
5.09
3.45
1.40
-0.74
-2.63
-4.19
-5.62
-7.38
-9.85
-13.12
-16.82
-20.30
-22.93
-24.36
-24.65
-24.07
-22.92
-21.28
-19.03
-16.06
-12.49
-8.74
-5.38
-2.84
-1.19
-0.14
0.79
1.93
3.35
4.87
6.27
7.49
8.61
9.78
10.93
11.81
12.05
11.33
9.60
6.98
3.69
-0.04
-4.03
-8.09
-12.01
-15.63
-18.97
-22.41
-26.60
-32.29
-39.93
-49.32
-59.68
-69.82
-78.61
-85.16
-88.71
-88.41
-83.28
-72.65
-56.91
-38.14
-19.92
-6.20
0.35
-0.34
-5.63
-11.38
-13.91
-11.59
-5.24
2.86
10.43
16.46
21.40
26.41
32.32
38.88
44.86
48.82
49.97
48.75
46.53
44.97
45.10
46.96
49.69
52.13
53.53
53.80
53.45
53.16
53.37
54.07
54.93
55.58
55.83
55.73
55.38
54.66
53.12
49.90
44.02
34.80
22.23
7.27
-8.23
-22.01
-32.15
-37.72
-39.05
-37.53
-34.96
-32.81
-31.82
-31.98
-32.93
-34.32
-36.08
-38.30
-41.03
-44.01
-46.72
-48.57
-49.14
-48.39
-46.63
-44.33
-41.91
-39.45
-36.76
-33.43
-29.13
-23.70
-17.40
-10.86
-5.00
-0.67
1.63
1.93
0.57
-1.92
-5.16
-9.04
-13.79
-19.88
-27.65
-36.98
-47.30
-57.54
-65.95
-70.18
-67.69
-56.75
-37.44
-12.22
14.90
39.00
55.66
62.54
60.27
52.03
42.12
34.32
31.01
33.75
42.39
54.99
68.52
80.09
87.73
90.56
88.79
83.51
77.83
74.30
73.47
73.96
74.11
72.97
70.44
67.05
63.75
63.76
69.78
82.24
99.23
117.77
134.53
146.06
149.49
131.95
90.19
34.52
-17.80
-55.36
-76.80
-86.83
-91.11
-93.42
-95.29
-94.38
-88.34
-77.86
-66.23
-57.16
-52.75
-53.28
-57.65
-64.79
-72.07
-76.26
-76.38
-73.42
-68.69
-62.68
-55.33
-46.56
-37.67
-28.11
-16.51
-2.88
10.88
22.02
27.81
25.85
14.11
-10.05
-46.08
-88.66
-130.30
-163.22
-180.95
-180.08
-161.54
-121.36
-69.02
-20.54
13.40
32.54
42.35
47.69
50.28
49.75
45.78
38.08
29.15
23.07
22.29
26.14
31.75
35.85
36.73
34.69
30.45
26.51
26.10
31.17
41.16
53.91
65.65
73.03
73.90
67.14
54.25
38.79
24.50
13.76
6.95
2.88
-0.11
-3.22
-6.91
-10.29
-11.68
-9.85
-4.78
2.39
9.74
15.41
18.00
16.87
12.42
5.35
-2.97
-10.99
-17.50
-22.12
-25.14
-27.09
-28.24
-28.50
-27.72
-26.54
-25.82
-26.28
-28.18
-31.12
-33.82
-34.38
-30.90
-22.28
-9.70
4.99
19.86
32.83
41.94
46.44
47.71
49.04
54.15
63.65
76.33
89.52
99.31
101.37
92.97
73.87
45.59
9.86
-34.22
-85.99
-141.15
-192.37
-231.71
-252.59
-251.83
-231.11
-183.47
-116.91
-50.31
0.10
30.55
46.18
54.15
59.56
65.05
71.78
78.33
84.20
89.69
95.12
97.43
93.03
80.21
60.52
38.41
17.89
3.11
-2.97
-0.23
8.07
17.36
23.82
25.82
23.15
15.99
5.99
-4.16
-12.04
-16.85
-19.29
-21.18
-24.98
-32.77
-45.70
-62.51
-79.64
-92.91
-99.82
-100.89
-99.45
-99.95
-105.40
-115.57
-126.52
-132.27
-127.55
-110.20
-81.78
-46.69
-10.39
22.21
47.74
64.50
72.11
71.31
63.80
52.11
39.18
27.73
19.57
15.19
13.93
14.41
15.22
15.46
14.86
13.63
12.08
10.51
9.34
9.29
11.41
16.63
25.14
35.80
46.28
53.77
56.14
52.96
45.64
36.85
29.47
25.53
25.68
29.34
35.15
41.47
46.78
49.97
50.39
47.89
42.86
36.07
28.52
21.18
14.74
9.58
5.74
3.06
1.30
0.16
-0.71
-1.73
-3.29
-5.61
-8.47
-11.24
-13.11
-13.41
-12.04
-9.60
-7.13
-5.67
-5.87
-7.75
-10.86
-14.63
-18.53
-22.29
-25.65
-28.22
-29.52
-29.20
-27.36
-24.63
-22.03
-20.54
-20.66
-22.17
-24.15
-25.19
-23.74
-18.52
-8.88
4.80
21.11
37.81
52.51
63.46
70.04
72.78
72.82
71.34
69.03
66.13
62.65
58.64
54.27
49.76
45.26
40.84
36.64
32.90
29.88
27.71
26.22
25.08
23.96
22.80
21.82
21.33
21.47
22.08
22.76
23.09
22.83
21.97
20.67
19.19
17.86
17.04
16.99
17.74
18.91
19.64
18.78
15.23
8.44
-1.28
-12.66
-23.80
-32.76
-38.19
-39.89
-38.82
-36.68
-35.10
-34.96
-36.01
-37.21
-37.43
-36.16
-33.74
-31.09
-29.01
-27.73
-26.86
-25.74
-23.96
-21.61
-19.12
-16.94
-15.19
-13.70
-12.16
-10.34
-8.23
-5.93
-3.57
-1.25
0.91
2.72
4.03
4.74
4.88
4.56
3.87
2.85
1.50
-0.18
-2.00
-3.81
-5.52
-7.21
-9.05
-11.18
-13.58
-16.10
-18.60
-21.00
-23.36
-25.72
-28.02
-30.15
-32.02
-33.78
-35.64
-37.78
-40.09
-42.09
-43.16
-42.78
-40.84
-37.53
-33.27
-28.42
-23.24
-17.88
-12.51
-7.32
-2.52
1.77
5.51
8.67
11.21
13.01
14.03
14.32
14.06
13.49
12.87
12.40
12.25
12.57
13.31
14.27
15.06
15.29
14.88
14.09
13.48
13.54
14.38
15.65
16.72
17.01
16.37
15.06
13.58
12.30
11.27
10.22
8.85
7.04
4.95
2.90
1.19
-0.14
-1.32
-2.70
-4.57
-6.93
-9.46
-11.67
-13.19
-14.02
-14.57
-15.50
-17.32
-20.07
-23.24
-25.91
-27.17
-26.50
-24.01
-20.28
-16.10
-12.07
-8.40
-5.01
-1.68
1.76
5.24
8.56
11.41
13.57
14.96
15.71
16.08
16.36
16.72
17.08
17.19
16.78
15.77
14.39
13.05
12.15
11.75
11.55
11.09
10.13
8.81
7.60
7.01
7.12
7.54
7.59
6.78
5.09
3.07
1.53
1.01
1.46
2.33
2.80
2.35
0.97
-0.85
-2.46
-3.40
-3.65
-3.53
-3.39
-3.45
-3.70
-4.13
-4.90
-6.38
-8.83
-12.03
-15.15
-16.93
-16.31
-13.00
-7.66
-1.67
3.53
7.06
8.84
9.44
9.59
9.74
9.89
9.72
8.90
7.30
5.12
2.81
0.82
-0.54
-1.29
-1.63
-1.88
-2.21
-2.62
-2.97
-3.14
-3.15
-3.20
-3.63
-4.72
-6.63
-9.32
-12.55
-15.94
-19.13
-21.83
-23.90
-25.39
-26.35
-26.69
-26.14
-24.35
-21.20
-16.89
-11.97
-7.12
-2.89
0.46
2.87
4.36
4.80
4.06
2.10
-0.79
-3.95
-6.52
-7.80
-7.51
-5.87
-3.44
-0.90
1.25
2.89
4.30
5.99
8.42
11.69
15.41
18.82
21.05
21.58
20.47
18.41
16.36
15.11
14.94
15.52
16.17
16.30
15.75
14.84
14.15
14.09
14.65
15.36
15.58
14.85
13.16
10.91
8.70
6.99
5.93
5.33
4.85
4.14
3.08
1.69
0.16
-1.33
-2.66
-3.78
-4.75
-5.65
-6.61
-7.80
-9.38
-11.50
-14.17
-17.29
-20.57
-23.64
-26.03
-27.36
-27.37
-26.00
-23.40
-19.89
-15.85
-11.64
-7.53
-3.65
-0.08
3.19
6.13
8.70
10.91
12.77
14.35
15.67
16.74
17.45
17.69
17.40
16.68
15.76
14.89
14.24
13.79
13.38
12.83
12.08
11.28
10.66
10.44
10.68
11.13
11.42
11.16
10.13
8.41
6.32
4.31
2.79
1.94
1.66
1.59
1.26
0.35
-1.27
-3.46
-5.96
-8.54
-11.08
-13.58
-16.04
-18.45
-20.84
-23.35
-26.20
-29.49
-33.01
-36.10
-37.77
-37.18
-33.97
-28.54
-21.88
-15.16
-9.22
-4.39
-0.58
2.42
4.73
6.30
7.15
7.49
7.85
8.78
10.66
13.47
16.84
20.20
23.04
24.99
25.83
25.49
24.08
21.93
19.62
17.81
16.96
17.19
18.16
19.30
20.02
19.94
18.95
17.18
14.87
12.29
9.75
7.46
5.55
4.06
2.92
2.06
1.45
1.09
0.89
0.52
-0.56
-2.98
-7.09
-12.67
-18.85
-24.28
-27.66
-28.28
-26.29
-22.64
-18.54
-14.91
-11.92
-9.04
-5.51
-0.94
4.25
8.99
12.02
12.67
11.16
8.54
6.14
4.85
4.84
5.69
6.89
8.26
10.00
12.37
15.22
17.75
18.75
17.19
12.82
6.37
-0.76
-7.17
-11.94
-14.93
-16.55
-17.37
-17.79
-18.00
-18.04
-18.09
-18.53
-19.84
-22.40
-26.19
-30.71
-35.06
-38.27
-39.63
-38.97
-36.68
-33.48
-30.18
-27.44
-25.57
-24.65
-24.48
-24.77
-25.18
-25.34
-24.93
-23.67
-21.40
-18.11
-13.99
-9.32
-4.44
0.39
5.03
9.43
13.55
17.25
20.23
22.15
22.79
22.20
20.84
19.38
18.47
18.50
19.42
20.83
22.15
23.00
23.28
23.19
23.03
22.97
22.94
22.67
21.85
20.36
18.36
16.19
14.23
12.66
11.38
10.12
8.57
6.59
4.25
1.75
-0.70
-2.99
-5.16
-7.33
-9.47
-11.44
-13.01
-14.02
-14.58
-15.14
-16.32
-18.60
-22.06
-26.16
-29.90
-32.16
-32.21
-29.97
-26.01
-21.21
-16.36
-11.86
-7.68
-3.64
0.38
4.26
7.81
10.89
13.60
16.14
18.63
21.03
23.05
24.45
25.19
25.43
25.49
25.48
25.31
24.67
23.32
21.31
19.06
17.15
15.98
15.61
15.70
15.73
15.38
14.62
13.64
12.65
11.61
10.29
8.45
6.09
3.50
1.15
-0.62
-1.80
-2.69
-3.72
-5.16
-6.94
-8.81
-10.53
-12.06
-13.55
-15.20
-17.01
-18.81
-20.36
-21.41
-21.80
-21.39
-20.09
-17.82
-14.58
-10.40
-5.46
-0.23
4.66
8.52
10.85
11.47
10.60
8.81
6.90
5.49
4.69
4.22
3.71
3.06
2.50
2.36
2.80
3.94
5.44
6.40
5.92
3.63
-0.01
-4.12
-7.78
-10.44
-11.10
-9.43
-6.21
-2.99
-1.11
-1.11
-2.75
-5.39
-8.33
-9.77
-8.74
-6.13
-4.20
-4.87
-8.62
-14.34
-19.66
-21.39
-14.61
4.20
34.87
73.46
114.33
152.03
182.37
202.88
202.48
176.46
131.96
83.69
42.78
12.62
-8.00
-21.25
-28.64
-31.78
-29.70
-22.11
-11.12
-0.58
6.38
8.74
7.25
3.22
-1.52
-5.10
-7.12
-9.01
-12.96
-20.05
-29.51
-39.31
-47.39
-52.26
-52.69
-48.65
-41.59
-34.02
-28.34
-26.14
-28.07
-33.80
-42.04
-50.35
-55.97
-56.90
-52.48
-43.47
-31.83
-20.19
-11.15
-6.62
-7.47
-13.83
-25.53
-42.35
-63.69
-88.17
-113.35
-135.75
-151.34
-156.31
-148.13
-126.41
-93.50
-54.10
-14.21
20.49
46.28
62.11
69.34
70.57
68.24
63.86
57.98
50.83
43.05
35.73
30.06
26.64
25.17
24.53
23.42
20.95
16.97
12.03
6.97
2.49
-1.15
-4.08
-6.58
-8.66
-9.92
-9.63
-6.93
-1.10
8.24
21.05
36.75
54.09
71.22
86.00
96.53
101.96
102.76
100.35
96.37
91.80
86.54
79.66
69.89
56.36
39.18
19.67
0.05
-17.18
-29.97
-37.30
-39.53
-38.19
-35.47
-33.04
-31.35
-29.60
-26.51
-21.23
-13.86
-5.47
2.30
7.33
8.36
5.44
-0.28
-7.25
-13.88
-18.71
-20.70
-19.71
-17.99
-18.49
-23.81
-35.68
-54.79
-80.04
-108.05
-133.59
-150.94
-157.35
-151.82
-134.97
-109.59
-80.96
-55.44
-38.13
-31.46
-34.94
-48.40
-69.69
-94.77
-119.08
-139.32
-153.56
-160.23
-158.14
-132.69
-81.67
-18.13
39.30
79.93
103.25
113.96
117.59
118.15
117.45
113.51
105.11
93.56
81.59
71.64
63.84
57.83
53.41
50.66
47.95
44.29
39.82
35.13
30.31
24.98
19.22
13.63
9.03
4.47
-0.22
-4.34
-6.72
-6.69
-4.41
-0.59
3.74
7.49
9.28
8.65
6.18
3.17
0.75
-0.53
-0.67
-0.07
0.76
1.19
1.02
0.35
-0.56
-1.57
-2.72
-4.06
-5.60
-7.30
-9.16
-11.24
-13.65
-16.47
-19.52
-22.38
-24.42
-25.04
-23.90
-21.00
-16.66
-11.42
-5.83
-0.26
5.20
10.61
16.08
21.52
26.63
30.98
34.30
36.69
38.78
41.51
45.83
52.33
60.98
71.16
81.83
91.71
99.65
104.77
106.67
105.46
101.63
95.83
88.48
79.54
68.49
54.53
36.89
15.31
-9.59
-36.01
-60.91
-80.50
-91.22
-90.97
-80.13
-61.71
-40.51
-21.60
-8.64
-3.02
-3.89
-9.12
-16.36
-23.74
-30.12
-34.99
-38.35
-40.79
-43.49
-47.77
-54.32
-62.67
-71.00
-76.96
-78.70
-75.78
-69.21
-60.77
-51.89
-43.07
-33.99
-24.29
-14.24
-4.81
2.90
8.40
12.23
15.56
19.43
24.14
29.15
33.54
36.60
38.17
38.49
37.85
36.39
34.18
31.42
28.62
26.41
25.12
24.54
23.94
22.59
20.14
16.93
13.71
11.14
9.41
8.13
6.71
4.75
2.32
-0.08
-1.98
-3.19
-3.95
-4.76
-6.06
-7.99
-10.36
-12.91
-15.38
-17.68
-19.74
-21.46
-22.61
-23.03
-22.72
-21.97
-21.22
-20.77
-20.56
-20.05
-18.41
-14.82
-8.84
-0.59
9.15
19.09
27.72
33.70
36.33
35.91
33.79
32.05
32.74
37.03
44.66
53.95
62.50
68.23
70.28
69.26
66.75
64.45
63.25
62.89
62.23
60.04
55.66
49.30
41.82
34.12
26.72
19.64
12.62
5.59
-1.10
-6.79
-10.93
-13.58
-15.55
-18.10
-22.39
-28.95
-37.50
-47.15
-56.80
-65.42
-72.31
-77.01
-79.26
-78.88
-75.75
-69.73
-60.78
-49.09
-35.39
-21.01
-7.75
2.64
9.17
12.05
12.64
12.87
14.27
17.31
21.20
24.34
25.16
22.84
17.73
11.16
5.00
0.78
-0.97
-1.18
-2.03
-6.30
-16.28
-32.77
-54.42
-77.71
-97.45
-107.80
-103.79
-83.00
-47.03
-1.82
43.51
79.43
99.15
100.83
87.69
66.15
42.98
23.04
8.50
-0.49
-4.68
-4.97
-2.28
2.29
7.65
13.37
20.08
29.03
40.72
53.56
63.56
65.98
57.85
40.17
17.92
-2.03
-14.14
-16.70
-12.13
-5.10
0.22
2.21
1.92
1.55
2.44
3.94
3.80
-0.26
-8.88
-20.32
-31.06
-37.19
-36.08
-27.45
-13.38
2.37
15.67
23.36
24.12
18.75
9.60
-0.41
-8.94
-14.95
-18.85
-22.04
-26.12
-32.25
-40.83
-51.52
-63.42
-75.20
-85.23
-91.56
-92.25
-85.86
-72.06
-52.12
-28.89
-6.17
12.48
25.02
31.50
33.94
35.13
37.28
41.09
45.75
49.71
51.78
51.79
50.48
48.80
47.24
45.50
42.83
38.72
33.30
27.34
21.64
16.49
11.31
5.02
-3.32
-13.89
-25.60
-36.35
-43.59
-45.29
-40.76
-31.12
-19.09
-8.13
-1.30
-0.16
-4.29
-11.62
-19.45
-25.56
-29.09
-30.50
-30.87
-31.02
-30.99
-30.13
-27.67
-23.49
-18.43
-14.28
-13.33
-17.64
-28.27
-44.60
-64.00
-82.15
-94.09
-95.88
-86.14
-66.89
-42.96
-20.29
-3.69
4.83
6.36
4.24
2.28
3.29
8.20
16.12
25.08
32.92
38.06
39.93
39.07
36.77
34.54
33.54
34.19
36.16
38.70
41.11
43.03
44.41
45.23
45.22
43.96
41.07
36.65
31.50
26.87
23.98
23.45
24.92
27.27
29.08
29.27
27.52
24.25
20.25
16.21
12.31
8.27
3.68
-1.61
-7.20
-12.21
-15.60
-16.72
-15.53
-12.81
-9.88
-8.22
-8.97
-12.60
-18.70
-26.01
-32.78
-37.18
-37.84
-34.24
-26.79
-16.60
-5.10
6.44
17.17
26.63
34.68
41.25
46.31
49.93
52.37
54.07
55.50
56.84
57.79
57.62
55.32
50.14
41.89
31.20
19.39
8.07
-1.34
-8.12
-12.42
-15.19
-17.72
-21.03
-25.49
-30.70
-35.75
-39.67
-41.77
-41.66
-39.14
-34.03
-26.16
-15.62
-3.01
10.53
23.55
34.73
43.12
48.22
49.82
47.88
42.61
34.75
25.79
17.73
12.44
10.95
13.09
17.67
23.25
28.80
33.90
38.48
42.23
44.35
43.78
39.79
32.54
23.23
13.64
5.46
-0.33
-3.73
-5.52
-6.98
-9.46
-14.01
-21.18
-30.90
-42.47
-54.78
-66.47
-76.12
-82.30
-83.86
-80.23
-71.88
-60.43
-48.42
-38.39
-31.93
-28.97
-27.90
-26.34
-22.42
-15.75
-7.73
-0.92
2.16
0.30
-5.68
-13.25
-19.16
-20.89
-17.64
-10.61
-2.25
4.95
9.64
11.97
13.15
14.53
16.63
18.86
19.93
18.69
15.03
10.00
5.46
3.08
3.51
6.01
8.90
10.42
9.70
7.09
3.92
1.64
1.08
2.01
3.39
3.98
2.97
0.19
-4.00
-9.02
-14.39
-19.74
-24.69
-28.71
-31.21
-31.68
-29.90
-26.06
-20.64
-14.42
-8.25
-2.98
0.69
2.41
2.34
1.12
-0.37
-1.38
-1.70
-1.65
-1.99
-3.44
-6.41
-10.74
-15.82
-20.75
-24.55
-26.42
-25.98
-23.38
-19.41
-15.23
-12.09
-10.77
-11.35
-13.07
-14.58
-14.47
-11.75
-6.18
1.77
11.15
20.84
29.84
37.35
42.93
46.49
48.36
49.14
49.49
49.61
49.05
46.74
41.45
32.50
20.40
6.87
-5.78
-15.51
-21.37
-23.72
-23.88
-23.35
-23.13
-23.38
-23.65
-23.45
-22.65
-21.68
-21.25
-21.90
-23.72
-26.28
-28.92
-31.03
-32.22
-32.32
-31.25
-28.99
-25.55
-21.10
-16.02
-10.80
-6.00
-2.01
1.00
3.10
4.50
5.65
7.01
9.14
12.36
16.64
21.46
25.96
29.16
30.35
29.33
26.47
22.46
18.10
14.03
10.60
8.02
6.42
5.92
6.59
8.31
10.75
13.42
15.85
17.66
18.73
19.11
18.94
18.34
17.35
15.94
14.09
11.86
9.41
6.96
4.74
2.88
1.40
0.18
-0.99
-2.38
-4.17
-6.51
-9.36
-12.58
-15.92
-19.02
-21.56
-23.38
-24.50
-25.23
-26.02
-27.30
-29.25
-31.71
-34.14
-35.82
-36.08
-34.58
-31.37
-26.88
-21.64
-16.15
-10.71
-5.47
-0.43
4.37
8.88
13.08
16.99
20.60
23.86
26.58
28.46
29.22
28.73
27.13
24.75
22.06
19.51
17.42
15.89
14.84
14.01
13.08
11.74
9.85
7.42
4.65
1.75
-1.15
-4.01
-6.84
-9.60
-12.09
-14.09
-15.43
-16.18
-16.60
-17.07
-17.91
-19.19
-20.83
-22.57
-24.19
-25.49
-26.37
-26.78
-26.68
-26.07
-24.97
-23.47
-21.62
-19.39
-16.67
-13.31
-9.26
-4.61
0.32
5.10
9.24
12.41
14.42
15.35
15.48
15.19
14.88
14.86
15.30
16.07
16.90
17.38
17.17
16.10
14.33
12.22
10.27
8.88
8.18
7.95
7.67
6.65
4.31
0.43
-4.71
-10.19
-14.66
-16.65
-15.07
-9.68
-1.23
8.66
18.06
25.27
29.40
30.47
29.23
26.80
24.20
22.11
20.77
20.01
19.42
18.54
17.06
14.94
12.46
10.02
7.92
6.17
4.49
2.48
-0.13
-3.25
-6.50
-9.29
-11.11
-11.72
-11.18
-9.78
-7.95
-6.10
-4.59
-3.62
-3.27
-3.52
-4.25
-5.37
-6.77
-8.28
-9.65
-10.60
-10.94
-10.70
-10.18
-9.72
-9.57
-9.70
-9.88
-9.89
-9.68
-9.48
-9.62
-10.23
-11.14
-11.89
-12.09
-11.65
-10.89
-10.39
-10.72
-12.15
-14.61
-17.74
-21.08
-24.14
-26.45
-27.57
-27.19
-25.31
-22.27
-18.75
-15.43
-12.74
-10.71
-8.95
-6.98
-4.43
-1.25
2.33
5.95
9.33
12.31
14.89
17.11
18.98
20.46
21.49
22.06
22.23
22.10
21.86
21.61
21.47
21.40
21.28
20.98
20.38
19.50
18.50
17.52
16.62
15.57
13.89
10.94
6.21
-0.54
-8.99
-18.44
-27.84
-36.05
-42.01
-44.83
-43.92
-39.18
-31.10
-20.82
-9.82
0.53
9.48
17.08
23.97
30.85
37.83
44.29
49.06
50.93
49.25
44.01
35.71
24.81
11.46
-4.49
-22.97
-43.06
-62.52
-78.12
-86.47
-85.30
-74.52
-56.49
-35.40
-15.86
-1.33
6.78
9.15
7.63
4.12
-0.35
-5.69
-12.28
-20.06
-28.13
-34.83
-38.44
-37.91
-33.29
-25.46
-15.58
-4.47
7.56
20.31
33.17
44.90
53.81
58.47
58.35
54.14
47.56
40.70
35.39
32.72
32.93
35.53
39.53
43.83
47.46
49.82
50.77
50.59
49.73
48.54
47.12
45.25
42.42
38.09
31.82
23.51
13.47
2.43
-8.57
-18.45
-26.38
-31.78
-34.45
-34.39
-31.82
-27.18
-21.27
-15.14
-9.86
-6.23
-4.46
-4.19
-4.64
-4.91
-4.29
-2.33
1.07
5.76
11.21
16.59
20.93
23.41
23.65
22.01
19.44
17.12
16.10
16.89
19.40
23.06
27.13
30.91
34.01
36.30
37.92
39.08
39.90
40.35
40.22
39.21
37.05
33.62
28.99
23.41
17.24
10.87
4.64
-1.16
-6.34
-10.75
-14.32
-17.09
-19.18
-20.72
-21.83
-22.52
-22.80
-22.68
-22.24
-21.67
-21.21
-21.11
-21.47
-22.24
-23.29
-24.50
-25.75
-26.97
-28.05
-28.81
-29.12
-28.95
-28.47
-27.97
-27.71
-27.77
-27.95
-27.85
-27.05
-25.24
-22.36
-18.57
-14.21
-9.66
-5.24
-1.18
2.45
5.70
8.63
11.24
13.34
14.61
14.74
13.63
11.50
8.79
6.00
3.44
1.15
-1.02
-3.18
-5.21
-6.83
-7.78
-8.03
-7.99
-8.31
-9.60
-12.07
-15.55
-19.56
-23.79
-28.27
-33.38
-39.62
-47.21
-55.84
-64.59
-72.09
-76.83
-77.52
-73.45
-64.75
-52.51
-38.59
-25.16
-14.08
-6.29
-1.56
1.31
3.79
7.01
11.35
16.54
22.05
27.62
33.33
39.46
46.06
52.70
58.52
62.63
64.55
64.49
63.12
61.30
59.53
57.90
56.13
53.81
50.71
46.77
42.15
37.09
31.90
26.89
22.33
18.39
15.01
11.90
8.54
4.40
-0.99
-7.82
-15.97
-24.94
-33.94
-41.95
-47.88
-50.89
-50.59
-47.26
-41.75
-35.22
-28.77
-23.18
-18.86
-15.97
-14.71
-15.32
-17.97
-22.41
-27.84
-32.91
-36.25
-37.02
-35.29
-32.11
-29.00
-27.26
-27.45
-29.18
-31.34
-32.56
-31.61
-27.61
-20.05
-8.81
5.64
22.06
38.52
52.84
63.30
69.36
71.77
72.11
71.95
72.05
72.26
71.86
70.28
67.58
64.38
61.46
59.17
57.25
55.03
51.87
47.54
42.22
36.32
30.20
24.01
17.68
11.16
4.43
-2.32
-8.79
-14.64
-19.54
-23.26
-25.81
-27.45
-28.69
-30.11
-32.11
-34.73
-37.55
-39.89
-41.02
-40.49
-38.27
-34.71
-30.37
-25.82
-21.53
-17.76
-14.61
-12.09
-10.12
-8.66
-7.65
-7.07
-6.90
-7.08
-7.55
-8.15
-8.75
-9.24
-9.57
-9.78
-9.85
-9.70
-9.22
-8.32
-7.06
-5.71
-4.65
-4.23
-4.52
-5.36
-6.37
-7.16
-7.59
-7.73
-7.83
-8.06
-8.49
-9.02
-9.61
-10.34
-11.43
-13.12
-15.52
-18.45
-21.50
-24.19
-26.12
-27.09
-27.06
-26.01
-23.84
-20.46
-15.92
-10.62
-5.27
-0.72
2.34
3.64
3.39
2.14
0.50
-1.03
-2.19
-2.99
-3.60
-4.28
-5.24
-6.65
-8.53
-10.77
-13.19
-15.63
-18.04
-20.44
-22.89
-25.34
-27.60
-29.38
-30.32
-30.11
-28.46
-25.09
-19.74
-12.26
-2.80
8.00
19.04
28.93
36.35
40.44
41.01
38.51
33.82
27.95
21.87
16.40
12.24
9.92
9.65
11.24
13.98
16.89
19.02
19.83
19.33
18.04
16.64
15.63
15.21
15.28
15.75
16.61
18.05
20.29
23.38
27.09
30.92
34.20
36.28
36.72
35.32
32.30
28.11
23.35
18.56
14.06
9.94
6.13
2.57
-0.63
-3.25
-5.04
-5.96
-6.17
-6.07
-6.10
-6.58
-7.61
-9.04
-10.58
-11.90
-12.74
-13.04
-12.93
-12.69
-12.65
-13.01
-13.84
-15.02
-16.43
-17.98
-19.64
-21.35
-23.00
-24.44
-25.52
-26.28
-26.97
-27.90
-29.29
-31.08
-32.91
-34.23
-34.54
-33.55
-31.23
-27.85
-23.86
-19.80
-16.18
-13.26
-11.08
-9.40
-7.84
-6.12
-4.27
-2.66
-1.90
-2.51
-4.60
-7.78
-11.31
-14.35
-16.24
-16.79
-16.22
-15.05
-13.97
-13.72
-14.91
-17.68
-21.37
-24.30
-24.08
-18.40
-6.09
12.11
33.63
54.94
72.85
85.62
93.25
96.98
98.35
98.42
97.45
95.22
91.45
86.21
79.95
73.25
66.46
59.57
52.11
43.43
33.03
20.94
7.87
-4.95
-16.15
-24.66
-30.03
-32.46
-32.55
-31.00
-28.47
-25.44
-22.39
-19.73
-17.89
-17.16
-17.66
-19.37
-22.16
-25.88
-30.30
-35.11
-39.78
-43.72
-46.46
-47.94
-48.65
-49.47
-51.42
-55.09
-60.36
-66.29
-71.31
-73.74
-72.25
-66.29
-56.11
-42.63
-27.25
-11.63
2.63
14.39
23.44
30.78
38.36
48.37
62.05
78.96
96.91
112.79
123.72
127.91
124.87
114.94
98.75
77.24
51.93
25.42
1.19
-17.30
-27.83
-30.32
-26.78
-20.40
-14.21
-10.17
-8.80
-9.62
-11.78
-14.63
-17.82
-21.23
-24.74
-28.13
-31.05
-33.14
-34.28
-34.61
-34.49
-34.33
-34.42
-34.73
-34.98
-34.83
-34.06
-32.79
-31.37
-30.20
-29.52
-29.32
-29.44
-29.73
-30.18
-30.89
-31.98
-33.52
-35.46
-37.78
-40.59
-44.04
-48.23
-52.85
-57.18
-60.10
-60.53
-57.75
-51.67
-42.78
-32.01
-20.47
-9.08
1.55
11.16
19.73
27.32
33.84
39.18
43.24
46.13
48.21
49.93
51.60
53.17
54.27
54.40
53.27
50.96
47.81
44.28
40.60
36.76
32.57
27.86
22.54
16.69
10.53
4.36
-1.48
-6.59
-10.66
-13.47
-15.00
-15.34
-14.67
-13.25
-11.35
-9.30
-7.50
-6.29
-5.93
-6.46
-7.75
-9.51
-11.44
-13.29
-14.90
-16.22
-17.28
-18.06
-18.57
-18.79
-18.78
-18.72
-18.88
-19.56
-20.91
-22.79
-24.72
-26.07
-26.26
-24.99
-22.42
-19.00
-15.32
-11.82
-8.62
-5.59
-2.49
0.80
4.23
7.54
10.41
12.61
14.08
14.92
15.31
15.45
15.51
15.53
15.50
15.39
15.14
14.77
14.37
14.01
13.75
13.54
13.28
12.87
12.25
11.49
10.68
9.95
9.38
8.92
8.44
7.76
6.74
5.33
3.59
1.64
-0.38
-2.40
-4.40
-6.35
-8.24
-10.01
-11.68
-13.34
-15.17
-17.35
-19.95
-22.90
-26.03
-29.16
-32.21
-35.19
-38.11
-40.81
-42.83
-43.55
-42.28
-38.30
-30.96
-19.77
-4.58
13.97
34.32
54.19
71.19
83.65
91.08
94.15
94.09
92.04
88.57
83.89
78.19
72.05
66.39
62.03
59.21
57.42
55.72
53.16
49.35
44.49
39.20
34.11
29.54
25.38
21.24
16.70
11.58
6.08
0.65
-4.22
-8.26
-11.54
-14.32
-16.92
-19.38
-21.51
-23.00
-23.59
-23.35
-22.61
-21.84
-21.50
-21.86
-23.01
-24.87
-27.21
-29.63
-31.66
-32.80
-32.65
-31.05
-28.06
-23.94
-19.08
-13.93
-8.97
-4.72
-1.66
-0.03
0.21
-0.52
-1.59
-2.40
-2.57
-2.09
-1.27
-0.52
-0.19
-0.44
-1.23
-2.31
-3.36
-4.06
-4.12
-3.46
-2.15
-0.47
1.09
2.01
1.86
0.42
-2.20
-5.54
-8.92
-11.63
-13.23
-13.67
-13.38
-12.99
-13.11
-14.04
-15.71
-17.85
-20.18
-22.64
-25.38
-28.60
-32.34
-36.38
-40.36
-43.86
-46.61
-48.53
-49.67
-50.10
-49.83
-48.81
-46.98
-44.32
-40.91
-36.87
-32.32
-27.29
-21.74
-15.65
-9.14
-2.50
3.75
9.00
12.71
14.68
15.12
14.63
14.03
14.04
15.04
16.93
19.26
21.42
22.93
23.64
23.67
23.35
22.99
22.72
22.49
22.06
21.10
19.39
16.86
13.75
10.61
8.08
6.63
6.11
5.64
3.71
-1.16
-9.75
-21.41
-34.15
-45.13
-51.71
-52.31
-46.79
-36.10
-21.79
-5.58
10.73
25.32
36.58
43.75
47.51
50.03
54.14
62.00
73.91
88.00
101.23
110.95
116.27
118.28
118.96
119.37
118.55
113.62
101.26
79.68
50.10
16.63
-15.11
-40.29
-56.71
-65.34
-69.43
-72.60
-77.10
-83.00
-88.65
-91.99
-91.82
-88.41
-83.12
-77.31
-71.35
-64.28
-54.31
-39.93
-20.86
1.68
25.44
48.10
67.94
83.96
95.59
102.31
103.67
99.80
91.91
82.33
73.76
68.17
65.74
64.83
62.71
56.98
46.63
32.34
15.90
-0.78
-16.45
-30.76
-43.80
-55.54
-65.54
-73.03
-77.46
-78.84
-77.85
-75.43
-72.37
-68.84
-64.56
-59.06
-52.24
-44.50
-36.77
-30.03
-24.89
-21.28
-18.58
-15.98
-12.86
-9.14
-5.23
-1.79
0.67
2.01
2.55
2.81
3.29
4.17
5.31
6.37
6.97
6.91
6.19
5.00
3.63
2.42
1.57
1.13
0.85
0.27
-1.15
-3.70
-7.15
-10.69
-13.16
-13.65
-12.00
-9.07
-6.47
-5.94
-8.40
-13.51
-19.60
-24.34
-25.76
-23.12
-17.22
-10.13
-4.43
-2.36
-5.25
-13.00
-23.72
-33.36
-36.15
-26.10
0.29
41.66
90.66
135.60
164.34
168.92
148.53
109.54
62.56
18.25
-15.81
-36.21
-42.86
-37.62
-23.29
-3.54
17.16
34.06
43.17
42.65
33.35
18.42
2.33
-10.79
-18.44
-20.29
-18.07
-14.97
-14.53
-19.30
-29.79
-43.93
-58.26
-69.25
-74.36
-72.48
-64.08
-50.49
-33.66
-15.85
1.25
15.98
26.90
33.31
35.36
33.40
28.07
20.05
10.39
1.70
-3.24
-2.53
4.37
16.43
30.99
45.40
57.67
66.90
74.17
80.11
83.37
81.24
71.22
52.03
25.72
-2.77
-34.84
-65.63
-87.74
-96.53
-92.10
-74.64
-50.55
-28.01
-16.00
-21.63
-50.69
-99.54
-156.40
-204.62
-228.69
-220.66
-181.71
-121.14
-52.31
12.56
64.41
97.61
110.64
106.42
91.47
74.99
65.51
67.50
80.35
98.54
114.22
121.28
117.83
105.77
89.20
71.74
55.35
40.99
29.60
22.38
20.69
25.20
34.76
46.46
56.37
61.10
59.33
52.21
42.58
33.69
27.77
25.23
24.77
24.21
21.60
16.04
7.95
-1.35
-10.37
-18.02
-23.79
-27.72
-30.12
-31.50
-32.44
-33.51
-35.08
-37.16
-39.35
-41.10
-42.20
-42.98
-44.32
-47.23
-52.28
-59.29
-67.27
-74.73
-80.05
-82.03
-80.10
-74.49
-66.17
-56.49
-46.81
-38.07
-30.48
-23.65
-16.95
-9.89
-2.27
5.90
14.54
23.60
32.95
42.18
50.65
57.34
61.34
62.35
61.08
58.86
57.20
57.22
59.25
63.00
67.21
70.14
70.15
66.21
57.76
44.64
27.29
7.04
-13.44
-31.19
-43.54
-48.58
-45.57
-35.42
-20.46
-3.39
13.74
30.28
45.45
57.64
64.59
64.10
54.80
36.76
11.92
-18.78
-49.57
-73.28
-86.67
-92.17
-94.32
-95.82
-96.17
-92.74
-83.23
-66.96
-46.53
-26.76
-12.29
-5.61
-6.05
-11.19
-17.77
-22.96
-24.89
-23.85
-21.90
-21.57
-24.47
-30.80
-39.06
-46.73
-51.44
-50.61
-43.26
-29.93
-12.27
7.97
26.69
39.85
45.91
45.98
42.39
37.06
31.21
25.41
20.33
16.54
14.86
16.01
19.95
25.60
30.93
34.61
34.73
30.94
24.44
17.59
12.60
10.27
9.80
9.72
8.89
7.11
5.27
4.25
4.06
3.47
0.43
-8.00
-22.75
-42.47
-64.19
-84.18
-99.46
-108.46
-111.07
-108.23
-101.24
-91.13
-78.78
-65.21
-51.62
-39.41
-29.90
-23.90
-21.29
-20.93
-20.70
-18.26
-11.93
-1.28
12.59
27.49
40.97
51.17
57.26
59.46
58.49
55.06
49.77
43.18
36.01
29.31
24.25
21.76
22.18
25.06
29.21
32.88
34.24
31.93
25.65
16.33
6.01
-2.98
-8.94
-11.48
-11.48
-10.46
-9.65
-9.33
-8.90
-7.42
-4.36
0.05
4.99
9.52
12.95
15.00
15.55
14.50
11.72
7.14
0.85
-6.86
-15.56
-24.76
-33.77
-41.65
-47.10
-48.70
-45.39
-36.98
-24.38
-9.52
5.17
17.40
25.58
29.09
28.35
24.66
19.81
15.61
13.40
13.73
16.35
20.57
25.57
30.87
36.28
41.72
46.92
51.38
54.42
55.55
54.61
51.78
47.24
40.92
32.49
21.62
8.33
-6.69
-22.18
-36.69
-48.98
-58.32
-64.42
-67.17
-66.34
-61.56
-52.63
-39.89
-24.51
-8.21
7.09
19.86
29.26
35.17
37.91
37.94
35.58
31.08
24.76
17.27
9.74
3.61
0.38
1.16
6.20
14.64
24.65
33.98
40.64
43.47
42.24
37.28
29.04
18.10
5.76
-5.33
-11.41
-9.20
2.09
19.41
36.72
47.78
49.39
43.06
34.04
27.93
27.37
30.63
32.98
29.96
20.23
6.24
-7.46
-16.94
-20.92
-20.84
-19.41
-18.78
-19.39
-20.08
-19.18
-15.81
-10.58
-5.41
-2.56
-3.49
-8.12
-14.81
-21.11
-24.76
-24.67
-21.15
-15.61
-9.78
-4.99
-1.63
0.82
3.36
6.91
11.81
17.57
22.99
26.51
26.83
23.39
16.75
8.52
0.86
-4.26
-5.62
-3.07
2.63
10.24
18.39
25.81
31.29
33.70
32.04
25.69
14.77
0.47
-15.06
-29.07
-38.94
-42.95
-40.73
-33.37
-22.94
-11.80
-1.92
5.58
10.33
12.52
12.42
10.37
6.81
2.43
-1.74
-4.74
-6.01
-5.73
-4.75
-4.10
-4.48
-5.85
-7.45
-8.31
-7.77
-5.83
-3.10
-0.41
1.61
2.80
3.55
4.48
6.15
8.78
12.14
15.60
18.43
19.96
19.88
18.26
15.44
11.85
7.90
3.91
0.16
-3.09
-5.56
-7.09
-7.63
-7.31
-6.31
-4.85
-3.16
-1.70
-1.14
-2.25
-5.60
-11.09
-17.78
-24.14
-28.57
-30.06
-28.67
-25.38
-21.68
-18.99
-18.29
-20.13
-24.86
-32.53
-42.67
-53.91
-64.08
-70.81
-72.54
-69.24
-62.34
-53.76
-44.65
-34.93
-23.71
-10.68
2.73
13.34
17.54
13.34
1.74
-13.43
-27.18
-35.59
-37.28
-33.49
-26.89
-20.07
-14.39
-9.82
-5.63
-1.18
3.67
8.49
12.71
15.99
18.41
20.39
22.39
24.75
27.51
30.39
32.89
34.36
34.32
32.47
28.99
24.44
19.76
15.99
13.90
13.79
15.28
17.51
19.38
20.03
18.97
16.13
11.84
6.77
1.86
-1.75
-2.99
-1.18
3.67
10.70
18.47
25.36
30.17
32.38
32.27
30.52
27.90
24.81
21.25
16.93
11.74
6.10
1.14
-1.58
-0.65
4.56
13.51
24.67
36.02
45.71
52.45
55.39
54.03
47.98
37.33
23.09
7.58
-5.87
-13.87
-14.28
-7.08
5.48
19.77
32.17
40.21
43.07
41.26
35.86
27.89
18.18
7.59
-2.76
-11.53
-17.61
-20.57
-20.81
-19.35
-17.19
-14.94
-12.72
-10.38
-7.93
-5.73
-4.42
-4.61
-6.51
-9.78
-13.70
-17.40
-20.17
-21.68
-21.99
-21.45
-20.59
-19.90
-19.67
-19.92
-20.47
-20.98
-21.16
-20.79
-19.75
-18.03
-15.69
-13.01
-10.47
-8.67
-8.19
-9.39
-12.24
-16.35
-21.18
-26.20
-30.99
-35.25
-38.68
-41.00
-42.03
-41.82
-40.67
-39.05
-37.31
-35.49
-33.25
-30.04
-25.53
-19.83
-13.50
-7.40
-2.38
1.03
2.58
2.38
0.82
-1.40
-3.38
-4.03
-2.43
1.99
9.21
18.62
29.05
38.93
46.34
49.42
46.83
38.41
25.59
11.29
-0.88
-7.88
-8.28
-2.81
6.02
14.92
20.81
21.65
16.73
6.73
-6.44
-19.89
-30.34
-35.00
-32.58
-24.26
-13.66
-5.74
-4.78
-12.18
-25.50
-39.35
-47.63
-46.03
-33.61
-12.64
12.72
37.96
59.29
73.74
79.07
74.01
58.77
35.75
9.52
-14.19
-30.30
-36.02
-31.63
-20.01
-5.41
8.06
17.49
21.81
21.66
18.79
15.26
12.59
11.38
11.34
11.73
11.84
11.42
10.67
9.95
9.60
9.60
9.68
9.45
8.51
6.62
3.64
-0.49
-5.76
-11.92
-18.32
-23.89
-27.39
-27.91
-25.18
-19.77
-12.86
-5.84
0.17
4.48
6.73
6.70
4.02
-1.60
-9.95
-19.92
-29.41
-35.82
-37.03
-32.33
-22.94
-11.64
-1.86
3.49
3.00
-2.88
-12.00
-21.17
-27.09
-27.29
-20.90
-8.88
6.32
21.68
34.63
43.69
48.67
50.16
48.98
45.70
40.80
34.76
28.41
22.73
18.55
16.21
15.35
15.09
14.29
11.82
6.88
-0.76
-10.58
-21.35
-31.34
-38.97
-43.19
-43.91
-41.83
-38.07
-33.69
-29.42
-25.72
-22.88
-21.21
-20.98
-22.19
-24.46
-27.07
-29.18
-30.18
-29.88
-28.40
-26.11
-23.34
-20.36
-17.35
-14.47
-11.77
-9.28
-6.86
-4.33
-1.59
1.33
4.14
6.40
7.68
7.86
7.25
6.58
6.70
8.11
10.59
13.26
14.86
14.41
11.66
7.23
2.27
-2.00
-4.91
-6.43
-7.13
-7.87
-9.42
-12.21
-16.23
-21.02
-25.69
-29.10
-30.11
-27.90
-22.44
-14.61
-6.13
1.14
5.91
8.02
8.48
8.79
10.10
12.50
14.96
16.03
14.67
10.91
5.78
0.67
-3.35
-5.96
-7.45
-8.20
-8.38
-7.83
-6.34
-4.08
-1.61
0.20
0.61
-0.80
-4.05
-8.88
-14.84
-21.28
-27.32
-31.80
-33.62
-32.14
-27.54
-20.88
-13.66
-7.31
-2.56
0.59
2.67
4.25
5.56
6.47
6.65
5.93
4.45
2.73
1.31
0.44
-0.08
-0.76
-2.02
-3.76
-5.12
-4.83
-1.77
4.36
12.76
21.72
29.41
34.59
37.04
37.45
36.80
35.78
34.34
31.81
27.42
20.94
13.07
5.26
-0.79
-3.88
-3.74
-0.96
3.39
8.37
13.43
18.27
22.56
25.63
26.61
25.00
21.20
16.61
13.27
12.97
16.52
23.52
32.60
42.02
50.21
55.98
58.57
57.51
52.75
44.65
34.12
22.49
11.40
2.48
-2.90
-3.93
-0.59
6.32
15.27
24.47
32.31
37.75
40.24
39.37
34.60
25.32
11.23
-6.93
-27.07
-45.98
-60.27
-67.53
-67.20
-60.57
-50.21
-38.91
-28.81
-21.10
-16.15
-14.02
-14.73
-18.14
-23.59
-29.64
-34.23
-35.34
-31.82
-24.04
-13.72
-3.25
5.31
11.02
14.19
15.92
17.43
19.50
22.21
25.20
27.99
30.28
31.98
33.20
33.98
34.32
34.13
33.35
31.92
29.77
26.78
22.70
17.32
10.61
3.00
-4.65
-11.23
-15.80
-18.04
-18.39
-17.86
-17.41
-17.48
-17.75
-17.42
-15.80
-12.85
-9.39
-6.73
-6.09
-8.10
-12.64
-19.10
-26.68
-34.67
-42.31
-48.84
-53.44
-55.56
-55.29
-53.37
-50.89
-48.72
-46.85
-44.29
-39.56
-31.51
-20.06
-6.40
7.47
19.60
28.71
34.51
37.48
38.38
37.81
36.09
33.21
29.12
23.86
17.77
11.44
5.71
1.42
-0.74
-0.46
2.11
6.39
11.47
16.34
20.00
21.55
20.44
16.57
10.35
2.63
-5.58
-13.48
-20.54
-26.32
-30.18
-31.20
-28.42
-21.45
-11.00
1.21
12.83
21.83
27.10
28.65
27.24
23.88
19.52
14.82
10.41
6.77
4.20
2.57
1.26
-0.54
-3.53
-7.89
-13.19
-18.52
-22.78
-24.95
-24.44
-21.30
-16.24
-10.48
-5.23
-1.19
1.66
3.94
6.30
8.82
10.79
11.02
8.34
2.30
-6.58
-16.90
-26.77
-34.23
-37.60
-35.86
-28.84
-17.42
-3.44
10.79
23.10
31.99
37.04
38.68
37.89
35.69
32.81
29.48
25.44
20.05
12.62
2.74
-9.29
-22.12
-33.52
-40.89
-42.12
-36.51
-25.08
-10.33
4.38
15.73
21.12
19.26
10.54
-2.75
-16.77
-27.13
-30.17
-24.39
-10.94
6.87
24.93
39.80
49.64
54.18
54.00
49.98
42.95
33.94
24.44
16.19
10.76
8.94
10.36
13.85
17.84
21.00
22.57
22.45
20.95
18.50
15.40
11.69
7.32
2.31
-3.04
-8.28
-13.06
-17.41
-21.79
-26.77
-32.38
-37.81
-41.46
-41.72
-37.77
-30.21
-20.91
-12.18
-5.82
-2.49
-1.63
-2.08
-2.78
-3.22
-3.52
-4.14
-5.59
-8.21
-12.10
-17.10
-22.61
-27.60
-30.62
-30.25
-25.67
-17.07
-5.78
6.20
16.84
24.78
29.58
31.62
31.61
30.09
27.24
22.92
17.03
9.76
1.77
-5.90
-12.07
-15.82
-16.77
-15.09
-11.29
-5.83
1.22
10.05
20.90
33.62
47.36
60.58
71.34
77.92
79.35
75.74
68.25
58.83
49.75
42.99
39.63
39.57
41.65
44.18
45.23
42.76
34.97
21.08
2.36
-17.19
-31.16
-32.64
-17.18
14.09
53.34
88.48
108.03
105.52
81.28
40.83
-8.31
-59.15
-106.89
-148.74
-182.47
-205.61
-216.34
-215.04
-204.69
-189.08
-170.00
-146.62
-116.81
-78.98
-33.59
16.11
64.67
104.99
127.26
126.55
107.18
79.06
51.08
28.16
11.58
0.60
-6.20
-9.71
-9.72
-5.91
0.80
8.30
14.20
16.71
15.30
10.64
4.79
0.49
-0.24
2.54
6.86
10.09
9.90
5.17
-4.68
-17.93
-31.77
-43.05
-49.34
-49.49
-43.83
-34.20
-23.47
-14.96
-10.61
-10.74
-14.00
-18.17
-20.90
-20.25
-15.19
-4.44
9.36
22.56
31.82
35.49
34.13
30.12
26.37
24.62
24.39
23.65
20.65
14.80
7.19
0.03
-4.44
-5.09
-2.25
2.88
8.85
15.01
21.30
27.84
34.53
40.77
45.55
47.74
46.50
41.45
33.42
24.02
15.34
9.39
7.55
9.93
15.35
21.69
26.82
29.49
29.68
28.28
26.35
24.52
22.86
21.11
19.11
16.90
14.69
12.45
9.78
6.24
1.65
-3.50
-8.24
-11.58
-13.02
-12.81
-11.87
-11.18
-11.31
-12.20
-13.32
-14.16
-14.54
-14.72
-15.07
-15.83
-16.79
-17.53
-17.74
-17.55
-17.50
-18.22
-19.85
-21.92
-23.53
-23.94
-23.01
-21.46
-20.39
-20.75
-22.70
-25.61
-28.40
-30.15
-30.49
-29.72
-28.35
-26.79
-25.03
-22.75
-19.63
-15.69
-11.30
-7.00
-3.19
0.13
3.17
6.07
8.64
10.36
10.75
9.84
8.32
7.27
7.61
9.54
12.45
15.31
17.23
17.94
17.71
17.02
16.10
14.85
13.03
10.63
7.95
5.51
3.64
2.20
0.73
-1.28
-3.97
-7.00
-9.82
-11.95
-13.31
-14.17
-14.89
-15.71
-16.56
-17.25
-17.65
-17.86
-18.22
-19.07
-20.57
-22.53
-24.58
-26.24
-27.23
-27.46
-27.01
-26.04
-24.59
-22.63
-20.05
-16.83
-13.12
-9.22
-5.48
-2.16
0.75
3.46
6.28
9.32
12.36
14.85
16.15
15.95
14.44
12.35
10.59
9.81
10.11
10.99
11.64
11.39
10.00
7.74
5.20
2.97
1.35
0.30
-0.42
-1.05
-1.67
-2.24
-2.72
-3.15
-3.77
-4.85
-6.52
-8.63
-10.77
-12.46
-13.46
-13.85
-14.11
-14.84
-16.57
-19.51
-23.51
-28.04
-32.33
-35.57
-37.06
-36.50
-34.02
-30.17
-25.69
-21.22
-17.10
-13.25
-9.43
-5.37
-1.04
3.35
7.40
10.82
13.44
15.27
16.34
16.59
15.86
14.08
11.43
8.42
5.70
3.71
2.48
1.61
0.54
-1.02
-2.88
-4.48
-5.07
-4.08
-1.28
3.06
8.13
12.59
14.79
13.23
7.20
-2.70
-14.57
-25.81
-34.08
-38.30
-38.93
-37.63
-36.32
-36.29
-37.80
-40.23
-42.68
-44.48
-45.44
-45.73
-45.51
-44.56
-42.36
-38.29
-32.10
-24.19
-15.43
-6.83
0.92
7.68
13.73
19.47
25.03
30.27
34.75
38.09
40.04
40.60
39.95
38.39
36.37
34.50
33.39
33.47
34.86
37.23
39.90
42.19
43.69
44.56
45.40
46.91
49.22
51.77
53.40
52.97
50.05
45.30
40.25
36.63
35.42
36.27
37.76
38.24
36.54
32.38
26.06
18.04
8.90
-0.98
-11.19
-20.88
-28.80
-34.09
-36.99
-38.98
-41.72
-45.10
-47.42
-45.90
-38.02
-22.83
-2.12
19.99
38.39
49.21
52.07
48.54
41.16
32.68
26.17
24.33
29.24
41.48
60.17
84.21
110.47
134.22
150.52
156.19
150.14
133.51
108.62
72.01
28.20
-12.80
-42.71
-60.38
-69.10
-74.64
-78.97
-82.05
-83.29
-81.52
-77.59
-71.75
-66.44
-63.48
-63.52
-65.92
-69.63
-73.40
-75.20
-74.02
-70.21
-65.06
-59.44
-53.79
-48.23
-43.18
-39.10
-35.78
-33.16
-31.40
-30.79
-30.95
-31.04
-29.98
-27.06
-22.01
-14.82
-6.12
2.92
10.93
17.18
21.64
24.91
27.75
30.79
34.40
38.38
42.05
44.48
45.02
43.50
40.31
36.21
32.08
28.64
26.31
25.12
24.66
24.38
23.59
21.80
18.75
14.58
9.79
5.19
1.55
-0.64
-1.35
-1.14
-0.86
-1.30
-2.90
-5.52
-8.61
-11.59
-14.12
-16.27
-18.34
-20.59
-22.94
-25.03
-26.40
-26.80
-26.37
-25.48
-24.50
-23.49
-22.16
-20.02
-16.72
-12.27
-7.13
-2.01
2.44
5.88
8.42
10.36
12.11
13.83
15.46
16.77
17.56
17.84
17.78
17.58
17.34
17.00
16.36
15.33
14.06
12.93
12.35
12.55
13.37
14.36
14.96
14.78
13.73
11.99
9.88
7.76
5.84
4.31
3.27
2.74
2.55
2.38
1.75
0.24
-2.25
-5.38
-8.47
-10.68
-11.43
-10.70
-9.05
-7.46
-6.84
-7.66
-9.67
-11.99
-13.43
-12.91
-9.85
-4.35
2.86
10.60
17.56
22.64
25.17
25.10
22.90
19.54
16.16
13.85
13.38
15.04
18.46
22.68
26.41
28.59
28.90
28.12
27.74
29.22
32.98
37.90
41.62
41.62
36.48
26.60
13.97
1.18
-9.75
-18.10
-24.42
-29.78
-35.09
-40.74
-46.62
-52.60
-58.78
-65.50
-73.07
-81.30
-89.28
-95.54
-98.58
-97.53
-92.56
-84.78
-75.61
-66.07
-56.27
-45.51
-33.00
-18.70
-3.95
8.76
16.69
18.05
13.05
3.97
-5.59
-11.98
-12.90
-7.96
1.45
13.00
24.48
34.52
42.69
49.11
53.99
57.20
58.51
57.81
55.51
52.40
49.39
47.00
45.14
43.18
40.33
36.15
30.80
25.00
19.73
15.80
13.51
12.58
12.30
11.85
10.60
8.25
4.90
0.95
-3.09
-6.70
-9.43
-10.88
-10.84
-9.21
-6.24
-2.55
0.94
3.20
3.50
1.71
-1.62
-5.41
-8.46
-9.83
-9.07
-6.24
-1.75
3.83
9.95
16.05
21.50
25.63
27.79
27.63
25.23
21.21
16.47
11.91
8.09
5.05
2.36
-0.64
-4.59
-9.75
-15.88
-22.22
-27.70
-31.35
-32.63
-31.76
-29.57
-27.22
-25.64
-25.17
-25.51
-25.99
-26.03
-25.53
-24.87
-24.64
-25.17
-26.35
-27.65
-28.38
-28.10
-26.81
-24.94
-23.11
-21.89
-21.62
-22.32
-23.75
-25.56
-27.37
-28.81
-29.57
-29.39
-28.13
-25.77
-22.51
-18.69
-14.67
-10.61
-6.14
-0.33
8.04
19.75
34.43
50.20
64.07
73.06
75.37
71.15
62.16
50.96
39.71
29.67
21.25
14.49
9.49
6.43
5.27
5.49
6.16
6.33
5.49
3.75
1.65
-0.19
-1.39
-1.90
-2.00
-2.05
-2.41
-3.37
-5.06
-7.47
-10.43
-13.77
-17.36
-21.05
-24.68
-27.93
-30.42
-31.99
-32.86
-33.79
-35.74
-39.33
-44.39
-49.81
-53.93
-55.22
-53.00
-47.79
-41.14
-34.99
-30.97
-29.78
-31.20
-34.30
-37.82
-40.58
-41.59
-40.01
-35.22
-27.04
-16.15
-4.17
6.95
16.04
23.62
31.78
43.09
58.88
77.80
95.76
107.12
107.55
96.44
77.59
57.68
43.50
39.37
45.79
59.84
76.40
90.56
99.36
101.97
98.89
90.75
77.97
61.02
40.77
18.30
-4.88
-27.03
-46.69
-63.43
-77.86
-91.00
-103.52
-110.95
-108.60
-94.69
-71.37
-42.69
-13.08
12.65
30.48
38.80
37.61
28.71
15.69
2.72
-6.95
-11.90
-12.34
-9.55
-4.59
2.34
11.21
21.77
33.02
43.44
51.41
55.80
56.40
53.69
48.36
40.57
30.21
17.31
2.50
-12.98
-27.68
-40.08
-49.06
-54.23
-56.13
-55.92
-55.03
-54.54
-54.88
-55.73
-56.23
-55.73
-54.43
-53.55
-54.66
-58.73
-65.40
-73.03
-79.58
-83.19
-83.46
-81.53
-79.26
-78.11
-78.61
-80.59
-84.15
-89.90
-97.38
-105.37
-111.82
-114.49
-112.15
-105.61
-97.91
-92.74
-91.97
-91.81
-85.70
-67.70
-35.96
5.87
49.79
86.59
110.06
119.59
122.91
129.06
143.00
163.63
186.07
205.88
222.07
237.64
257.32
287.71
329.29
374.80
413.04
435.50
440.79
433.92
422.57
388.55
323.29
232.83
135.15
47.11
-23.27
-75.15
-111.84
-138.48
-160.19
-177.21
-187.62
-190.02
-184.50
-172.52
-156.83
-141.84
-132.77
-133.86
-143.67
-155.87
-164.57
-164.99
-154.39
-132.93
-103.88
-72.45
-43.76
-19.30
1.11
17.12
27.49
30.82
26.62
16.28
3.24
-7.97
-12.54
-8.26
3.08
16.81
27.59
31.68
27.98
17.81
3.81
-10.90
-23.86
-33.87
-40.64
-44.45
-45.89
-45.74
-44.86
-43.96
-43.45
-43.34
-43.42
-43.38
-43.00
-42.24
-41.16
-40.05
-39.27
-39.13
-39.70
-40.68
-41.47
-41.39
-39.87
-36.67
-31.87
-25.69
-18.52
-10.84
-3.24
3.56
8.95
12.61
14.67
15.66
16.21
16.72
17.24
17.50
17.21
16.33
15.14
14.05
13.44
13.50
14.15
15.21
16.36
17.27
17.59
17.02
15.44
13.05
10.33
7.80
5.78
4.17
2.52
0.35
-2.53
-5.85
-9.08
-11.74
-13.74
-15.40
-17.26
-19.70
-22.72
-25.94
-28.89
-31.23
-32.98
-34.39
-35.70
-36.92
-37.75
-37.75
-36.56
-34.08
-30.44
-25.94
-20.85
-15.45
-9.91
-4.48
0.61
5.09
8.87
12.03
14.79
17.31
19.57
21.43
22.65
23.08
22.63
21.44
19.88
18.40
17.41
17.09
17.33
17.78
17.97
17.39
15.83
13.55
11.05
8.75
6.78
4.92
2.87
0.44
-2.53
-5.60
-7.79
-8.25
-6.98
-4.96
-3.81
-4.90
-8.69
-15.20
-23.05
-29.92
-33.80
-34.39
-33.10
-32.07
-32.85
-35.63
-40.45
-45.98
-49.86
-49.85
-45.41
-37.46
-27.67
-17.86
-10.33
-9.51
-18.94
-39.06
-66.32
-94.91
-118.07
-130.07
-127.68
-102.85
-58.40
-7.93
34.12
62.91
81.57
96.65
111.35
125.57
137.92
146.05
150.17
150.10
148.86
148.88
150.31
150.61
146.08
133.92
113.00
86.09
58.91
36.91
20.87
6.40
-13.70
-45.17
-89.26
-142.80
-198.67
-248.08
-283.25
-299.95
-297.26
-276.68
-240.58
-191.57
-132.51
-66.43
3.08
71.23
131.27
175.70
197.74
193.98
166.11
120.99
69.04
21.30
-13.66
-31.42
-30.81
-12.99
19.84
64.52
116.01
166.97
208.68
233.44
237.28
221.77
192.41
156.42
120.18
87.95
61.94
42.98
30.93
21.09
10.48
-2.70
-18.32
-34.51
-48.44
-57.62
-61.05
-59.55
-55.11
-49.21
-42.85
-36.49
-30.50
-25.25
-21.08
-18.09
-16.21
-14.99
-13.54
-11.35
-8.42
-5.51
-3.47
-3.36
-5.09
-8.03
-10.81
-11.33
-7.78
0.63
12.55
25.32
35.74
41.49
41.91
38.31
33.39
29.75
28.93
30.21
31.90
32.10
29.47
23.43
14.03
1.50
-14.55
-30.08
-43.00
-51.95
-56.55
-57.64
-56.97
-56.60
-58.06
-61.84
-67.27
-73.67
-80.05
-85.68
-90.30
-94.17
-97.88
-102.04
-106.93
-112.03
-116.72
-119.66
-119.49
-115.31
-107.07
-95.44
-81.35
-65.76
-49.44
-33.54
-19.09
-6.64
4.19
14.98
27.95
44.74
65.28
87.51
108.07
124.10
134.68
141.13
146.01
151.41
157.60
162.70
163.83
158.66
146.78
129.87
110.83
92.31
75.35
58.99
40.82
18.48
-8.84
-39.63
-70.22
-95.86
-112.00
-115.35
-104.56
-80.47
-45.80
-4.85
36.84
73.13
98.21
107.74
99.93
75.46
37.28
-9.62
-58.86
-103.86
-139.37
-162.50
-172.99
-172.32
-163.86
-151.89
-140.06
-130.40
-123.48
-119.38
-118.08
-119.59
-123.18
-128.92
-137.56
-148.90
-160.60
-168.44
-168.24
-156.76
-132.11
-92.87
-40.74
19.19
79.64
132.89
172.08
191.94
190.61
164.16
118.90
70.07
30.12
1.55
-20.55
-37.24
-45.82
-43.29
-29.26
-3.58
26.98
52.39
64.78
62.50
50.41
36.38
27.65
28.39
39.77
58.90
81.06
102.40
121.36
138.12
152.48
163.30
169.15
170.01
166.70
161.00
155.13
150.79
148.21
145.56
139.95
128.99
111.88
88.73
60.36
28.17
-5.70
-38.34
-66.61
-87.92
-100.89
-105.87
-105.05
-101.52
-98.15
-96.73
-97.72
-100.57
-104.02
-106.41
-105.87
-100.98
-91.23
-77.59
-62.32
-48.02
-36.36
-26.87
-17.01
-3.66
14.79
36.98
58.45
73.11
75.57
62.98
35.87
-2.41
-47.11
-93.12
-135.38
-168.90
-189.12
-192.92
-180.17
-154.13
-120.91
-87.61
-59.76
-39.23
-23.77
-8.66
10.32
33.52
57.35
75.60
82.04
73.39
51.64
23.97
0.29
-10.37
-3.81
20.45
59.98
109.59
161.64
207.25
238.22
249.44
240.56
214.84
181.00
149.78
128.29
116.46
108.07
94.45
68.99
28.96
-26.29
-92.01
-159.29
-218.61
-262.63
-286.92
-290.20
-273.83
-227.31
-157.86
-86.36
-30.46
5.91
27.08
38.60
44.44
49.51
57.14
68.05
84.41
108.56
141.40
180.75
222.35
255.20
271.02
265.13
236.37
189.90
133.69
76.50
24.43
-20.34
-58.75
-91.48
-117.97
-137.22
-146.99
-147.91
-141.39
-129.89
-117.00
-107.09
-102.69
-104.07
-110.66
-122.06
-142.27
-173.55
-213.93
-257.01
-294.12
-316.03
-316.01
-292.67
-231.96
-143.87
-55.60
9.65
46.97
63.88
71.49
79.10
92.74
115.90
146.41
183.03
220.50
252.27
269.41
263.41
231.15
177.66
114.45
52.62
3.57
-25.36
-33.07
-21.91
-0.75
18.68
30.95
39.35
48.34
61.42
78.87
95.32
104.58
102.31
88.23
66.47
42.84
15.49
-10.75
-30.41
-41.52
-46.75
-51.07
-57.87
-67.80
-76.55
-80.65
-77.06
-65.85
-49.09
-29.97
-10.34
4.82
11.76
10.20
2.68
-5.72
-12.20
-16.36
-19.63
-24.48
-33.17
-45.09
-57.61
-69.33
-80.77
-95.51
-115.92
-140.13
-162.26
-175.54
-174.07
-155.61
-123.38
-77.16
-27.00
13.90
40.72
62.13
86.65
117.26
153.41
191.31
225.66
250.64
262.15
258.98
242.42
214.51
178.62
138.60
98.13
56.06
17.37
-11.36
-26.97
-30.75
-26.98
-20.03
-13.77
-10.63
-11.26
-14.53
-18.78
-23.08
-25.81
-27.00
-28.05
-31.47
-39.01
-51.09
-66.71
-84.38
-102.23
-118.25
-132.07
-138.79
-137.53
-129.12
-115.49
-99.20
-83.09
-69.34
-58.46
-49.92
-43.51
-39.87
-39.09
-40.18
-41.69
-42.18
-40.33
-34.73
-19.81
5.16
34.20
59.16
75.78
84.77
91.99
103.58
123.77
153.66
190.03
227.22
254.56
264.03
250.99
215.57
162.65
100.80
39.97
-11.77
-49.60
-72.43
-81.98
-82.58
-79.23
-75.86
-74.20
-73.99
-74.53
-75.31
-75.93
-74.94
-69.98
-58.43
-39.01
-13.36
13.53
34.84
45.28
43.59
33.32
20.38
9.82
3.73
1.22
0.23
-0.54
-0.83
0.52
4.19
9.27
13.68
15.53
14.32
11.08
7.36
4.00
0.51
-4.35
-11.54
-20.96
-31.36
-41.13
-49.14
-55.18
-59.77
-63.47
-66.44
-68.31
-68.46
-66.44
-62.29
-56.50
-49.81
-42.95
-36.45
-30.62
-25.71
-21.98
-19.67
-18.83
-19.01
-19.22
-18.10
-14.28
-7.02
3.49
16.03
28.67
39.37
46.46
49.13
47.42
42.04
34.07
24.61
14.70
5.21
-3.19
-10.06
-15.17
-18.45
-19.86
-19.29
-16.72
-12.39
-7.06
-2.04
1.08
1.03
-2.61
-9.19
-17.41
-25.78
-33.26
-39.49
-44.63
-49.12
-53.41
-57.93
-62.99
-68.79
-75.23
-81.72
-87.25
-90.60
-90.86
-87.98
-82.93
-77.49
-73.67
-73.10
-76.62
-84.15
-94.74
-106.64
-117.38
-124.13
-124.17
-115.54
-97.69
-71.65
-39.56
-3.69
34.23
73.09
111.71
148.06
179.27
202.58
216.75
222.84
223.61
221.94
219.06
214.10
205.22
191.59
174.80
158.67
147.47
143.65
146.47
152.39
156.77
155.90
148.37
135.07
118.38
100.95
84.61
69.94
56.29
42.27
26.49
8.29
-11.82
-32.21
-50.69
-65.47
-75.89
-82.67
-87.60
-92.62
-98.91
-106.32
-113.57
-118.91
-121.12
-120.10
-116.70
-112.17
-107.28
-101.96
-95.33
-86.41
-74.70
-60.54
-44.91
-29.00
-13.79
0.11
12.16
21.71
27.78
29.44
26.18
18.31
6.91
-6.52
-20.54
-33.96
-45.86
-55.30
-61.31
-63.07
-60.27
-53.42
-43.79
-32.98
-22.46
-13.18
-5.67
-0.14
3.26
4.40
3.30
0.19
-4.52
-10.28
-16.61
-23.07
-29.31
-35.07
-40.23
-44.71
-48.38
-50.98
-52.18
-51.91
-50.67
-49.58
-50.10
-53.25
-58.95
-65.77
-71.37
-73.34
-70.06
-61.17
-47.40
-30.08
-10.78
8.97
27.79
44.69
59.43
72.72
85.96
100.39
116.23
132.13
145.63
154.23
156.58
152.91
144.63
133.47
120.74
107.23
93.52
80.51
69.49
61.83
58.37
59.04
62.87
68.19
73.05
75.53
74.23
68.78
60.10
50.27
41.48
34.82
29.38
22.44
10.90
-6.91
-30.34
-56.61
-82.26
-104.76
-123.20
-137.78
-148.63
-154.88
-154.84
-147.14
-131.94
-111.38
-88.93
-68.06
-51.10
-38.81
-30.70
-25.75
-23.10
-22.22
-22.65
-23.75
-24.72
-24.85
-23.81
-21.61
-18.72
-16.10
-14.96
-16.21
-19.99
-25.68
-32.09
-37.82
-41.34
-41.60
-38.80
-34.27
-29.61
-26.03
-24.12
-23.86
-24.70
-25.28
-24.06
-20.87
-17.46
-16.55
-20.58
-30.67
-45.57
-61.43
-71.91
-70.48
-53.96
-23.87
14.94
56.51
95.62
128.99
150.65
154.79
143.18
123.82
103.48
84.99
69.04
55.79
45.15
36.80
30.76
27.24
25.55
24.24
22.36
20.25
19.00
19.64
22.25
26.04
29.35
29.62
25.02
15.19
2.28
-10.14
-18.93
-22.76
-22.00
-18.12
-13.06
-8.29
-4.22
-0.31
4.00
8.56
12.59
15.25
16.19
15.44
13.40
10.81
8.58
7.40
7.61
9.24
11.90
14.80
17.00
17.79
16.92
14.57
11.04
6.36
0.25
-7.47
-16.33
-24.82
-30.71
-31.91
-27.46
-18.12
-6.08
5.97
16.15
24.23
31.37
39.12
48.08
57.18
64.30
67.53
66.64
63.51
61.31
62.68
68.31
76.37
83.48
86.33
83.04
73.33
57.63
36.55
10.92
-17.22
-43.98
-64.34
-74.30
-73.40
-65.62
-57.85
-56.56
-64.58
-79.89
-97.23
-111.28
-119.42
-122.58
-123.96
-126.91
-133.65
-145.07
-161.50
-183.31
-210.55
-241.96
-274.25
-302.24
-320.09
-323.29
-310.20
-282.51
-244.53
-201.60
-158.36
-117.58
-79.90
-44.25
-9.05
26.83
63.29
98.87
131.22
158.05
178.02
191.13
198.58
201.94
202.28
199.86
194.28
185.29
173.44
160.16
147.27
136.18
127.17
119.46
111.75
103.12
93.56
83.93
75.34
68.33
62.49
56.57
49.27
40.10
29.71
19.79
12.14
7.79
6.43
6.75
7.10
6.45
4.73
2.65
1.17
0.87
1.89
4.04
7.03
10.62
14.49
17.99
20.06
19.22
13.99
3.42
-12.31
-31.59
-51.67
-69.33
-81.83
-87.77
-87.36
-82.17
-74.40
-66.28
-59.42
-54.76
-52.57
-52.48
-53.58
-54.53
-54.05
-51.47
-47.22
-42.77
-40.00
-40.17
-43.13
-47.19
-49.72
-48.24
-41.31
-28.92
-12.34
6.33
24.61
39.92
49.86
52.79
48.45
38.61
26.87
17.83
15.59
22.27
37.21
57.18
77.71
94.59
105.33
109.67
109.21
106.53
104.08
103.59
106.04
111.93
121.53
134.72
150.63
167.24
181.57
190.54
192.11
186.22
174.71
160.33
145.30
130.27
114.21
95.48
73.10
47.42
19.68
-9.42
-40.64
-75.99
-117.01
-162.44
-206.94
-242.04
-259.15
-253.44
-226.24
-184.64
-138.57
-96.80
-64.18
-41.33
-26.49
-17.83
-14.79
-17.57
-25.58
-36.42
-46.01
-50.37
-47.57
-38.75
-27.49
-17.94
-12.88
-12.74
-15.89
-19.81
-22.39
-22.62
-20.64
-17.37
-14.11
-12.04
-11.85
-13.43
-15.89
-17.90
-18.30
-16.69
-13.69
-10.39
-7.64
-5.34
-2.33
3.05
12.01
24.64
39.87
55.99
71.18
83.80
92.22
94.57
89.01
74.53
51.93
24.36
-3.24
-25.70
-39.44
-43.65
-40.22
-32.35
-22.88
-13.19
-3.27
7.11
17.27
25.29
28.94
27.50
23.19
21.24
28.15
48.64
83.11
126.79
171.25
207.44
228.90
233.30
221.96
198.00
164.42
123.33
76.38
25.77
-25.14
-72.16
-111.44
-140.79
-160.37
-172.52
-180.98
-189.73
-201.88
-218.81
-239.55
-260.65
-276.86
-282.38
-272.48
-244.71
-199.57
-140.25
-72.03
-1.56
63.92
117.60
154.50
172.81
174.64
165.45
152.19
141.01
135.30
135.15
138.37
142.20
144.71
145.46
145.15
144.74
144.75
144.79
143.64
139.82
132.45
121.89
110.10
100.10
94.71
95.16
100.12
105.98
108.37
104.12
92.17
73.44
49.42
21.19
-10.40
-44.09
-77.25
-105.70
-125.14
-133.70
-133.27
-129.22
-127.90
-132.97
-144.64
-160.29
-176.17
-189.66
-200.98
-212.36
-226.38
-243.70
-261.09
-273.54
-276.35
-266.41
-242.71
-206.95
-162.02
-111.15
-57.08
-1.04
54.63
105.16
144.86
169.32
176.76
169.68
154.09
129.91
103.79
85.50
79.79
83.76
93.54
103.09
108.96
109.97
106.90
99.49
89.46
78.18
66.79
56.17
46.13
36.01
24.76
11.47
-3.51
-19.67
-37.12
-55.50
-73.24
-88.29
-98.51
-103.13
-103.22
-100.96
-99.08
-100.04
-104.31
-109.96
-113.95
-113.54
-107.71
-97.48
-84.89
-72.07
-60.66
-51.16
-43.02
-35.52
-28.19
-21.15
-14.91
-9.97
-6.52
-4.60
-4.07
-4.68
-6.20
-8.43
-11.21
-14.36
-17.56
-20.27
-21.85
-21.72
-19.63
-16.04
-12.24
-10.13
-11.48
-17.06
-25.99
-35.76
-42.78
-43.54
-35.42
-17.33
10.14
44.84
83.20
120.76
152.83
175.72
187.76
189.91
185.38
178.39
172.62
170.03
170.61
172.92
174.88
174.46
170.04
160.50
145.33
124.71
99.53
71.25
41.35
10.95
-19.33
-49.05
-77.58
-103.72
-125.82
-142.21
-151.65
-153.72
-148.96
-138.78
-125.31
-111.10
-98.51
-89.12
-83.30
-80.16
-78.18
-76.02
-73.21
-70.22
-67.90
-66.71
-66.24
-65.54
-63.68
-60.57
-57.03
-54.34
-53.47
-54.49
-56.49
-57.98
-57.31
-53.08
-44.35
-30.84
-13.11
7.37
28.48
47.90
63.96
76.06
84.64
90.56
94.39
95.96
94.59
89.87
82.18
72.92
63.90
56.44
50.83
46.40
42.10
37.28
32.02
27.08
23.32
21.13
20.19
19.71
18.91
17.41
15.33
13.15
11.31
10.09
9.47
9.28
9.35
9.66
10.41
12.05
15.22
20.66
28.76
39.19
50.59
60.65
66.67
66.45
59.24
46.10
29.60
12.82
-1.68
-12.83
-21.22
-28.74
-37.75
-50.13
-66.68
-86.78
-108.53
-129.13
-145.46
-154.72
-155.06
-146.01
-128.57
-105.15
-79.11
-54.25
-34.00
-20.73
