1.593620516000000000e+09
-2.999999999999999889e-02
5.059999999999999609e+00
1.791000000000000014e+01
7.934000000000000341e+01
2.282500000000000000e+02
-4.865000000000000000e+02
-6.309999999999999609e+00
1.544699999999999989e+02
3.850000000000000000e+01
-1.561999999999999922e+01
3.456000000000000227e+01
5.349999999999999645e+00
-1.860000000000000098e+00
6.900000000000000355e+00
2.609999999999999876e+00
-2.101000000000000156e+01
5.349999999999999645e+00
1.000000000000000000e+00
-1.612000000000000099e+01
-1.583000000000000007e+01
3.956000000000000227e+01
2.990000000000000213e+00
-1.067999999999999972e+01
-7.290000000000000036e+00
6.799999999999999822e+00
3.620000000000000107e+00
-1.242999999999999972e+01
5.309999999999999609e+00
2.299999999999999822e+00
-4.759999999999999787e+00
1.600000000000000089e+00
6.809999999999999609e+00
-2.020000000000000018e+00
-1.274000000000000021e+01
7.740000000000000213e+00
2.229999999999999982e+00
-9.949999999999999289e+00
6.089999999999999858e+00
4.509999999999999787e+00
-6.669999999999999929e+00
1.889999999999999902e+00
1.041000000000000014e+01
-3.939999999999999947e+00
-1.144999999999999929e+01
9.259999999999999787e+00
-2.399999999999999911e-01
-1.261999999999999922e+01
7.639999999999999680e+00
6.639999999999999680e+00
-3.250000000000000000e+00
-9.499999999999999556e-01
8.669999999999999929e+00
9.399999999999999467e-01
-1.251999999999999957e+01
1.166000000000000014e+01
2.040000000000000036e+00
-1.198000000000000043e+01
1.620000000000000107e+00
6.530000000000000249e+00
-1.239999999999999991e+00
-9.130000000000000782e+00
6.089999999999999858e+00
1.409999999999999920e+00
-8.560000000000000497e+00
7.259999999999999787e+00
6.360000000000000320e+00
-6.070000000000000284e+00
-8.160000000000000142e+00
4.299999999999999822e+00
1.090000000000000080e+00
-7.290000000000000036e+00
4.360000000000000320e+00
4.000000000000000083e-02
-5.330000000000000071e+00
1.321000000000000085e+01
3.365999999999999659e+01
8.550000000000000000e+01
-1.033999999999999986e+01
2.946999999999999886e+01
-1.253900000000000006e+02
-3.256000000000000227e+01
-7.370999999999999375e+01
1.125999999999999943e+02
-1.403199999999999932e+02
1.492599999999999909e+02
9.893999999999999773e+01
1.015000000000000036e+01
-7.019999999999999574e+00
2.600000000000000089e+00
9.393000000000000682e+01
-5.103999999999999915e+01
-2.700000000000000000e+01
-1.310999999999999943e+01
1.419999999999999929e+00
-6.269999999999999574e+00
-1.969999999999999973e+00
8.500000000000000000e+00
4.177000000000000313e+01
-5.519999999999999574e+00
1.572000000000000064e+01
1.103999999999999915e+01
-7.370000000000000107e+00
-3.806000000000000227e+01
2.510999999999999943e+01
2.014999999999999858e+01
-1.139999999999999902e+00
1.395500000000000114e+02
-6.310000000000000142e+01
-8.923000000000000398e+01
-4.252000000000000313e+01
3.639999999999999858e+01
-1.799999999999999933e-01
-2.032999999999999829e+01
-6.281000000000000227e+01
7.034999999999999432e+01
-2.089999999999999858e+01
-9.369999999999999218e+00
3.250000000000000000e+01
1.481000000000000050e+01
-9.169999999999999929e+00
-9.799999999999999822e-01
2.439999999999999947e+00
-6.860000000000000320e+00
-9.970000000000000639e+00
1.070000000000000062e+00
-2.279999999999999805e+00
-2.417000000000000171e+01
2.528000000000000114e+01
-2.669999999999999929e+01
1.284999999999999964e+01
4.330000000000000071e+00
8.460000000000000853e+00
-2.750000000000000000e+00
4.199999999999999845e-01
-1.033000000000000007e+01
-1.621000000000000085e+01
1.679999999999999938e+00
4.950000000000000178e+00
1.184999999999999964e+01
-1.921000000000000085e+01
2.796999999999999886e+01
-7.530000000000000249e+00
-1.755999999999999872e+01
-8.740000000000000213e+00
1.919999999999999929e+01
1.466999999999999993e+01
-1.233999999999999986e+01
8.009999999999999787e+00
5.540000000000000036e+00
-1.055000000000000071e+01
-4.099999999999999645e+00
1.125999999999999979e+01
5.019999999999999574e+00
-1.235999999999999943e+01
-2.020000000000000018e+00
-3.910000000000000142e+00
-2.585999999999999943e+01
1.159999999999999964e+01
2.407000000000000028e+01
9.019999999999999574e+00
-6.049999999999999822e+00
1.475000000000000000e+01
1.310000000000000053e+00
-8.339999999999999858e+00
-4.500000000000000111e-01
1.132000000000000028e+01
2.226000000000000156e+01
-2.487000000000000099e+01
-1.393999999999999950e+01
-5.999999999999999778e-01
-6.959999999999999964e+00
-3.950000000000000178e+00
5.400000000000000355e+00
1.469999999999999973e+00
-9.250000000000000000e+00
5.809999999999999609e+00
4.889999999999999680e+00
-6.610000000000000320e+00
-3.148000000000000043e+01
-6.920999999999999375e+01
1.337100000000000080e+02
-1.821999999999999886e+01
-2.892999999999999972e+01
-1.821999999999999886e+01
-5.160000000000000142e+00
-2.589999999999999858e+00
1.143999999999999950e+01
7.700000000000000178e-01
-1.069999999999999929e+01
1.712000000000000099e+01
1.282700000000000102e+02
-6.871999999999999886e+01
3.058999999999999986e+01
2.233999999999999986e+01
-8.640000000000000568e+00
-3.112000000000000099e+01
-1.655999999999999872e+01
4.099999999999999645e+00
-2.337999999999999901e+01
8.490000000000000213e+00
6.042999999999999972e+01
-3.406000000000000227e+01
-1.867000000000000171e+01
2.280999999999999872e+01
3.720000000000000195e+00
-1.308999999999999986e+01
1.709999999999999964e+00
-1.341999999999999993e+01
-1.842000000000000171e+01
-2.399999999999999911e-01
5.799999999999999600e-01
-4.500999999999999801e+01
7.454999999999999716e+01
-1.249000000000000021e+01
-2.407999999999999829e+01
-5.643999999999999773e+01
5.789000000000000057e+01
-1.848000000000000043e+01
-2.023999999999999844e+01
-5.200000000000000178e+00
7.940000000000000391e+00
1.561999999999999922e+01
-8.599999999999999867e-01
1.586999999999999922e+01
-2.580000000000000071e+00
-2.782999999999999829e+01
-4.221000000000000085e+01
7.371999999999999886e+01
-2.259999999999999787e+00
-3.232000000000000028e+01
-4.695000000000000284e+01
7.460999999999999943e+01
-1.601999999999999957e+01
-9.869999999999999218e+00
-3.049999999999999822e+00
-1.928000000000000114e+01
1.540000000000000036e+00
1.366000000000000014e+01
-1.100000000000000006e-01
-1.324000000000000021e+01
7.469999999999999751e+00
4.719999999999999751e+00
-1.081000000000000050e+01
8.259999999999999787e+00
8.070000000000000284e+00
-5.570000000000000284e+00
-4.259999999999999787e+00
4.929999999999999716e+00
-8.810000000000000497e+00
-1.349000000000000021e+01
-7.099999999999999645e-01
-2.430000000000000071e+01
6.017999999999999972e+01
3.352000000000000313e+01
-1.044999999999999929e+01
1.901000000000000156e+01
1.182800000000000011e+02
-7.349999999999999645e+00
-1.106099999999999994e+02
-7.968000000000000682e+01
4.202000000000000313e+01
-8.699999999999999956e-01
-9.960000000000000853e+00
-3.527000000000000313e+01
-2.025000000000000000e+01
3.864999999999999858e+01
6.679999999999999716e+00
9.509999999999999787e+00
1.417999999999999972e+01
-1.929999999999999938e+00
-6.500000000000000000e+00
5.929999999999999716e+00
9.779999999999999361e+00
-1.389000000000000057e+01
5.950000000000000178e+00
4.750000000000000000e+00
-3.169999999999999929e+00
-4.349999999999999645e+00
1.575000000000000000e+01
1.066999999999999993e+01
-2.567000000000000171e+01
-2.687999999999999901e+01
7.821999999999999886e+01
4.332999999999999829e+01
-3.148000000000000043e+01
-1.714999999999999858e+01
-4.277000000000000313e+01
-2.441000000000000014e+01
-1.183000000000000007e+01
3.963000000000000256e+01
6.179999999999999716e+00
6.599999999999999645e+00
-2.089000000000000057e+01
-2.992000000000000171e+01
8.980000000000000426e+00
2.933999999999999986e+01
-4.089999999999999858e+01
1.002999999999999936e+01
-5.260999999999999943e+01
8.304000000000000625e+01
-8.801999999999999602e+01
-7.437000000000000455e+01
1.032600000000000051e+02
1.588000000000000078e+01
-2.510000000000000142e+01
-2.846999999999999886e+01
7.998000000000000398e+01
1.616000000000000014e+01
-3.339999999999999858e+00
4.730000000000000426e+00
-2.500000000000000000e+00
-2.178999999999999915e+01
-1.397000000000000064e+01
-2.855000000000000071e+01
4.963000000000000256e+01
-1.314000000000000057e+01
3.279999999999999805e+00
-1.533999999999999986e+01
-1.917999999999999972e+01
-1.655999999999999872e+01
-1.429999999999999938e+00
5.874000000000000199e+01
-3.403000000000000114e+01
-1.003999999999999915e+01
-1.515000000000000036e+01
1.366999999999999993e+01
1.075000000000000000e+01
9.800000000000000711e+00
-1.508000000000000007e+01
-1.022000000000000064e+01
1.679999999999999938e+00
-8.919999999999999929e+00
-1.081000000000000050e+01
3.149999999999999911e+00
2.369999999999999929e+01
-4.545000000000000284e+01
6.623999999999999488e+01
1.973999999999999844e+01
-1.555000000000000071e+01
-9.529999999999999361e+00
-9.849999999999999645e+00
-1.361999999999999922e+01
-3.900000000000000000e+01
7.796999999999999886e+01
4.000000000000000222e-01
-1.386999999999999922e+01
-3.000000000000000000e+00
-2.521999999999999886e+01
4.065999999999999659e+01
-2.012000000000000099e+01
2.970000000000000195e+00
-6.269999999999999574e+00
-3.250999999999999801e+01
4.532000000000000028e+01
2.160000000000000142e+00
-1.896000000000000085e+01
-1.116999999999999993e+01
4.219999999999999751e+00
-3.679999999999999716e+01
4.336999999999999744e+01
-2.290000000000000036e+00
2.450000000000000178e+00
-6.259999999999999787e+00
4.230000000000000426e+00
5.480000000000000426e+00
-5.040000000000000036e+00
-1.321000000000000085e+01
-2.700000000000000178e-01
-6.929999999999999716e+00
-2.242000000000000171e+01
2.264000000000000057e+01
1.166999999999999993e+01
-7.399999999999999911e-01
1.169999999999999929e+00
7.269999999999999574e+00
-8.800000000000000044e-01
-1.040000000000000036e+01
9.519999999999999574e+00
1.969999999999999973e+00
-1.063000000000000078e+01
1.020000000000000018e+00
7.959999999999999964e+00
-2.979999999999999982e+00
-9.810000000000000497e+00
9.380000000000000782e+00
2.399999999999999911e+00
-9.349999999999999645e+00
1.669999999999999929e+01
3.664000000000000057e+01
-2.758999999999999986e+01
-1.782999999999999829e+01
-3.814000000000000057e+01
8.312999999999999545e+01
-1.735999999999999943e+01
-1.603000000000000114e+01
-2.160999999999999943e+01
1.034999999999999964e+01
2.241000000000000014e+01
1.078999999999999915e+01
-2.608999999999999986e+01
-3.485999999999999943e+01
-4.070000000000000284e+00
4.840999999999999659e+01
-3.210999999999999943e+01
-7.370000000000000107e+00
3.240000000000000213e+00
-2.500000000000000000e+00
1.725000000000000000e+01
2.132999999999999829e+01
-4.553999999999999915e+01
-1.281899999999999977e+02
1.117500000000000000e+02
1.293999999999999950e+01
1.035699999999999932e+02
-3.133399999999999750e+02
4.072999999999999687e+01
1.166999999999999993e+01
-1.047900000000000063e+02
6.360000000000000320e+00
-1.395900000000000034e+02
1.830699999999999932e+02
-3.688000000000000256e+01
-1.777199999999999989e+02
-6.221999999999999886e+01
4.467000000000000171e+01
4.277000000000000313e+01
-1.792999999999999972e+01
-1.001999999999999957e+01
1.230000000000000071e+01
2.469999999999999929e+01
3.614999999999999858e+01
-4.877000000000000313e+01
-2.634200000000000159e+02
1.280699999999999932e+02
7.810999999999999943e+01
6.242999999999999972e+01
7.585999999999999943e+01
-3.061499999999999773e+02
8.609000000000000341e+01
9.168999999999999773e+01
-7.053000000000000114e+01
9.221999999999999886e+01
-3.860000000000000142e+01
-1.234999999999999964e+01
-5.300000000000000000e+01
1.536800000000000068e+02
-7.709999999999999964e+00
-3.875999999999999801e+01
-5.760999999999999943e+01
7.623999999999999488e+01
8.157999999999999829e+01
-1.324000000000000021e+01
7.962999999999999545e+01
-4.002000000000000313e+01
1.892800000000000011e+02
9.119999999999999218e+00
5.721000000000000085e+01
-5.795900000000000318e+02
8.195000000000000284e+01
1.007399999999999949e+02
-4.642999999999999972e+01
1.987000000000000099e+01
-4.967000000000000171e+01
3.763000000000000256e+01
6.346000000000000085e+01
1.975600000000000023e+02
-1.729699999999999989e+02
-6.204999999999999716e+01
4.211999999999999744e+01
-7.401999999999999602e+01
-2.309699999999999989e+02
5.992999999999999972e+01
-3.385999999999999943e+01
1.392800000000000011e+02
-7.459000000000000341e+01
3.472300000000000182e+02
-1.652299999999999898e+02
-1.997700000000000102e+02
-9.276999999999999602e+01
-1.403700000000000045e+02
1.818400000000000034e+02
1.375000000000000000e+02
3.821999999999999886e+01
2.462999999999999901e+01
4.000000000000000222e-01
6.820000000000000284e+00
1.828000000000000114e+01
8.695999999999999375e+01
2.712599999999999909e+02
-1.789199999999999875e+02
-2.085399999999999920e+02
-8.856000000000000227e+01
-1.273000000000000043e+01
4.949000000000000199e+01
2.810000000000000142e+01
-6.770000000000000284e+01
-1.671999999999999886e+02
1.233700000000000045e+02
2.660000000000000142e+01
-1.365000000000000036e+01
-9.798000000000000398e+01
1.796000000000000085e+01
3.300999999999999801e+01
9.109999999999999432e+01
-3.435000000000000142e+01
3.141200000000000045e+02
-1.532000000000000028e+01
-2.398100000000000023e+02
-4.489000000000000057e+01
5.064000000000000057e+01
2.103199999999999932e+02
-4.610999999999999943e+01
-3.553000000000000114e+01
4.545000000000000284e+01
5.600000000000000000e+01
-1.767999999999999972e+01
-5.999999999999999778e-01
3.460000000000000142e+01
-7.179999999999999716e+00
-3.527000000000000313e+01
-4.169999999999999929e+00
5.306000000000000227e+01
-1.018100000000000023e+02
-5.478000000000000114e+01
1.105999999999999943e+02
1.618400000000000034e+02
2.483999999999999986e+01
-7.059999999999999432e+01
1.116999999999999993e+01
1.075000000000000000e+01
-7.700000000000000178e-01
-2.501999999999999957e+01
-3.850000000000000089e+00
5.464999999999999858e+01
4.059999999999999609e+00
-6.389999999999999680e+00
2.600000000000000089e-01
-1.133000000000000007e+01
-4.014999999999999858e+01
2.114999999999999858e+01
-6.059999999999999609e+00
-9.269999999999999574e+00
3.129999999999999893e+00
4.032000000000000028e+01
5.570000000000000284e+00
3.094000000000000128e+01
-4.927000000000000313e+01
2.314999999999999858e+01
4.559000000000000341e+01
-8.999999999999999667e-02
5.969999999999999751e+00
-3.936999999999999744e+01
-2.494000000000000128e+01
1.292800000000000011e+02
-4.543999999999999773e+01
-6.067999999999999972e+01
6.901999999999999602e+01
5.204999999999999716e+01
-1.223599999999999994e+02
1.082000000000000028e+01
6.203999999999999915e+01
-2.194999999999999929e+01
2.514000000000000057e+01
3.228999999999999915e+01
5.235999999999999943e+01
-1.633000000000000114e+02
5.825000000000000000e+01
6.829999999999999716e+01
1.433300000000000125e+02
-1.520699999999999932e+02
-2.214000000000000057e+01
4.453000000000000114e+01
3.384000000000000341e+01
-3.330000000000000071e+00
3.540000000000000036e+00
-5.210000000000000142e+01
-1.998000000000000043e+01
-3.361999999999999744e+01
1.058000000000000007e+01
-2.029999999999999805e+00
-2.625000000000000000e+01
1.466000000000000014e+01
6.014000000000000057e+01
5.909000000000000341e+01
-2.301999999999999957e+01
4.214000000000000057e+01
-6.349000000000000199e+01
-2.628000000000000114e+01
-1.586999999999999922e+01
3.249000000000000199e+01
3.020000000000000018e+00
-2.642000000000000171e+01
9.750000000000000000e+00
3.198999999999999844e+01
7.900000000000000355e-01
-5.150000000000000355e+00
5.809999999999999609e+00
1.070000000000000062e+00
4.000000000000000000e+00
-2.860999999999999943e+01
1.630999999999999872e+01
2.219000000000000128e+01
-1.935999999999999943e+01
-1.632000000000000028e+01
2.394000000000000128e+01
1.224000000000000021e+01
-2.287000000000000099e+01
-4.299999999999999822e+00
1.964000000000000057e+01
-4.200000000000000178e+00
-2.021999999999999886e+01
2.333999999999999986e+01
1.478999999999999915e+01
-2.605999999999999872e+01
-4.809999999999999609e+00
1.805999999999999872e+01
7.120000000000000107e+00
-2.107999999999999829e+01
1.402999999999999936e+01
5.139999999999999680e+00
-1.932999999999999829e+01
3.839999999999999858e+00
2.346999999999999886e+01
3.459999999999999964e+00
-6.532999999999999829e+01
7.276999999999999602e+01
-4.496999999999999886e+01
-2.351999999999999957e+01
-2.851999999999999957e+01
1.314000000000000057e+01
-4.009999999999999787e+00
-1.605999999999999872e+01
-3.200000000000000178e+00
2.203999999999999915e+01
-4.889999999999999680e+00
-3.610000000000000142e+01
2.819999999999999929e+01
2.955999999999999872e+01
-4.450000000000000178e+00
-1.352999999999999936e+01
-4.480000000000000426e+00
2.455999999999999872e+01
-5.596000000000000085e+01
-2.337999999999999901e+01
1.050999999999999979e+01
2.767000000000000171e+01
-3.540999999999999659e+01
1.912999999999999901e+01
1.723000000000000043e+01
-1.798999999999999844e+01
-6.530000000000000249e+00
7.419999999999999929e+00
7.160000000000000142e+00
-2.878000000000000114e+01
-3.499999999999999778e-01
1.607000000000000028e+01
1.322000000000000064e+01
-2.548000000000000043e+01
3.120000000000000107e+00
1.128999999999999915e+01
-3.032999999999999829e+01
9.359999999999999432e+00
7.214000000000000057e+01
-2.407000000000000028e+01
-6.392000000000000171e+01
1.692999999999999972e+01
1.973000000000000043e+01
-1.136999999999999922e+01
-9.612000000000000455e+01
9.070999999999999375e+01
1.361999999999999922e+01
2.428000000000000114e+01
1.232000000000000028e+01
-4.181000000000000227e+01
-6.610000000000000320e+00
-5.071999999999999886e+01
-2.121000000000000085e+01
-8.673999999999999488e+01
9.659000000000000341e+01
1.479799999999999898e+02
-2.757000000000000028e+01
6.780000000000000249e+00
-2.205000000000000071e+01
4.172999999999999687e+01
-1.367999999999999972e+01
3.096000000000000085e+01
-5.572999999999999687e+01
1.567999999999999972e+01
-4.060999999999999943e+01
4.835000000000000142e+01
3.169999999999999929e+00
3.434000000000000341e+01
3.300000000000000155e-01
-2.419000000000000128e+01
-4.509999999999999787e+00
1.748000000000000043e+01
5.900000000000000355e+00
-5.217000000000000171e+01
3.058999999999999986e+01
3.370000000000000284e+01
-4.696000000000000085e+01
-4.310999999999999943e+01
7.045999999999999375e+01
1.580000000000000071e+01
-5.768999999999999773e+01
-5.617000000000000171e+01
1.739000000000000057e+01
9.329999999999999716e+01
6.156000000000000227e+01
-2.196000000000000085e+01
-3.822999999999999687e+01
-6.890999999999999659e+01
1.243900000000000006e+02
1.068100000000000023e+02
-1.653999999999999915e+01
-7.112000000000000455e+01
-7.919999999999999929e+00
-6.330000000000000071e+00
2.273000000000000043e+01
7.712999999999999545e+01
1.803999999999999915e+01
-6.450000000000000000e+01
1.238000000000000078e+01
4.010000000000000142e+01
1.010999999999999943e+01
-1.768000000000000114e+02
8.481000000000000227e+01
4.409000000000000341e+01
-1.696999999999999886e+01
-3.137999999999999901e+01
-2.692000000000000171e+01
-5.899999999999999689e-01
-3.450000000000000178e+00
5.246999999999999886e+01
4.780000000000000249e+00
-2.262000000000000099e+01
-2.294999999999999929e+01
1.914000000000000057e+01
1.086999999999999922e+01
-1.682000000000000028e+01
7.900000000000000355e-01
-4.030000000000000249e+00
-8.328000000000000114e+01
2.139999999999999858e+01
5.345000000000000284e+01
-8.230000000000000426e+00
-4.671999999999999886e+01
1.629999999999999893e+00
-3.743999999999999773e+01
8.773000000000000398e+01
9.923000000000000398e+01
-8.834000000000000341e+01
-3.767000000000000171e+01
-1.615399999999999920e+02
3.175000000000000000e+01
2.450000000000000000e+01
1.241999999999999993e+01
-3.382000000000000028e+01
9.931000000000000227e+01
-5.031000000000000227e+01
3.840999999999999659e+01
-2.117999999999999972e+01
-1.102000000000000028e+02
1.441000000000000014e+01
5.296000000000000085e+01
2.117999999999999972e+01
-9.599999999999999645e+00
-2.053999999999999915e+01
7.134000000000000341e+01
2.280000000000000071e+01
1.964000000000000057e+01
-3.742999999999999972e+01
-8.230000000000000426e+00
-5.519999999999999574e+00
-4.009000000000000341e+01
1.121000000000000085e+01
1.348000000000000043e+01
1.189999999999999947e+00
-2.717000000000000171e+01
1.607999999999999829e+01
7.009999999999999787e+00
-3.399999999999999911e+00
-1.669999999999999929e+00
-1.629999999999999893e+00
-2.389999999999999858e+01
2.100000000000000089e+00
1.882000000000000028e+01
1.535999999999999943e+01
-3.779999999999999805e+00
-1.989000000000000057e+01
1.739999999999999858e+01
1.013000000000000078e+01
-1.603999999999999915e+01
-5.799999999999999600e-01
2.407999999999999829e+01
5.549999999999999822e+00
-2.628999999999999915e+01
4.839999999999999858e+00
-1.655000000000000071e+01
-3.347999999999999687e+01
3.900000000000000133e-01
2.300000000000000000e+01
6.589999999999999858e+00
-2.616000000000000014e+01
1.614000000000000057e+01
1.560999999999999943e+01
-3.720000000000000195e+00
-1.458000000000000007e+01
2.500000000000000000e+00
-1.110000000000000098e+00
3.486999999999999744e+01
-2.969999999999999929e+01
-4.739000000000000057e+01
-3.182999999999999829e+01
-9.350000000000000000e+01
2.517000000000000171e+01
8.240000000000000213e+00
3.917999999999999972e+01
2.299999999999999822e+00
-1.080499999999999972e+02
-1.393199999999999932e+02
9.356000000000000227e+01
4.469999999999999751e+00
-7.000000000000000666e-02
-2.237999999999999901e+01
3.668999999999999773e+01
7.954000000000000625e+01
-3.020000000000000018e+00
-7.578000000000000114e+01
3.353999999999999915e+01
1.371000000000000085e+01
-1.538000000000000078e+01
9.150000000000000355e+00
6.675000000000000000e+01
-1.092999999999999972e+01
-6.078000000000000114e+01
1.773000000000000043e+01
-4.703000000000000114e+01
7.650000000000000355e+00
2.200000000000000011e-01
1.566999999999999993e+01
-8.523000000000000398e+01
4.971000000000000085e+01
-1.389000000000000057e+01
-3.050000000000000000e+01
-9.587999999999999545e+01
3.992999999999999972e+01
3.150000000000000000e+01
-7.200000000000000178e+00
-2.678999999999999915e+01
5.532000000000000028e+01
-4.177000000000000313e+01
2.578999999999999915e+01
1.364000000000000057e+01
-8.023000000000000398e+01
-1.325000000000000000e+01
1.000000000000000000e+01
1.900000000000000022e-01
2.410000000000000142e+00
-2.337999999999999901e+01
4.292999999999999972e+01
-2.387999999999999901e+01
-3.125000000000000000e+01
2.146000000000000085e+01
1.341999999999999993e+01
1.799999999999999933e-01
-3.171000000000000085e+01
2.060000000000000142e+01
9.849999999999999645e+00
-2.082999999999999829e+01
3.200000000000000067e-01
1.433000000000000007e+01
-1.229999999999999982e+00
1.246000000000000085e+01
-4.589999999999999858e+00
-9.880000000000000782e+00
-2.107999999999999829e+01
5.950000000000000178e+00
2.098000000000000043e+01
-4.482999999999999829e+01
4.400999999999999801e+01
6.780000000000000249e+00
7.559999999999999609e+00
4.746000000000000085e+01
-2.637999999999999901e+01
1.070000000000000062e+00
3.400999999999999801e+01
-6.339999999999999858e+00
-2.328999999999999915e+01
-2.235999999999999943e+01
6.000000000000000000e+00
-2.826999999999999957e+01
-1.560000000000000053e+00
6.311999999999999744e+01
8.539999999999999147e+00
-1.885999999999999943e+01
-3.133999999999999986e+01
7.226000000000000512e+01
1.116000000000000014e+01
-4.049000000000000199e+01
-8.150000000000000355e+00
-7.160000000000000142e+00
-2.708999999999999986e+01
-2.990000000000000213e+00
-3.010999999999999943e+01
1.639999999999999858e+01
1.660999999999999943e+01
6.129999999999999893e+00
-1.292999999999999972e+01
-2.928999999999999915e+01
-4.269999999999999574e+00
-2.137000000000000099e+01
9.145000000000000284e+01
-3.254999999999999716e+01
-4.646000000000000085e+01
2.629999999999999893e+00
5.192999999999999972e+01
-2.473999999999999844e+01
-2.951999999999999957e+01
-6.053000000000000114e+01
4.992999999999999972e+01
4.360000000000000320e+00
-9.509999999999999787e+00
-2.607000000000000028e+01
1.491999999999999993e+01
1.149000000000000021e+01
-1.000999999999999979e+01
-3.829999999999999716e+01
7.204999999999999716e+01
6.080000000000000071e+00
-2.301000000000000156e+01
2.099999999999999922e-01
-2.149999999999999911e+00
-1.571000000000000085e+01
-4.697999999999999687e+01
1.402999999999999936e+01
1.685999999999999943e+01
-3.610000000000000142e+01
1.182800000000000011e+02
-8.300000000000000000e+01
8.395999999999999375e+01
-7.800000000000000266e-01
-4.450000000000000000e+01
4.169999999999999929e+00
-1.068999999999999950e+01
-2.359999999999999876e+00
1.825000000000000000e+01
-2.028999999999999915e+01
1.598000000000000043e+01
6.690000000000000568e+01
-2.801000000000000156e+01
1.064200000000000017e+02
2.237999999999999901e+01
1.603999999999999915e+01
-4.297999999999999687e+01
-2.364999999999999858e+01
5.721999999999999886e+01
-3.542000000000000171e+01
-9.217000000000000171e+01
-2.385000000000000142e+01
4.597999999999999687e+01
1.758999999999999986e+01
-8.418000000000000682e+01
-1.826000000000000156e+01
2.176000000000000156e+01
-9.330000000000000071e+00
-2.476000000000000156e+01
1.560999999999999943e+01
4.092000000000000171e+01
-8.210000000000000853e+00
1.464000000000000057e+01
4.778000000000000114e+01
-1.878000000000000114e+01
-9.779999999999999361e+00
-5.620000000000000107e+00
-4.072999999999999687e+01
-4.750000000000000000e+00
1.214000000000000057e+01
-6.309999999999999609e+00
-1.828999999999999915e+01
2.729999999999999982e+00
3.669999999999999929e+00
1.976000000000000156e+01
3.669999999999999929e+00
-6.500000000000000222e-01
-7.080000000000000071e+00
-1.935000000000000142e+01
-2.144999999999999929e+01
-9.390000000000000568e+00
-3.003999999999999915e+01
1.862000000000000099e+01
2.164999999999999858e+01
-4.603000000000000114e+01
-2.001000000000000156e+01
9.599999999999999645e+00
-1.285999999999999943e+01
-1.860000000000000098e+00
4.897999999999999687e+01
-3.133999999999999986e+01
-3.017999999999999972e+01
7.679999999999999716e+00
-7.129999999999999893e+00
8.480000000000000426e+00
-6.339999999999999858e+00
-1.366000000000000014e+01
-2.020000000000000018e+00
2.742000000000000171e+01
2.119999999999999929e+01
1.140000000000000036e+01
-2.707000000000000028e+01
-3.422999999999999687e+01
3.198000000000000043e+01
-1.803999999999999915e+01
-3.467000000000000171e+01
1.960000000000000142e+01
2.109999999999999876e+00
-2.842000000000000171e+01
1.260000000000000009e+00
6.299999999999999822e+00
2.310000000000000142e+01
-4.211999999999999744e+01
2.492999999999999972e+01
2.257000000000000028e+01
-4.146000000000000085e+01
-1.209999999999999964e+01
2.723999999999999844e+01
4.735999999999999943e+01
3.496999999999999886e+01
-1.068900000000000006e+02
1.272600000000000051e+02
1.530000000000000071e+01
-4.382999999999999829e+01
3.413000000000000256e+01
2.130000000000000071e+01
2.682000000000000028e+01
-8.240000000000000213e+00
-1.773999999999999844e+01
-3.048999999999999844e+01
1.075000000000000000e+01
7.950000000000000178e+00
-1.764999999999999858e+01
-1.311999999999999922e+01
1.010999999999999943e+01
-3.770000000000000018e+00
-3.706000000000000227e+01
1.633999999999999986e+01
-1.280000000000000027e+00
-3.779999999999999716e+01
1.373000000000000043e+01
3.989999999999999858e+01
3.775999999999999801e+01
-4.742000000000000171e+01
6.017000000000000171e+01
-7.896999999999999886e+01
-5.943999999999999773e+01
2.919999999999999929e+00
2.864000000000000057e+01
-1.300000000000000044e+00
-2.348999999999999844e+01
1.783999999999999986e+01
1.199000000000000021e+01
-1.069999999999999929e+01
2.510000000000000142e+01
3.789999999999999858e+01
-6.550000000000000000e+01
8.759999999999999787e+00
5.720000000000000284e+01
1.258000000000000007e+01
3.200000000000000178e+00
2.762999999999999901e+01
-3.176000000000000156e+01
-2.680999999999999872e+01
-1.466999999999999993e+01
2.125000000000000000e+01
-2.410000000000000142e+00
-4.439000000000000057e+01
-3.521999999999999886e+01
5.767999999999999972e+01
-2.703000000000000114e+01
2.871000000000000085e+01
5.368999999999999773e+01
-5.572999999999999687e+01
-8.059000000000000341e+01
5.870000000000000107e+00
3.748000000000000114e+02
-1.772100000000000080e+02
-7.245000000000000284e+01
3.167999999999999972e+01
-4.338000000000000256e+01
-1.083999999999999986e+01
1.350000000000000000e+01
-5.849999999999999645e+00
-3.775000000000000000e+01
2.142999999999999972e+01
8.750000000000000000e+00
-2.992000000000000171e+01
-9.509999999999999787e+00
1.255699999999999932e+02
6.400000000000000355e+00
7.123000000000000398e+01
1.669699999999999989e+02
-3.450999999999999801e+01
-1.134999999999999964e+01
3.831000000000000227e+01
-5.764000000000000057e+01
-1.196599999999999966e+02
8.751000000000000512e+01
5.899000000000000199e+01
1.077399999999999949e+02
-1.193799999999999955e+02
1.328899999999999864e+02
5.239000000000000057e+01
1.700099999999999909e+02
-8.792000000000000171e+01
-4.802000000000000313e+01
-1.689000000000000057e+02
7.339000000000000057e+01
1.497800000000000011e+02
-1.578600000000000136e+02
2.710199999999999818e+02
-1.170000000000000000e+02
-5.560000000000000142e+01
1.144500000000000028e+02
8.823000000000000398e+01
-2.996999999999999886e+01
-9.551000000000000512e+01
1.913100000000000023e+02
-2.003000000000000114e+01
-1.182500000000000000e+02
-4.217999999999999972e+01
2.640299999999999727e+02
-7.531000000000000227e+01
2.300000000000000100e-01
-3.135999999999999943e+01
-2.571000000000000085e+01
4.203999999999999915e+01
1.030000000000000027e+00
-9.059999999999999432e+01
-7.165000000000000568e+01
1.915900000000000034e+02
4.227000000000000313e+01
-1.200999999999999943e+02
2.944000000000000128e+01
-1.317999999999999972e+01
-5.097999999999999687e+01
8.970000000000000639e+00
1.072300000000000040e+02
3.482000000000000028e+01
-1.113799999999999955e+02
-1.610000000000000142e+01
-2.528000000000000114e+01
1.289900000000000091e+02
2.025000000000000000e+01
-8.289999999999999147e+00
1.480000000000000071e+01
5.969999999999999751e+00
8.632999999999999829e+01
-9.723000000000000398e+01
-3.101999999999999886e+02
1.985800000000000125e+02
7.534000000000000341e+01
1.169999999999999929e+00
-8.182999999999999829e+01
-4.000000000000000000e+01
2.687000000000000099e+01
1.215300000000000011e+02
1.967999999999999972e+01
-2.648999999999999844e+01
-2.239000000000000057e+01
-2.330000000000000071e+00
-3.943999999999999773e+01
8.310999999999999943e+01
-1.603700000000000045e+02
6.392000000000000171e+01
1.447500000000000000e+02
4.942000000000000171e+01
-2.009799999999999898e+02
1.448600000000000136e+02
8.945999999999999375e+01
-1.032199999999999989e+02
-2.819000000000000128e+01
-1.962999999999999901e+01
1.528300000000000125e+02
9.953000000000000114e+01
-9.851000000000000512e+01
-5.346999999999999886e+01
9.439000000000000057e+01
2.019000000000000128e+01
2.876000000000000156e+01
-6.668000000000000682e+01
-2.289999999999999858e+01
8.023000000000000398e+01
1.089300000000000068e+02
-3.671299999999999955e+02
8.354000000000000625e+01
2.710699999999999932e+02
5.614000000000000057e+01
-3.450000000000000178e+00
-7.790000000000000036e+00
1.834600000000000080e+02
-6.517000000000000171e+01
-3.112000000000000099e+01
-9.410999999999999943e+01
-2.103999999999999915e+01
5.600999999999999801e+01
8.999999999999999667e-02
5.810999999999999943e+01
1.610999999999999943e+01
-1.478499999999999943e+02
-2.550000000000000000e+01
8.281999999999999318e+01
5.206000000000000227e+01
-1.252999999999999936e+01
-4.070000000000000284e+01
-2.001000000000000156e+01
-5.799999999999999822e+00
1.723000000000000043e+01
-9.529999999999999716e+01
-4.495000000000000284e+01
3.209999999999999964e+00
4.947999999999999687e+01
4.642000000000000171e+01
-3.672999999999999687e+01
-1.564000000000000057e+01
1.855999999999999872e+01
6.475000000000000000e+01
-6.338000000000000256e+01
5.877000000000000313e+01
1.637199999999999989e+02
-3.057000000000000028e+01
-1.760000000000000000e+02
-7.681000000000000227e+01
-3.140099999999999909e+02
2.011500000000000057e+02
1.691200000000000045e+02
-5.578000000000000114e+01
2.803999999999999915e+01
1.878999999999999915e+01
7.342000000000000171e+01
-8.790000000000000568e+01
-6.290000000000000036e+00
5.420000000000000284e+01
-1.149699999999999989e+02
1.339199999999999875e+02
4.392999999999999972e+01
-9.150000000000000355e+00
-2.816000000000000014e+01
-9.162999999999999545e+01
5.693999999999999773e+01
-3.681000000000000227e+01
-5.072999999999999687e+01
1.323600000000000136e+02
2.439999999999999858e+01
-4.415999999999999659e+01
-9.370999999999999375e+01
-3.357000000000000028e+01
1.275999999999999979e+01
-4.165999999999999659e+01
-4.690000000000000391e+00
1.121000000000000085e+01
2.069000000000000128e+01
8.148000000000000398e+01
-1.223900000000000006e+02
-6.189999999999999858e+01
-9.550000000000000711e+00
-5.404999999999999716e+01
6.830000000000000071e+00
-3.427000000000000313e+01
-6.762999999999999545e+01
6.668999999999999773e+01
2.866499999999999773e+02
-2.057400000000000091e+02
-8.650000000000000355e+00
8.573000000000000398e+01
3.270000000000000284e+01
1.086700000000000017e+02
-9.248999999999999488e+01
-5.921999999999999886e+01
-6.706999999999999318e+01
-4.000000000000000083e-02
4.360999999999999943e+01
-1.042900000000000063e+02
-9.490000000000000568e+01
7.996999999999999886e+01
2.087899999999999920e+02
-5.714000000000000057e+01
-6.820999999999999375e+01
1.309300000000000068e+02
-3.899999999999999911e+00
-5.720000000000000284e+01
5.285999999999999943e+01
-4.421000000000000085e+01
-1.035999999999999943e+01
4.770000000000000284e+01
-2.166000000000000014e+01
-3.500999999999999801e+01
4.286999999999999744e+01
1.148000000000000043e+01
2.108999999999999986e+01
1.113900000000000006e+02
-1.410399999999999920e+02
-2.753000000000000114e+01
-1.250999999999999979e+01
5.929999999999999716e+01
4.996999999999999886e+01
8.765000000000000568e+01
-3.160000000000000142e+01
-4.200999999999999801e+01
-2.925899999999999750e+02
4.610999999999999943e+01
1.285600000000000023e+02
6.884999999999999432e+01
-9.443000000000000682e+01
1.725000000000000000e+02
4.730000000000000426e+00
-2.279000000000000057e+02
-1.875699999999999932e+02
1.779900000000000091e+02
4.500000000000000000e+01
-2.239999999999999858e+01
4.049999999999999822e+00
5.759000000000000341e+01
1.141999999999999993e+01
1.450000000000000000e+01
8.137999999999999545e+01
-8.095999999999999375e+01
-2.839000000000000057e+01
8.798999999999999488e+01
-5.253000000000000114e+01
-2.003999999999999915e+01
-4.821000000000000085e+01
2.967000000000000171e+01
1.071000000000000085e+01
-2.396000000000000085e+01
1.882000000000000028e+01
4.728000000000000114e+01
-1.368600000000000136e+02
-2.542000000000000171e+01
1.064000000000000057e+02
1.996699999999999875e+02
-1.524799999999999898e+02
3.878000000000000114e+01
-5.896000000000000085e+01
-1.530000000000000027e+00
-7.598999999999999488e+01
5.775999999999999801e+01
3.652000000000000313e+01
-9.699999999999999734e-01
-1.318999999999999950e+01
-4.365999999999999659e+01
-1.110300000000000011e+02
1.660000000000000000e+02
8.485999999999999943e+01
4.021000000000000085e+01
-2.130399999999999920e+02
9.709000000000000341e+01
1.359399999999999977e+02
-5.484000000000000341e+01
-3.390999999999999659e+01
3.028999999999999915e+01
5.653000000000000114e+01
6.884999999999999432e+01
4.150000000000000000e+01
-8.660999999999999943e+01
-4.718999999999999773e+01
-4.578000000000000114e+01
1.534999999999999964e+01
5.059999999999999609e+00
-7.392000000000000171e+01
3.581000000000000227e+01
-1.166999999999999993e+01
-4.440999999999999659e+01
-1.768899999999999864e+02
1.564699999999999989e+02
5.047999999999999687e+01
-4.828999999999999915e+01
1.190000000000000036e+01
1.203299999999999983e+02
-1.240000000000000036e+01
-4.820000000000000284e+01
-1.555000000000000071e+01
8.369999999999999218e+00
-2.367999999999999972e+01
-7.818000000000000682e+01
-1.445099999999999909e+02
1.153999999999999915e+01
3.173299999999999841e+02
1.979000000000000057e+02
7.751000000000000512e+01
-1.090000000000000000e+02
-2.041299999999999955e+02
-1.434999999999999964e+01
1.755000000000000071e+01
-1.769000000000000128e+01
-7.059999999999999609e+00
-2.269999999999999929e+01
-3.771999999999999886e+01
5.375999999999999801e+01
3.490000000000000213e+00
4.200000000000000000e+01
6.275999999999999801e+01
-1.699399999999999977e+02
4.307999999999999829e+01
8.626999999999999602e+01
-4.084000000000000341e+01
9.276000000000000512e+01
-1.712000000000000099e+01
-4.203999999999999915e+01
-1.367999999999999972e+01
1.232000000000000028e+01
3.040000000000000036e+00
1.277600000000000051e+02
-4.372999999999999687e+01
-2.281599999999999966e+02
7.276000000000000512e+01
1.283899999999999864e+02
1.629699999999999989e+02
-2.129999999999999893e+00
-1.538000000000000114e+02
3.831000000000000227e+01
1.325999999999999943e+02
-1.124699999999999989e+02
-1.416000000000000014e+01
1.456599999999999966e+02
2.769999999999999929e+01
-1.441299999999999955e+02
9.804999999999999716e+01
1.508000000000000114e+02
-4.620000000000000284e+01
-1.163799999999999955e+02
4.575999999999999801e+01
2.279499999999999886e+02
4.386999999999999744e+01
-2.260000000000000142e+01
-1.250999999999999979e+01
-2.155000000000000071e+01
-1.616200000000000045e+02
-8.451000000000000512e+01
1.094500000000000028e+02
-2.470000000000000195e+00
-8.493999999999999773e+01
2.832999999999999829e+01
-1.331200000000000045e+02
3.278999999999999915e+01
1.012999999999999972e+02
8.473999999999999488e+01
7.915000000000000568e+01
1.166099999999999994e+02
-1.112500000000000000e+02
-6.898999999999999488e+01
3.364999999999999858e+01
9.420999999999999375e+01
-2.291000000000000014e+01
-2.810000000000000053e+00
-6.396999999999999886e+01
1.812500000000000000e+02
9.042000000000000171e+01
8.112000000000000455e+01
-1.905000000000000071e+01
-1.298300000000000125e+02
2.399999999999999911e-01
2.315500000000000114e+02
7.406000000000000227e+01
-1.267399999999999949e+02
-1.905999999999999872e+01
3.439999999999999947e+00
-1.634199999999999875e+02
1.187300000000000040e+02
2.139000000000000057e+02
1.368799999999999955e+02
-2.569800000000000182e+02
-8.839000000000000057e+01
-1.473499999999999943e+02
-6.876000000000000512e+01
7.651000000000000512e+01
2.464499999999999886e+02
-2.097299999999999898e+02
8.751000000000000512e+01
-5.661999999999999744e+01
3.936999999999999744e+01
-4.917000000000000171e+01
5.368999999999999773e+01
-3.067000000000000171e+01
-1.308000000000000007e+01
3.457000000000000028e+01
-1.083999999999999986e+01
1.957500000000000000e+02
-1.539699999999999989e+02
-5.359000000000000341e+01
-2.032000000000000028e+01
5.822999999999999687e+01
-2.673000000000000043e+01
5.989999999999999858e+01
1.427599999999999909e+02
-2.414300000000000068e+02
-3.101200000000000045e+02
4.824000000000000199e+01
-5.804999999999999716e+01
2.282599999999999909e+02
-1.600000000000000033e-01
-2.391800000000000068e+02
-2.306899999999999977e+02
2.480399999999999920e+02
2.023000000000000043e+01
-5.209999999999999964e+00
1.299000000000000057e+02
-1.891100000000000136e+02
5.769999999999999574e+00
-4.617999999999999972e+01
6.230000000000000426e+00
-6.790000000000000036e+00
-4.206000000000000227e+01
2.883999999999999986e+01
-7.412999999999999545e+01
8.709000000000000341e+01
6.529000000000000625e+01
-1.023599999999999994e+02
-9.599999999999999645e-01
-1.266000000000000014e+01
1.198000000000000043e+01
2.466000000000000014e+01
-1.110000000000000098e+00
-1.973999999999999844e+01
-1.625000000000000000e+01
4.650000000000000355e+00
-1.421000000000000085e+01
-1.186999999999999922e+01
2.603000000000000114e+01
1.471000000000000085e+01
-2.337000000000000099e+01
-7.000000000000000000e+01
4.799000000000000199e+01
8.290000000000000568e+01
-6.059000000000000341e+01
5.817000000000000171e+01
-1.227800000000000011e+02
-5.843999999999999773e+01
-5.230000000000000426e+00
4.315999999999999659e+01
-2.007000000000000028e+01
-4.610999999999999943e+01
-1.082000000000000028e+01
4.050500000000000114e+02
-1.761500000000000057e+02
-1.316500000000000057e+02
-3.882999999999999829e+01
2.319000000000000128e+01
2.943000000000000114e+02
-1.934799999999999898e+02
-3.322999999999999687e+01
-3.567000000000000171e+01
-3.297999999999999687e+01
8.865000000000000568e+01
3.178999999999999915e+01
-6.800000000000000000e+01
-1.026999999999999957e+01
1.434999999999999964e+01
4.660000000000000142e+00
-4.784000000000000341e+01
7.754000000000000625e+01
1.596000000000000085e+01
4.843999999999999773e+01
-4.432999999999999829e+01
-2.025000000000000000e+01
-2.771000000000000085e+01
1.157399999999999949e+02
5.022999999999999687e+01
-1.160999999999999943e+01
2.232299999999999898e+02
-2.341699999999999875e+02
-9.487999999999999545e+01
-5.253000000000000114e+01
4.564999999999999858e+01
5.163000000000000256e+01
3.342000000000000171e+01
-8.789000000000000057e+01
7.809999999999999609e+00
1.917000000000000171e+01
6.556999999999999318e+01
-2.655999999999999872e+01
-3.304800000000000182e+02
1.499399999999999977e+02
1.570500000000000114e+02
1.725000000000000000e+02
-1.447700000000000102e+02
-5.307000000000000028e+01
-7.043000000000000682e+01
8.078000000000000114e+01
6.317999999999999972e+01
-1.370800000000000125e+02
-1.177000000000000028e+02
-7.429000000000000625e+01
2.492999999999999972e+01
2.194699999999999989e+02
-5.884000000000000341e+01
-1.907199999999999989e+02
8.867000000000000171e+01
-1.244300000000000068e+02
1.132500000000000000e+02
3.053000000000000114e+01
-3.795000000000000284e+01
-1.344399999999999977e+02
7.299999999999999822e+00
9.012000000000000455e+01
9.701999999999999602e+01
1.842000000000000171e+01
-1.922500000000000000e+02
-1.441200000000000045e+02
2.520000000000000018e+00
2.422899999999999920e+02
-1.728999999999999915e+01
-1.185699999999999932e+02
2.726000000000000156e+01
-6.870000000000000284e+01
7.731000000000000227e+01
-3.140000000000000124e+00
1.771000000000000085e+01
-5.595000000000000284e+01
-9.295999999999999375e+01
-4.238000000000000256e+01
1.301399999999999864e+02
-1.270000000000000018e+00
1.392999999999999972e+01
-1.068999999999999950e+01
1.166999999999999993e+01
7.729000000000000625e+01
1.293999999999999950e+01
-2.200000000000000000e+01
8.059999999999999432e+01
-1.653999999999999915e+01
-6.135999999999999943e+01
3.569999999999999840e+00
9.849999999999999645e+00
5.946000000000000085e+01
-5.486999999999999744e+01
-1.614000000000000057e+01
1.388000000000000078e+01
3.173999999999999844e+01
1.860600000000000023e+02
4.117000000000000171e+01
-2.232599999999999909e+02
-2.130999999999999872e+01
6.820000000000000284e+01
-9.250000000000000000e+00
-2.126999999999999957e+01
2.741000000000000014e+01
8.320000000000000284e+00
-4.278999999999999915e+01
1.810000000000000142e+01
2.780000000000000071e+01
-9.759999999999999787e+00
-3.511999999999999744e+01
1.416000000000000014e+01
-1.926000000000000156e+01
1.696200000000000045e+02
-2.230000000000000071e+01
-8.859999999999999432e+00
9.668999999999999773e+01
-3.578999999999999915e+01
1.561999999999999922e+01
4.984000000000000341e+01
-7.620000000000000107e+00
2.231800000000000068e+02
-4.000699999999999932e+02
-1.383999999999999986e+01
1.728400000000000034e+02
2.270000000000000018e+00
1.499999999999999944e-01
5.070000000000000284e+00
-3.707999999999999829e+01
-3.768999999999999773e+01
5.060000000000000142e+01
1.715999999999999943e+02
-1.878199999999999932e+02
5.780000000000000249e+00
3.246100000000000136e+02
-2.344699999999999989e+02
-2.013100000000000023e+02
9.403000000000000114e+01
-6.067000000000000171e+01
7.426000000000000512e+01
8.293000000000000682e+01
-1.133900000000000006e+02
-4.097999999999999687e+01
2.786000000000000227e+02
-1.191400000000000006e+02
4.056000000000000227e+01
1.657999999999999829e+01
-1.269200000000000017e+02
-1.122300000000000040e+02
2.436999999999999886e+02
-3.595000000000000284e+01
-7.295999999999999375e+01
6.842000000000000171e+01
-1.422500000000000000e+02
8.895999999999999375e+01
-6.228000000000000114e+01
-1.150100000000000051e+02
-1.632000000000000028e+01
-4.884000000000000341e+01
1.154399999999999977e+02
4.742000000000000171e+01
-1.768600000000000136e+02
-5.160000000000000142e+01
6.469999999999999751e+00
4.875999999999999801e+01
-5.914999999999999858e+01
-1.567599999999999909e+02
3.252000000000000313e+01
5.588000000000000256e+01
-9.949999999999999289e+00
4.336999999999999744e+01
1.284000000000000057e+02
-1.756500000000000057e+02
-4.454999999999999716e+01
5.532999999999999829e+01
6.695000000000000284e+01
1.361500000000000057e+02
1.434999999999999964e+01
1.103499999999999943e+02
-1.568400000000000034e+02
-3.964999999999999858e+01
1.228199999999999932e+02
-1.291299999999999955e+02
2.200699999999999932e+02
-1.788000000000000114e+02
-7.995999999999999375e+01
-7.056000000000000227e+01
6.227000000000000313e+01
2.882999999999999829e+01
-5.636999999999999744e+01
-1.092199999999999989e+02
-1.129599999999999937e+02
1.415900000000000034e+02
-8.092000000000000171e+01
-6.737000000000000455e+01
-1.655500000000000114e+02
6.809000000000000341e+01
-9.250000000000000000e+00
-3.729999999999999982e+00
3.317000000000000171e+01
3.800000000000000044e-01
-2.669999999999999929e+01
3.425999999999999801e+01
-1.289799999999999898e+02
3.989999999999999858e+01
3.786999999999999744e+01
2.596499999999999773e+02
-8.196999999999999886e+01
-1.978400000000000034e+02
3.727000000000000313e+01
3.435999999999999943e+01
6.129999999999999893e+00
1.089000000000000057e+01
-1.352999999999999936e+01
-6.220000000000000284e+01
-4.877000000000000313e+01
-7.129000000000000625e+01
-1.369900000000000091e+02
1.949699999999999989e+02
1.112300000000000040e+02
9.804000000000000625e+01
-2.864399999999999977e+02
-6.190000000000000391e+00
2.010099999999999909e+02
1.157099999999999937e+02
1.866000000000000014e+01
-2.071999999999999886e+01
-4.345000000000000284e+01
-2.505000000000000071e+01
-6.264999999999999858e+01
-3.155999999999999872e+01
6.150000000000000355e+00
-1.078499999999999943e+02
-5.229999999999999716e+01
7.525000000000000000e+01
-1.338899999999999864e+02
-3.657999999999999829e+01
-2.730999999999999872e+01
-5.879999999999999893e+00
-1.696999999999999886e+01
-1.783999999999999986e+01
1.127900000000000063e+02
2.087800000000000011e+02
3.010299999999999727e+02
-2.806200000000000045e+02
-8.630000000000000782e+00
-9.970000000000000639e+00
1.701000000000000156e+01
1.015000000000000036e+01
-1.089000000000000057e+01
-1.203999999999999915e+01
-1.846000000000000085e+01
-4.790000000000000036e+00
-1.059999999999999964e+01
9.759999999999999787e+00
-2.800000000000000266e-01
-1.889999999999999902e+00
1.132000000000000028e+01
2.714999999999999858e+01
7.450000000000000178e+00
-2.844000000000000128e+01
4.995000000000000284e+01
-1.433999999999999986e+01
-6.937999999999999545e+01
-5.629999999999999893e+00
1.826000000000000156e+01
1.242999999999999972e+01
-9.789999999999999147e+00
-7.450000000000000178e+00
-9.839999999999999858e+00
1.787000000000000099e+01
9.490000000000000213e+00
1.498000000000000043e+01
-2.171000000000000085e+01
-1.828999999999999915e+01
1.479999999999999982e+00
4.049999999999999822e+00
-7.110000000000000320e+00
6.650000000000000355e+00
1.835000000000000142e+01
-1.800000000000000044e+00
-1.019999999999999929e+01
-1.969999999999999973e+00
-1.598000000000000043e+01
-2.096999999999999886e+01
9.960000000000000853e+00
1.238000000000000078e+01
-3.259999999999999787e+00
-5.589999999999999858e+00
3.089999999999999858e+00
2.569999999999999840e+00
-4.910000000000000142e+00
1.780000000000000027e+00
3.750000000000000000e+00
1.191000000000000014e+01
-4.790000000000000036e+00
9.300000000000000488e-01
-4.899999999999999911e-01
-4.990000000000000213e+00
3.430000000000000160e+00
-2.000000000000000111e-01
-6.240000000000000213e+00
-3.149999999999999911e+00
5.089999999999999858e+00
1.799999999999999933e-01
-6.379999999999999893e+00
3.020000000000000018e+00
1.649999999999999911e+00
-2.680000000000000160e+00
-3.209999999999999964e+00
4.519999999999999574e+00
-4.400000000000000022e-01
-4.980000000000000426e+00
3.879999999999999893e+00
1.010000000000000009e+00
-5.299999999999999822e+00
-5.490000000000000213e+00
6.120000000000000107e+00
4.459999999999999964e+00
-3.569999999999999840e+00
-5.110000000000000320e+00
9.439999999999999503e+00
3.160000000000000142e+00
-5.559999999999999609e+00
2.419999999999999929e+00
5.040000000000000036e+00
-2.799999999999999822e+00
-7.419999999999999929e+00
4.360000000000000320e+00
2.479999999999999982e+00
-3.950000000000000178e+00
-9.679999999999999716e+00
4.019999999999999574e+00
-1.879999999999999893e+00
-7.040000000000000036e+00
-3.759999999999999787e+00
3.311999999999999744e+01
3.105999999999999872e+01
-6.006000000000000227e+01
-1.125000000000000000e+01
4.782000000000000028e+01
1.038299999999999983e+02
3.299499999999999886e+02
-2.478899999999999864e+02
-2.459499999999999886e+02
-5.566399999999999864e+02
3.223299999999999841e+02
3.914100000000000250e+02
9.564000000000000057e+01
-1.211299999999999955e+02
-1.134200000000000017e+02
7.879999999999999893e+00
-5.179999999999999716e+01
3.760999999999999943e+01
-3.957999999999999829e+01
3.486999999999999744e+01
-3.020000000000000018e+00
-4.692000000000000171e+01
-5.252000000000000313e+01
-3.759999999999999787e+00
5.935000000000000142e+01
1.630000000000000071e+01
-2.328999999999999915e+01
-1.700000000000000122e-01
-5.730000000000000426e+00
-2.451000000000000156e+01
1.676000000000000156e+01
3.053999999999999915e+01
9.869999999999999218e+00
9.099999999999999645e+00
1.241000000000000014e+01
-6.070000000000000284e+00
-2.766000000000000014e+01
5.730000000000000426e+00
1.559999999999999964e+01
-6.709999999999999964e+00
-1.364000000000000057e+01
6.190000000000000391e+00
9.109999999999999432e+00
-7.969999999999999751e+00
2.930000000000000160e+00
-1.176999999999999957e+01
-1.020000000000000018e+00
-2.990000000000000213e+00
5.419999999999999929e+00
3.970000000000000195e+00
-1.027999999999999936e+01
1.256000000000000050e+01
3.479999999999999982e+00
-1.689999999999999858e+01
-2.776999999999999957e+01
3.217000000000000171e+01
9.990000000000000213e+00
-1.085999999999999943e+01
6.250000000000000000e+00
1.022000000000000064e+01
2.109999999999999876e+00
-1.017999999999999972e+01
3.629999999999999893e+00
-1.060999999999999943e+01
-2.914999999999999858e+01
2.880999999999999872e+01
1.739999999999999858e+01
6.899999999999999467e-01
-1.350000000000000000e+01
1.102999999999999936e+01
1.964999999999999858e+01
-5.699999999999999512e-01
-2.367000000000000171e+01
5.009999999999999787e+00
6.320000000000000284e+00
-8.320000000000000284e+00
2.029999999999999805e+00
1.025999999999999979e+01
1.366999999999999993e+01
2.316000000000000014e+01
-2.519000000000000128e+01
-1.096000000000000085e+01
1.574000000000000021e+01
-4.504999999999999716e+01
1.396000000000000085e+01
1.030000000000000027e+00
-1.027999999999999936e+01
4.339999999999999858e+00
4.459999999999999964e+00
-1.830000000000000071e+00
-1.035999999999999943e+01
9.849999999999999645e+00
-2.600000000000000089e-01
-1.241599999999999966e+02
2.277500000000000000e+02
-5.103000000000000114e+01
-1.461999999999999922e+01
2.089000000000000057e+01
6.061999999999999744e+01
1.775600000000000023e+02
-1.168900000000000006e+02
-1.869600000000000080e+02
-1.030499999999999972e+02
6.601000000000000512e+01
-1.295099999999999909e+02
1.575500000000000114e+02
9.987000000000000455e+01
1.380000000000000071e+01
-3.410999999999999943e+01
1.238000000000000078e+01
1.103400000000000034e+02
-6.065999999999999659e+01
-7.009999999999999787e+00
9.300000000000000488e-01
-2.700000000000000000e+01
-1.850000000000000000e+01
6.400000000000000355e+00
6.450000000000000178e+00
-1.163000000000000078e+01
1.742000000000000171e+01
1.572000000000000064e+01
-1.101999999999999957e+01
5.110000000000000320e+00
7.280000000000000249e+00
-5.799999999999999600e-01
-1.910999999999999943e+01
1.268999999999999950e+01
9.560000000000000497e+00
-6.570000000000000284e+00
-2.339999999999999858e+00
7.790000000000000036e+00
-1.900000000000000022e-01
-1.657999999999999829e+01
8.699999999999999289e+00
9.810000000000000497e+00
-4.320000000000000284e+00
4.450000000000000178e+00
1.275999999999999979e+01
1.199999999999999956e-01
-1.325999999999999979e+01
8.970000000000000639e+00
6.799999999999999822e+00
-8.160000000000000142e+00
3.089999999999999858e+00
9.470000000000000639e+00
-1.520000000000000018e+00
-1.010999999999999943e+01
4.650000000000000355e+00
-1.368999999999999950e+01
-1.046000000000000085e+01
2.425000000000000000e+01
2.426000000000000156e+01
-2.698999999999999844e+01
-3.647999999999999687e+01
1.803000000000000114e+01
1.434999999999999964e+01
-2.953000000000000114e+01
2.000000000000000111e-01
2.494999999999999929e+01
-1.700000000000000122e-01
-1.516000000000000014e+01
1.159999999999999920e+00
5.699999999999999512e-01
-3.009999999999999787e+00
1.006000000000000050e+01
1.300000000000000044e+00
-4.599999999999999645e+00
-8.109999999999999432e+00
6.120000000000000107e+00
-1.149999999999999911e+00
-6.980000000000000426e+00
-3.399999999999999911e+00
5.469999999999999751e+00
-3.450000000000000178e+00
-6.759999999999999787e+00
5.929999999999999716e+00
3.970000000000000195e+00
-3.830000000000000071e+00
-6.240000000000000213e+00
7.150000000000000355e+00
-4.199999999999999845e-01
-6.219999999999999751e+00
-1.330000000000000071e+00
4.290000000000000036e+00
-3.439999999999999947e+00
-7.360000000000000320e+00
6.320000000000000284e+00
3.020000000000000018e+00
-5.360000000000000320e+00
1.500000000000000000e+00
6.580000000000000071e+00
-2.910000000000000142e+00
-7.389999999999999680e+00
1.810000000000000053e+00
2.560000000000000053e+00
-4.929999999999999716e+00
1.100000000000000089e+00
6.519999999999999574e+00
-4.600000000000000200e-01
-5.009999999999999787e+00
6.190000000000000391e+00
1.379999999999999893e+00
-3.959999999999999964e+00
-4.120000000000000107e+00
6.620000000000000107e+00
-8.499999999999999778e-01
-7.009999999999999787e+00
8.310000000000000497e+00
6.389999999999999680e+00
-1.739999999999999991e+00
-8.449999999999999289e+00
8.539999999999999147e+00
8.800000000000000044e-01
-6.769999999999999574e+00
8.999999999999999667e-02
5.320000000000000284e+00
-1.199999999999999956e-01
-4.980000000000000426e+00
7.839999999999999858e+00
3.109999999999999876e+00
-6.240000000000000213e+00
-3.540000000000000036e+00
6.129999999999999893e+00
-3.400000000000000244e-01
-8.810000000000000497e+00
2.000000000000000000e+00
5.429999999999999716e+00
-4.699999999999999734e-01
-9.250000000000000000e+00
8.150000000000000355e+00
3.520000000000000018e+00
-4.969999999999999751e+00
-4.620000000000000107e+00
7.200000000000000178e+00
-7.900000000000000355e-01
-9.019999999999999574e+00
2.549999999999999822e+00
4.290000000000000036e+00
-7.099999999999999645e-01
-8.710000000000000853e+00
8.140000000000000568e+00
3.599999999999999867e-01
-5.450000000000000178e+00
3.020000000000000018e+00
4.809999999999999609e+00
-3.399999999999999911e+00
-9.890000000000000568e+00
3.229999999999999982e+00
2.799999999999999822e+00
-3.890000000000000124e+00
-1.310000000000000053e+00
6.849999999999999645e+00
1.300000000000000044e-01
-8.109999999999999432e+00
7.570000000000000284e+00
1.889999999999999902e+00
1.805000000000000071e+01
-1.309999999999999964e+01
-1.336999999999999922e+01
5.690000000000000391e+00
1.586999999999999886e+02
-7.598000000000000398e+01
-1.163900000000000006e+02
-6.064999999999999858e+01
1.186999999999999922e+01
2.385000000000000142e+01
5.349999999999999645e+00
-8.748000000000000398e+01
1.077999999999999972e+02
-2.319999999999999840e+00
8.310000000000000497e+00
1.566999999999999993e+01
-3.117999999999999972e+01
-1.626999999999999957e+01
7.489000000000000057e+01
-1.179999999999999938e+00
3.119999999999999929e+01
2.060999999999999943e+01
1.134500000000000028e+02
-2.019799999999999898e+02
-2.224399999999999977e+02
1.954900000000000091e+02
5.250000000000000000e+00
1.047900000000000063e+02
-1.590000000000000000e+02
1.864000000000000057e+01
1.183999999999999986e+01
-2.633999999999999986e+01
4.718999999999999773e+01
-6.725000000000000000e+01
1.597199999999999989e+02
1.828799999999999955e+02
-4.264700000000000273e+02
1.450800000000000125e+02
9.209999999999999432e+01
-3.779999999999999805e+00
6.504999999999999716e+01
-3.535000000000000142e+01
5.853000000000000114e+01
-1.176099999999999994e+02
1.245000000000000000e+02
1.665699999999999932e+02
-3.213100000000000023e+02
-1.771500000000000057e+02
-5.464999999999999858e+01
4.702200000000000273e+02
7.606999999999999318e+01
-6.236999999999999744e+01
-1.577999999999999936e+01
4.950000000000000178e+00
-2.558499999999999943e+02
8.100000000000000533e-01
5.763000000000000256e+01
4.627000000000000313e+01
-2.051000000000000156e+01
2.555999999999999872e+01
3.217000000000000171e+01
-3.490000000000000213e+00
-2.594000000000000128e+01
7.879999999999999716e+01
-6.350999999999999801e+01
-2.169999999999999929e+01
-4.146999999999999886e+01
5.730000000000000426e+00
-3.671999999999999886e+01
-9.560000000000000497e+00
3.781000000000000227e+01
-5.381000000000000227e+01
-3.667000000000000171e+01
7.230000000000000426e+00
3.742999999999999972e+01
1.912000000000000099e+01
7.985999999999999943e+01
8.471999999999999886e+01
-3.671999999999999886e+01
-1.052000000000000028e+02
2.339999999999999858e+00
1.290600000000000023e+02
1.572500000000000000e+02
1.128499999999999943e+02
-1.772500000000000000e+02
-1.291100000000000136e+02
-4.847999999999999687e+01
-4.660000000000000142e+01
3.051000000000000156e+01
-3.496999999999999886e+01
1.397000000000000064e+01
6.339000000000000057e+01
-1.590000000000000036e+01
5.700000000000000178e+00
-5.913000000000000256e+01
-2.427599999999999909e+02
1.072199999999999989e+02
1.442199999999999989e+02
2.495300000000000011e+02
-2.125200000000000102e+02
-2.450500000000000114e+02
1.341999999999999886e+02
1.175799999999999983e+02
-4.896999999999999886e+01
9.359999999999999432e+01
4.289000000000000057e+01
-1.082000000000000028e+01
-4.140999999999999659e+01
1.935000000000000142e+01
2.351000000000000156e+01
-1.038499999999999943e+02
-1.057500000000000000e+02
6.181000000000000227e+01
5.307999999999999829e+01
2.598000000000000043e+01
-2.996200000000000045e+02
1.151200000000000045e+02
-1.853999999999999915e+01
-1.185100000000000051e+02
3.299999999999999822e+00
2.609999999999999876e+00
1.391999999999999993e+01
-1.352400000000000091e+02
4.646000000000000085e+01
2.223999999999999844e+01
5.827000000000000313e+01
5.560999999999999943e+01
-1.083799999999999955e+02
-2.254000000000000057e+02
1.453000000000000114e+02
9.650000000000000000e+01
1.028400000000000034e+02
2.486699999999999875e+02
-7.890999999999999659e+01
6.129999999999999893e+00
7.345999999999999375e+01
-5.139999999999999680e+00
1.081400000000000006e+02
-2.292100000000000080e+02
-3.632000000000000028e+01
-1.056700000000000017e+02
1.153799999999999955e+02
1.109899999999999949e+02
-1.864999999999999858e+01
-1.157199999999999989e+02
-6.399000000000000199e+01
5.059000000000000341e+01
2.980999999999999872e+01
6.900000000000000000e+01
4.878999999999999915e+01
-7.028000000000000114e+01
1.517999999999999972e+01
-7.251000000000000512e+01
-4.131000000000000227e+01
4.411999999999999744e+01
-5.546000000000000085e+01
-6.598000000000000398e+01
-8.779999999999999361e+00
2.783999999999999986e+01
7.395999999999999375e+01
-5.378999999999999915e+01
9.970999999999999375e+01
1.487599999999999909e+02
-1.441800000000000068e+02
-2.084399999999999977e+02
-5.904999999999999716e+01
-5.739000000000000057e+01
2.299600000000000080e+02
-6.618000000000000682e+01
-1.683499999999999943e+02
1.617999999999999972e+01
3.089000000000000057e+01
-1.837199999999999989e+02
2.421599999999999966e+02
-8.029999999999999716e+01
-1.888100000000000023e+02
1.100100000000000051e+02
6.448000000000000398e+01
-6.025000000000000000e+01
-1.169500000000000028e+02
2.026699999999999875e+02
2.632000000000000028e+01
-8.179000000000000625e+01
6.272999999999999687e+01
-3.552000000000000313e+01
-5.270000000000000284e+01
-1.796899999999999977e+02
1.466399999999999864e+02
2.410900000000000034e+02
-6.132000000000000028e+01
-7.095000000000000284e+01
-2.086200000000000045e+02
2.807900000000000205e+02
6.960999999999999943e+01
-1.763600000000000136e+02
9.620999999999999375e+01
1.772199999999999989e+02
-1.035699999999999932e+02
1.216000000000000014e+01
-2.383100000000000023e+02
-6.903000000000000114e+01
6.973000000000000398e+01
5.928999999999999915e+01
-8.426999999999999602e+01
1.428999999999999915e+01
1.145900000000000034e+02
1.647700000000000102e+02
-1.419399999999999977e+02
-3.133700000000000045e+02
-1.370300000000000011e+02
1.486299999999999955e+02
2.480999999999999943e+02
1.375000000000000000e+02
1.865500000000000114e+02
-2.470099999999999909e+02
9.168000000000000682e+01
-3.445000000000000284e+01
-2.253000000000000114e+01
-9.339999999999999858e+00
5.281000000000000227e+01
-2.031800000000000068e+02
1.907100000000000080e+02
-3.017999999999999972e+01
-4.400000000000000022e-01
-3.209000000000000341e+01
2.844999999999999929e+01
1.180600000000000023e+02
-5.336999999999999744e+01
-9.306999999999999318e+01
-1.300800000000000125e+02
9.200000000000000400e-01
1.826800000000000068e+02
2.649999999999999911e+00
1.098900000000000006e+02
-8.573000000000000398e+01
1.129999999999999893e+00
2.060000000000000142e+01
-1.256000000000000050e+01
-9.130000000000000782e+00
1.084999999999999964e+01
3.229999999999999982e+00
-2.373000000000000043e+01
6.719999999999999751e+00
8.259999999999999787e+00
-6.230000000000000426e+00
1.483000000000000007e+01
9.480000000000000426e+00
-7.780000000000000249e+00
-9.080000000000000071e+00
8.929999999999999716e+00
-2.870000000000000107e+00
-2.155000000000000071e+01
1.033000000000000007e+01
6.799999999999999822e+00
-1.696000000000000085e+01
1.384999999999999964e+01
1.493999999999999950e+01
-7.620000000000000107e+00
-8.000000000000000167e-02
8.419999999999999929e+00
-2.899999999999999911e+00
-1.107000000000000028e+01
2.333999999999999986e+01
8.601999999999999602e+01
2.375000000000000000e+01
-1.280000000000000027e+00
5.092999999999999972e+01
-4.653000000000000114e+01
-1.322000000000000064e+01
-5.924000000000000199e+01
-2.601000000000000156e+01
6.879000000000000625e+01
5.406000000000000227e+01
-2.805999999999999872e+01
3.592000000000000171e+01
-2.944999999999999929e+01
-1.135000000000000000e+02
2.294600000000000080e+02
-1.383999999999999986e+01
-5.742999999999999972e+01
1.091999999999999993e+01
1.983899999999999864e+02
-9.365999999999999659e+01
-6.875000000000000000e+01
-5.899999999999999689e-01
3.239000000000000057e+01
-5.959999999999999964e+00
7.076999999999999602e+01
6.149000000000000199e+01
-5.959999999999999964e+00
-2.682000000000000028e+01
6.589999999999999858e+00
1.737000000000000099e+01
1.280000000000000071e+01
3.663000000000000256e+01
1.312500000000000000e+02
-2.560099999999999909e+02
6.061999999999999744e+01
6.704000000000000625e+01
1.814000000000000057e+01
-2.671999999999999886e+02
7.517000000000000171e+01
6.043999999999999773e+01
-1.181599999999999966e+02
-8.578000000000000114e+01
1.315900000000000034e+02
-1.283799999999999955e+02
1.360399999999999920e+02
-1.000499999999999972e+02
4.599999999999999645e+00
-2.467999999999999972e+01
-7.746999999999999886e+01
8.429999999999999716e+00
2.228000000000000114e+01
1.225199999999999960e+02
-1.785999999999999943e+01
2.323000000000000043e+01
9.980000000000000426e+00
-2.846999999999999886e+01
7.021999999999999886e+01
-2.682999999999999829e+01
-2.194000000000000128e+01
-3.585999999999999943e+01
-5.007999999999999829e+01
-1.565800000000000125e+02
1.173599999999999994e+02
-3.360000000000000142e+01
-5.990000000000000213e+00
4.465999999999999659e+01
1.855099999999999909e+02
-1.295999999999999943e+02
-4.690999999999999659e+01
-1.739999999999999858e+01
-1.127199999999999989e+02
-1.912000000000000099e+01
9.775000000000000000e+01
-8.804000000000000625e+01
-4.452000000000000313e+01
-1.153700000000000045e+02
-8.700000000000000000e+01
8.037000000000000455e+01
2.873299999999999841e+02
-1.453999999999999915e+01
-1.763199999999999932e+02
-1.612199999999999989e+02
1.082500000000000000e+02
-1.516999999999999886e+02
-1.597100000000000080e+02
4.621999999999999886e+01
1.632299999999999898e+02
5.984000000000000341e+01
-1.532000000000000028e+01
-6.607999999999999829e+01
1.683100000000000023e+02
-4.820000000000000284e+01
-5.825000000000000000e+01
-4.864000000000000057e+01
-5.330000000000000071e+00
2.160000000000000000e+02
1.523100000000000023e+02
-7.637999999999999545e+01
-1.219699999999999989e+02
-2.817999999999999972e+01
2.051299999999999955e+02
-1.728000000000000114e+02
-1.020499999999999972e+02
-3.173000000000000043e+01
2.271000000000000085e+01
-8.650000000000000355e+00
-7.900000000000000000e+01
2.907000000000000028e+01
7.230000000000000426e+00
-5.549999999999999822e+00
-7.023999999999999488e+01
-1.791000000000000014e+01
-1.116000000000000014e+01
-6.400000000000000355e+00
-3.364000000000000057e+01
1.099200000000000017e+02
-1.002900000000000063e+02
8.875000000000000000e+01
-1.138599999999999994e+02
-5.050999999999999801e+01
3.689000000000000057e+01
-9.532999999999999829e+01
1.789000000000000057e+01
2.020000000000000018e+00
-1.036899999999999977e+02
1.117000000000000028e+02
-1.655000000000000071e+01
-2.192000000000000171e+01
-1.241000000000000014e+01
9.609999999999999432e+00
1.191999999999999993e+01
-1.501999999999999957e+01
1.486999999999999922e+01
3.649999999999999911e+00
-1.574000000000000021e+01
1.199000000000000021e+01
3.129999999999999893e+00
-1.053999999999999915e+01
-4.400000000000000022e-01
1.018999999999999950e+01
-1.102999999999999936e+01
-2.600000000000000089e+00
-6.099999999999999867e-01
4.620000000000000107e+00
-1.469999999999999973e+00
7.290000000000000036e+00
-5.089999999999999858e+00
-1.408999999999999986e+01
1.047000000000000064e+01
4.669999999999999929e+00
-1.282000000000000028e+01
5.540000000000000036e+00
5.209999999999999964e+00
-7.650000000000000355e+00
6.419999999999999929e+00
2.379999999999999893e+00
-1.188000000000000078e+01
7.190000000000000391e+00
1.664999999999999858e+01
-3.109999999999999876e+00
-4.790000000000000036e+00
6.089999999999999858e+00
-2.540000000000000036e+00
-1.682000000000000028e+01
8.240000000000000213e+00
5.759999999999999787e+00
-1.146000000000000085e+01
6.790000000000000036e+00
6.969999999999999751e+00
-3.279999999999999805e+00
-1.160999999999999943e+01
8.679999999999999716e+00
1.199999999999999956e+00
-1.403999999999999915e+01
9.750000000000000000e+00
8.039999999999999147e+00
-7.059999999999999609e+00
-6.469999999999999751e+00
1.125000000000000000e+01
2.339999999999999858e+00
-1.317999999999999972e+01
1.008999999999999986e+01
5.349999999999999645e+00
-7.709999999999999964e+00
-4.799999999999999822e+00
9.500000000000000000e+00
1.070000000000000062e+00
-1.830000000000000071e+01
1.207000000000000028e+01
8.720000000000000639e+00
-4.870000000000000107e+00
-6.700000000000000178e+00
1.324000000000000021e+01
1.056000000000000050e+01
-1.450999999999999979e+01
1.639999999999999902e+00
3.649999999999999911e+00
-8.369999999999999218e+00
-7.309999999999999609e+00
1.096000000000000085e+01
1.409999999999999920e+00
-1.798999999999999844e+01
1.203999999999999915e+01
8.640000000000000568e+00
-7.280000000000000249e+00
-8.699999999999999956e-01
8.000000000000000000e+00
-3.209999999999999964e+00
-1.689999999999999858e+01
1.014000000000000057e+01
2.279999999999999805e+00
-1.292999999999999972e+01
1.098000000000000043e+01
9.470000000000000639e+00
-4.320000000000000284e+00
-1.400000000000000133e-01
1.402999999999999936e+01
1.979999999999999982e+00
-1.744000000000000128e+01
3.569999999999999840e+00
-1.209999999999999964e+00
-1.111999999999999922e+01
-2.899999999999999800e-01
1.106000000000000050e+01
2.390000000000000124e+00
-1.436999999999999922e+01
1.201999999999999957e+01
1.159999999999999920e+00
-9.980000000000000426e+00
1.689999999999999947e+00
7.559999999999999609e+00
-1.969999999999999973e+00
-1.486999999999999922e+01
9.830000000000000071e+00
1.379999999999999893e+00
-2.770000000000000018e+00
-1.217999999999999972e+01
1.041000000000000014e+01
5.500000000000000444e-01
-1.074000000000000021e+01
1.175000000000000000e+01
4.309999999999999609e+00
-7.800000000000000266e-01
-6.169999999999999929e+00
1.444999999999999929e+01
5.679999999999999716e+00
-1.509999999999999964e+01
-1.000000000000000021e-02
5.000000000000000278e-02
-2.500000000000000000e+00
-4.950000000000000178e+00
4.099999999999999645e+00
-2.259999999999999787e+00
-1.401999999999999957e+01
9.330000000000000071e+00
7.740000000000000213e+00
-6.580000000000000071e+00
-4.059999999999999609e+00
2.959999999999999964e+00
-1.296000000000000085e+01
9.230000000000000426e+00
4.250000000000000000e+00
-1.358999999999999986e+01
1.115000000000000036e+01
3.410000000000000142e+00
-1.314000000000000057e+01
1.050999999999999979e+01
2.098000000000000043e+01
8.199999999999999512e-01
-6.379999999999999893e+00
-2.700000000000000178e+00
-1.979999999999999982e+00
-1.160999999999999943e+01
4.889999999999999680e+00
-9.240000000000000213e+00
5.899999999999999689e-01
1.163000000000000078e+01
-9.699999999999999734e-01
-3.620000000000000107e+00
9.769999999999999574e+00
-7.519999999999999574e+00
-6.809999999999999609e+00
9.259999999999999787e+00
1.175999999999999979e+01
-6.139999999999999680e+00
-4.839999999999999858e+00
1.535999999999999943e+01
3.439999999999999947e+00
-2.379999999999999893e+00
1.499999999999999944e-01
-3.009999999999999787e+00
-1.149000000000000021e+01
6.009999999999999787e+00
1.042999999999999972e+01
7.019999999999999574e+00
-8.070000000000000284e+00
1.860000000000000098e+00
-3.250000000000000000e+00
-1.835999999999999943e+01
-5.999999999999999778e-02
6.339999999999999858e+00
-3.540000000000000036e+00
-9.460000000000000853e+00
1.046000000000000085e+01
6.000000000000000000e+00
-9.390000000000000568e+00
2.180000000000000160e+00
3.939999999999999947e+00
-5.259999999999999787e+00
-7.099999999999999645e+00
7.759999999999999787e+00
2.700000000000000178e-01
-1.406000000000000050e+01
8.140000000000000568e+00
1.003999999999999915e+01
-1.659999999999999920e+00
-8.509999999999999787e+00
9.589999999999999858e+00
3.330000000000000071e+00
-1.232000000000000028e+01
7.120000000000000107e+00
-2.680000000000000160e+00
-2.451999999999999957e+01
1.323000000000000043e+01
-5.799999999999999600e-01
6.860000000000000320e+00
1.552999999999999936e+01
-1.073000000000000043e+01
1.239999999999999991e+00
9.230000000000000426e+00
1.483999999999999986e+01
-1.944999999999999929e+01
-3.129999999999999893e+00
4.410000000000000142e+00
-1.092999999999999972e+01
2.390000000000000124e+00
8.789999999999999147e+00
-1.218999999999999950e+01
-7.299999999999999822e-01
9.699999999999999734e-01
-2.899999999999999800e-01
1.247000000000000064e+01
-3.250000000000000000e+00
-1.159999999999999964e+01
2.189999999999999947e+00
0.000000000000000000e+00
-1.771999999999999886e+01
-2.805000000000000071e+01
-1.490000000000000036e+01
-6.375999999999999801e+01
9.895999999999999375e+01
3.166000000000000014e+01
-9.135999999999999943e+01
-1.311299999999999955e+02
1.342199999999999989e+02
9.617000000000000171e+01
-1.451100000000000136e+02
-4.067999999999999972e+01
6.068999999999999773e+01
-6.120000000000000107e+00
-2.726000000000000156e+01
2.870000000000000107e+00
-1.786100000000000136e+02
3.961999999999999744e+01
-5.019999999999999574e+00
-4.196000000000000085e+01
-1.066999999999999993e+01
-5.603000000000000114e+01
-8.009000000000000341e+01
1.539199999999999875e+02
1.817899999999999920e+02
1.194099999999999966e+02
-1.661200000000000045e+02
3.602000000000000313e+01
-3.778000000000000114e+01
-8.128000000000000114e+01
1.096500000000000057e+02
-3.509999999999999787e+00
-3.657000000000000028e+01
5.142000000000000171e+01
-2.162999999999999901e+01
-2.419999999999999929e+00
2.500000000000000000e+01
-1.400000000000000133e-01
9.949999999999999289e+00
6.906999999999999318e+01
-5.017999999999999972e+01
9.919999999999999929e+00
8.460000000000000853e+00
-1.241800000000000068e+02
-2.678999999999999915e+01
2.331299999999999955e+02
1.639000000000000057e+02
-6.063000000000000256e+01
-1.206700000000000017e+02
-1.538000000000000078e+01
9.004999999999999716e+01
5.424000000000000199e+01
-7.873000000000000398e+01
-8.679999999999999716e+00
9.070000000000000284e+00
-6.360999999999999943e+01
-3.453999999999999915e+01
-8.014000000000000057e+01
2.276000000000000156e+01
-2.980000000000000071e+01
-3.350999999999999801e+01
-6.379999999999999893e+00
3.150000000000000000e+01
2.839999999999999858e+01
4.252000000000000313e+01
6.500000000000000000e+00
1.816000000000000014e+01
6.769999999999999574e+00
-5.910999999999999943e+01
8.939999999999999503e+00
-5.040000000000000036e+00
-1.620000000000000107e+00
6.579000000000000625e+01
3.028000000000000114e+01
6.790000000000000036e+00
-2.742000000000000171e+01
3.599999999999999867e-01
-4.174000000000000199e+01
1.013000000000000078e+01
1.518999999999999950e+01
-9.799999999999999822e-01
-3.339000000000000057e+01
-2.479999999999999982e+00
2.714000000000000057e+01
2.712999999999999901e+01
-5.650000000000000355e+00
1.996000000000000085e+01
1.575999999999999979e+01
-6.910000000000000142e+00
-7.782999999999999829e+01
-1.442999999999999972e+01
2.514000000000000057e+01
-8.390000000000000568e+00
6.339999999999999858e+00
-2.187000000000000099e+01
1.549000000000000021e+01
5.175999999999999801e+01
1.960999999999999943e+01
-1.042199999999999989e+02
-3.654999999999999716e+01
1.682000000000000028e+01
3.810000000000000053e+00
-3.911999999999999744e+01
2.632999999999999829e+01
1.328999999999999915e+01
-3.109999999999999876e+00
3.162999999999999901e+01
2.848999999999999844e+01
7.473000000000000398e+01
-2.455000000000000071e+01
2.810000000000000142e+01
-7.660000000000000142e+00
-3.415999999999999659e+01
1.942999999999999972e+01
2.371999999999999886e+01
1.103999999999999915e+01
-1.191999999999999993e+01
-4.269999999999999574e+00
-4.199999999999999845e-01
-1.116000000000000014e+01
1.216999999999999993e+01
2.305999999999999872e+01
-1.148000000000000043e+01
-2.387999999999999901e+01
-4.889999999999999680e+00
-1.050000000000000000e+01
-1.869999999999999929e+01
1.043999999999999950e+01
3.008999999999999986e+01
1.482000000000000028e+01
-2.519000000000000128e+01
3.420000000000000284e+01
3.770000000000000284e+01
-8.268999999999999773e+01
-1.551999999999999957e+01
-2.048999999999999844e+01
-8.570000000000000284e+00
1.948000000000000043e+01
3.497999999999999687e+01
-7.831000000000000227e+01
-3.343999999999999773e+01
-7.620000000000000107e+00
1.052600000000000051e+02
-8.429999999999999716e+00
8.250000000000000000e+00
1.292999999999999972e+01
1.207000000000000028e+01
-1.937000000000000099e+01
-2.630999999999999872e+01
2.669999999999999929e+00
-1.967999999999999972e+01
1.844999999999999929e+01
-3.750000000000000000e+00
-7.700000000000000178e-01
1.685000000000000142e+01
1.996000000000000085e+01
1.122000000000000064e+01
-1.605000000000000071e+01
2.496999999999999886e+01
-1.508000000000000007e+01
-2.385999999999999943e+01
3.520000000000000018e+00
-2.064000000000000057e+01
2.332000000000000028e+01
6.036999999999999744e+01
5.839999999999999858e+01
-3.899000000000000199e+01
-5.102000000000000313e+01
2.649999999999999911e+00
1.633999999999999986e+01
-8.651000000000000512e+01
1.318899999999999864e+02
-7.059999999999999609e+00
1.365000000000000036e+01
-5.849999999999999645e+00
1.263000000000000078e+01
8.490000000000000213e+00
3.430000000000000160e+00
2.176999999999999957e+01
7.879999999999999893e+00
-1.623000000000000043e+01
2.350000000000000089e+00
1.649999999999999911e+00
-3.403000000000000114e+01
-1.573000000000000043e+01
2.807000000000000028e+01
-1.478999999999999915e+01
-1.610999999999999943e+01
2.010999999999999943e+01
1.758999999999999986e+01
1.633999999999999986e+01
-1.978000000000000114e+01
1.375999999999999979e+01
-1.130000000000000071e+01
-2.105000000000000071e+01
2.307000000000000028e+01
1.032000000000000028e+01
-7.031999999999999318e+01
5.738000000000000256e+01
-7.160000000000000142e+00
-1.289000000000000057e+01
-4.719999999999999751e+00
-4.514000000000000057e+01
-4.330000000000000071e+00
9.160000000000000142e+00
4.142999999999999972e+01
1.580000000000000071e+01
-9.089999999999999858e+00
3.378999999999999915e+01
-3.187999999999999901e+01
-1.192999999999999972e+01
9.449999999999999289e+00
2.359999999999999876e+00
4.396000000000000085e+01
-3.521000000000000085e+01
-1.817999999999999972e+01
3.975000000000000000e+01
-6.600000000000000311e-01
1.391000000000000014e+01
2.101999999999999957e+01
2.330999999999999872e+01
9.669999999999999929e+00
7.359000000000000341e+01
-3.782999999999999829e+01
-1.639999999999999902e+00
1.621999999999999886e+01
3.051000000000000156e+01
6.490000000000000213e+00
7.370000000000000107e+00
2.191000000000000014e+01
-3.860999999999999943e+01
2.455999999999999872e+01
2.280999999999999872e+01
-1.673999999999999844e+01
-1.937999999999999901e+01
-5.139999999999999680e+00
-6.280000000000000249e+00
6.067000000000000171e+01
-6.081000000000000227e+01
3.328999999999999915e+01
-1.726000000000000156e+01
2.767000000000000171e+01
5.600000000000000533e-01
-1.273000000000000043e+01
5.769999999999999574e+00
4.169999999999999929e+00
-6.910000000000000142e+00
-1.424000000000000021e+01
1.041999999999999993e+01
5.730000000000000426e+00
-1.402999999999999936e+01
2.509999999999999787e+00
3.032000000000000028e+01
-2.933999999999999986e+01
-6.019999999999999574e+00
1.635000000000000142e+01
2.698000000000000043e+01
-1.841000000000000014e+01
-8.810000000000000497e+00
-3.370000000000000107e+00
-6.070000000000000284e+00
1.065000000000000036e+01
1.198900000000000006e+02
-9.026999999999999602e+01
4.482000000000000028e+01
-1.131599999999999966e+02
7.590000000000000568e+01
-2.060000000000000142e+01
5.890999999999999659e+01
-6.454999999999999716e+01
-1.160499999999999972e+02
1.037999999999999972e+02
3.435999999999999943e+01
1.879999999999999893e+00
-1.129999999999999893e+00
6.021999999999999886e+01
-1.032800000000000011e+02
3.674000000000000199e+01
-2.830999999999999872e+01
-4.389999999999999680e+00
-4.570000000000000284e+00
6.448999999999999488e+01
-1.127999999999999936e+01
3.650999999999999801e+01
-5.620000000000000107e+00
-1.367999999999999972e+01
-5.339999999999999858e+00
1.780000000000000071e+01
-1.376999999999999957e+01
-9.320000000000000284e+00
2.089000000000000057e+01
1.371000000000000085e+01
-3.400000000000000244e-01
8.750000000000000000e+00
-2.469000000000000128e+01
-7.800000000000000266e-01
3.160999999999999943e+01
-7.523000000000000398e+01
-5.859000000000000341e+01
3.430000000000000160e+00
3.774000000000000199e+01
2.587999999999999901e+01
-4.611999999999999744e+01
1.701000000000000156e+01
-5.721000000000000085e+01
4.860000000000000320e+00
3.629999999999999716e+01
-3.384000000000000341e+01
-2.669999999999999929e+01
1.466000000000000014e+01
5.315999999999999659e+01
-1.044999999999999929e+01
-1.875000000000000000e+01
-1.027999999999999936e+01
1.862000000000000099e+01
5.896000000000000085e+01
-9.489000000000000057e+01
5.538000000000000256e+01
-2.989000000000000057e+01
-5.846999999999999886e+01
8.565000000000000568e+01
-1.637000000000000099e+01
-1.216000000000000014e+01
5.419999999999999929e+00
-6.790000000000000036e+00
4.860000000000000320e+00
2.412999999999999901e+01
1.191000000000000014e+01
-7.012999999999999545e+01
-9.089999999999999858e+00
2.628000000000000114e+01
-2.778000000000000114e+01
-2.673000000000000043e+01
-3.175000000000000000e+01
2.162000000000000099e+01
-2.539999999999999858e+01
8.929999999999999716e+00
9.039999999999999147e+00
2.759999999999999787e+00
7.580000000000000071e+00
1.625000000000000000e+01
-2.430000000000000160e+00
-2.144999999999999929e+01
2.212999999999999901e+01
2.501000000000000156e+01
-4.590999999999999659e+01
1.061999999999999922e+01
-5.486999999999999744e+01
1.247000000000000064e+01
-5.075999999999999801e+01
3.684000000000000341e+01
1.521000000000000085e+01
-7.551999999999999602e+01
-1.650000000000000000e+01
-1.426999999999999957e+01
-3.253000000000000114e+01
2.446999999999999886e+01
7.179999999999999716e+00
1.051999999999999957e+01
-1.655000000000000071e+01
-2.216000000000000014e+01
1.459999999999999964e+00
-1.091999999999999993e+01
1.291999999999999993e+01
1.292999999999999972e+01
-1.349000000000000021e+01
1.429999999999999938e+00
2.930000000000000160e+00
9.019999999999999574e+00
1.316000000000000014e+01
1.135999999999999943e+01
-8.359999999999999432e+00
-8.668000000000000682e+01
3.035999999999999943e+01
2.651000000000000156e+01
3.200000000000000067e-01
-4.160000000000000142e+00
1.509999999999999964e+01
8.859999999999999432e+00
-1.163000000000000078e+01
2.912999999999999901e+01
1.121000000000000085e+01
-2.355999999999999872e+01
3.414000000000000057e+01
-2.096999999999999886e+01
-1.858999999999999986e+01
-4.669999999999999929e+00
4.459999999999999964e+00
-4.493999999999999773e+01
1.989999999999999991e+00
7.269999999999999574e+00
4.485000000000000142e+01
-1.079300000000000068e+02
5.879999999999999893e+00
-3.779999999999999805e+00
-1.157000000000000028e+01
2.010999999999999943e+01
-1.662000000000000099e+01
-1.558000000000000007e+01
-1.735000000000000142e+01
2.823000000000000043e+01
6.190000000000000391e+00
5.190000000000000391e+00
5.709999999999999964e+00
1.335999999999999943e+01
-5.299999999999999822e+00
1.699999999999999956e+00
7.320000000000000284e+00
-1.093999999999999950e+01
-1.226999999999999957e+01
2.601000000000000156e+01
-4.000000000000000083e-02
-1.840000000000000080e+00
1.438000000000000078e+01
1.839000000000000057e+01
-2.298000000000000043e+01
-2.992999999999999972e+01
-4.185000000000000142e+01
-9.140000000000000568e+00
2.392000000000000171e+01
2.698999999999999844e+01
5.004999999999999716e+01
9.200000000000000400e-01
-1.057000000000000028e+01
1.870000000000000107e+00
-4.803000000000000114e+01
5.396000000000000085e+01
-4.264000000000000057e+01
-8.599999999999999645e+00
6.339999999999999858e+00
3.725999999999999801e+01
5.575000000000000000e+01
-1.517100000000000080e+02
7.984000000000000341e+01
-6.257999999999999829e+01
-2.675500000000000114e+02
1.325999999999999979e+01
-1.128999999999999915e+01
-6.578000000000000114e+01
-1.098299999999999983e+02
1.219000000000000057e+02
-8.610999999999999943e+01
-1.105199999999999960e+02
-6.923999999999999488e+01
2.327700000000000102e+02
1.217099999999999937e+02
2.209999999999999964e+00
-1.318300000000000125e+02
1.878000000000000114e+01
1.350000000000000000e+01
1.243999999999999950e+01
-1.746000000000000085e+01
7.500000000000000000e-01
3.089999999999999858e+00
-1.219999999999999929e+01
-6.610000000000000320e+00
5.440000000000000391e+00
2.029999999999999805e+00
1.560000000000000053e+00
-3.700000000000000178e+00
-2.223000000000000043e+01
-7.518000000000000682e+01
-2.810400000000000205e+02
1.742199999999999989e+02
6.196200000000000045e+02
-4.224800000000000182e+02
-6.192999999999999972e+01
-1.280000000000000027e+00
-3.345000000000000284e+01
-1.909000000000000057e+02
6.464000000000000057e+01
4.429999999999999716e+01
-2.378000000000000114e+01
-7.245999999999999375e+01
4.010999999999999943e+01
3.140000000000000124e+00
-2.000000000000000111e-01
6.292000000000000171e+01
8.943000000000000682e+01
-6.118999999999999773e+01
-1.654900000000000091e+02
6.150000000000000000e+01
1.325800000000000125e+02
1.424000000000000021e+01
2.344000000000000128e+01
-1.173799999999999955e+02
5.384000000000000341e+01
-5.632000000000000028e+01
-3.297599999999999909e+02
2.533100000000000023e+02
9.690999999999999659e+01
1.464000000000000057e+01
3.289999999999999858e+01
-8.198000000000000398e+01
4.710000000000000142e+01
1.213000000000000078e+01
1.356599999999999966e+02
1.070000000000000062e+00
-8.670999999999999375e+01
-1.449000000000000021e+01
4.417999999999999972e+01
-1.289000000000000057e+01
2.362999999999999901e+01
-1.770699999999999932e+02
-6.679999999999999716e+00
1.567999999999999972e+01
-2.778000000000000114e+01
2.896999999999999886e+01
-3.625999999999999801e+01
-9.173000000000000398e+01
-4.065999999999999659e+01
-2.078999999999999915e+01
1.749099999999999966e+02
7.389999999999999680e+00
3.386999999999999744e+01
5.665999999999999659e+01
3.561999999999999744e+01
8.915999999999999659e+01
-1.600999999999999943e+02
2.188899999999999864e+02
2.282000000000000028e+01
-4.897999999999999687e+01
-1.912500000000000000e+02
-8.650000000000000355e+00
-4.872999999999999687e+01
1.083499999999999943e+02
-2.525000000000000000e+01
1.942999999999999972e+01
5.040000000000000036e+00
-2.782000000000000028e+01
9.573000000000000398e+01
-4.974000000000000199e+01
-8.306000000000000227e+01
3.838000000000000256e+01
-4.803000000000000114e+01
2.380000000000000071e+01
-1.525000000000000000e+01
-5.709000000000000341e+01
7.049999999999999822e+00
8.400000000000000000e+01
-5.282000000000000028e+01
-2.757000000000000028e+01
7.301999999999999602e+01
-5.567000000000000171e+01
-1.755200000000000102e+02
1.293300000000000125e+02
8.768999999999999773e+01
-5.189000000000000057e+01
-4.221000000000000085e+01
3.300000000000000155e-01
2.587000000000000099e+01
5.753000000000000114e+01
1.889999999999999902e+00
-2.037999999999999901e+01
-2.072100000000000080e+02
1.076299999999999955e+02
-3.259999999999999787e+00
7.690999999999999659e+01
-9.399999999999999467e-01
-1.563300000000000125e+02
-9.814000000000000057e+01
3.829999999999999716e+01
4.019999999999999574e+00
1.483000000000000007e+01
4.268999999999999773e+01
-2.329000000000000057e+02
1.083100000000000023e+02
-6.071999999999999886e+01
-3.474000000000000199e+01
-3.792000000000000171e+01
3.238000000000000256e+01
6.131000000000000227e+01
-2.509999999999999787e+00
-2.039999999999999858e+01
5.049999999999999822e+00
3.632999999999999829e+01
1.617999999999999972e+01
8.750000000000000000e+00
6.900000000000000000e+01
-6.027000000000000313e+01
-2.526999999999999957e+01
-2.453000000000000114e+01
2.698999999999999844e+01
-4.143999999999999773e+01
1.100000000000000000e+01
-2.364000000000000057e+01
-1.660000000000000142e+01
8.037999999999999545e+01
3.782000000000000028e+01
8.042000000000000171e+01
1.339000000000000057e+01
-3.234499999999999886e+02
2.952799999999999727e+02
8.195000000000000284e+01
-2.376299999999999955e+02
-3.164900000000000091e+02
2.416599999999999966e+02
9.868999999999999773e+01
2.094999999999999929e+01
-2.930000000000000071e+01
9.640000000000000568e+00
-1.969000000000000128e+01
4.514000000000000057e+01
1.648000000000000043e+01
-5.265999999999999659e+01
4.879999999999999893e+00
3.166000000000000014e+01
6.450000000000000178e+00
-6.820000000000000284e+01
1.095400000000000063e+02
-2.064999999999999858e+01
5.679999999999999716e+00
-5.950000000000000000e+01
-2.371999999999999886e+01
1.259999999999999964e+01
-6.646999999999999886e+01
3.126000000000000156e+01
-6.540000000000000036e+00
-7.209999999999999964e+00
-2.839000000000000057e+01
3.000000000000000000e+01
2.603000000000000114e+01
-1.278999999999999915e+01
-3.660000000000000142e+00
1.476999999999999957e+01
1.823999999999999844e+01
2.192999999999999972e+01
-5.620000000000000107e+00
-2.814999999999999858e+01
-1.464699999999999989e+02
7.637999999999999545e+01
1.352899999999999920e+02
2.742000000000000171e+01
-1.521500000000000057e+02
-3.478000000000000114e+01
1.313000000000000078e+01
1.568999999999999950e+01
-4.629999999999999893e+00
2.435999999999999943e+01
8.839999999999999858e+00
2.451999999999999957e+01
9.443999999999999773e+01
-9.695999999999999375e+01
-2.779999999999999805e+00
-1.500000000000000000e+00
1.687999999999999901e+01
2.114999999999999858e+01
3.978000000000000114e+01
-6.828000000000000114e+01
-1.240600000000000023e+02
5.647999999999999687e+01
4.735999999999999943e+01
6.653000000000000114e+01
4.095000000000000284e+01
5.075000000000000000e+01
-6.181000000000000227e+01
-3.699999999999999956e-01
-1.038000000000000078e+01
-3.334000000000000341e+01
4.131000000000000227e+01
3.164999999999999858e+01
2.325000000000000000e+01
-3.877000000000000313e+01
5.767999999999999972e+01
5.442999999999999972e+01
-3.600999999999999801e+01
9.470000000000000639e+00
-7.799999999999999822e+00
-3.434000000000000341e+01
5.693999999999999773e+01
4.682000000000000028e+01
4.245000000000000284e+01
-2.469999999999999929e+01
-1.238000000000000078e+01
8.525000000000000000e+01
-1.237900000000000063e+02
-1.460999999999999943e+02
6.377000000000000313e+01
5.789999999999999858e+01
1.561999999999999922e+01
6.546999999999999886e+01
-1.060900000000000034e+02
7.839999999999999858e+00
1.375999999999999979e+01
1.205000000000000071e+01
1.072000000000000064e+01
4.564000000000000057e+01
6.400000000000000000e+01
-3.126999999999999957e+01
-1.603999999999999915e+01
-1.441999999999999993e+01
-1.392999999999999972e+01
8.669999999999999929e+00
-1.441999999999999993e+01
2.828000000000000114e+01
2.917000000000000171e+01
2.299999999999999822e+00
-2.389999999999999858e+01
5.870000000000000107e+00
7.009999999999999787e+00
2.319999999999999840e+00
6.940000000000000391e+00
-5.400000000000000355e+00
-2.107999999999999829e+01
-7.719999999999999751e+00
1.230000000000000071e+01
5.330000000000000071e+00
-1.582000000000000028e+01
6.400000000000000355e+00
-4.099999999999999756e-01
-2.017999999999999972e+01
-5.010999999999999943e+01
7.039000000000000057e+01
2.278000000000000114e+01
-1.430000000000000071e+01
-8.160000000000000142e+00
1.077999999999999936e+01
6.490000000000000213e+00
-6.072500000000000000e+02
1.035499999999999972e+02
-6.018999999999999773e+01
3.546000000000000085e+01
-5.129999999999999893e+00
-4.522999999999999687e+01
6.146999999999999886e+01
-1.178999999999999915e+01
9.764000000000000057e+01
1.304000000000000057e+02
-7.365999999999999659e+01
-5.878000000000000114e+01
8.070000000000000284e+01
6.584000000000000341e+01
-4.745000000000000284e+01
-6.750000000000000000e+00
-4.669999999999999929e+00
2.889999999999999858e+01
1.775000000000000000e+01
-3.003000000000000114e+01
-2.185000000000000142e+01
2.912000000000000099e+01
1.590000000000000080e+00
-4.820000000000000284e+00
1.725000000000000000e+01
2.032999999999999829e+01
2.878000000000000114e+01
-6.146999999999999886e+01
-5.300000000000000266e-01
2.910000000000000142e+00
-1.008999999999999986e+01
3.631000000000000227e+01
-1.710999999999999943e+01
-3.995000000000000284e+01
-2.619999999999999929e+01
2.003999999999999915e+01
8.599999999999999645e+00
-1.077999999999999936e+01
2.029999999999999805e+00
2.729999999999999982e+00
-1.989999999999999991e+00
-1.457000000000000028e+01
1.369999999999999929e+01
1.116000000000000014e+01
9.810000000000000497e+00
1.469699999999999989e+02
-3.803600000000000136e+02
2.049099999999999966e+02
6.246999999999999886e+01
-1.224099999999999966e+02
3.385500000000000114e+02
-1.089599999999999937e+02
-4.067999999999999972e+01
-5.202000000000000313e+01
1.306200000000000045e+02
-2.140000000000000124e+00
-3.300000000000000000e+01
7.276000000000000512e+01
7.190000000000000391e+00
1.005000000000000071e+01
-4.585000000000000142e+01
-3.585999999999999943e+01
-8.570000000000000284e+01
-1.901999999999999957e+01
-1.799000000000000057e+02
-3.096999999999999886e+01
1.168400000000000034e+02
1.259999999999999964e+01
7.896999999999999886e+01
-3.123000000000000043e+01
-5.413000000000000256e+01
5.603000000000000114e+01
3.382999999999999829e+01
7.169999999999999929e+00
-9.080000000000000071e+00
-1.138900000000000006e+02
8.812999999999999545e+01
4.763000000000000256e+01
-6.125000000000000000e+01
8.269999999999999574e+00
2.333999999999999986e+01
2.560999999999999943e+01
7.000000000000000000e+01
-1.277199999999999989e+02
3.182000000000000028e+01
1.992000000000000171e+01
7.898000000000000398e+01
1.795699999999999932e+02
-2.552700000000000102e+02
-1.486999999999999922e+01
5.481000000000000227e+01
-8.449999999999999289e+00
-1.574000000000000021e+01
2.035000000000000142e+01
2.098000000000000043e+01
-1.069999999999999929e+01
6.831999999999999318e+01
3.728000000000000114e+01
-1.028100000000000023e+02
8.884000000000000341e+01
-1.769000000000000128e+01
6.426999999999999602e+01
-2.053999999999999915e+01
-9.689000000000000057e+01
1.141999999999999993e+01
4.318999999999999773e+01
5.320000000000000284e+00
2.896999999999999886e+01
4.807999999999999829e+01
-9.209000000000000341e+01
-1.785999999999999943e+01
2.491000000000000014e+01
4.671000000000000085e+01
-5.277000000000000313e+01
5.567999999999999972e+01
-7.184999999999999432e+01
7.759999999999999787e+00
-2.300000000000000100e-01
1.898000000000000043e+01
8.562000000000000455e+01
4.971999999999999886e+01
-1.007399999999999949e+02
-2.942000000000000171e+01
-4.271999999999999886e+01
1.031099999999999994e+02
-4.238000000000000256e+01
2.158999999999999986e+01
-1.365000000000000036e+01
2.205000000000000071e+01
1.032000000000000028e+01
-5.419999999999999929e+00
2.467999999999999972e+01
1.277999999999999936e+01
1.327800000000000011e+02
-9.815999999999999659e+01
-1.041599999999999966e+02
7.257999999999999829e+01
2.061299999999999955e+02
-2.825299999999999727e+02
6.160000000000000142e+00
1.387800000000000011e+02
-1.776899999999999977e+02
4.154999999999999716e+01
2.819000000000000128e+01
1.745900000000000034e+02
2.109799999999999898e+02
-9.807999999999999829e+01
-2.834900000000000091e+02
-1.741699999999999875e+02
2.761700000000000159e+02
1.974300000000000068e+02
6.071999999999999886e+01
-1.459000000000000057e+02
-3.325799999999999841e+02
7.365999999999999659e+01
-8.210000000000000853e+00
9.884999999999999432e+01
-4.739999999999999858e+01
1.227999999999999936e+01
1.130799999999999983e+02
-1.203400000000000034e+02
-1.604300000000000068e+02
1.095799999999999983e+02
-1.242999999999999972e+01
9.859999999999999432e+00
8.237999999999999545e+01
9.703000000000000114e+01
-9.887999999999999545e+01
-1.580500000000000114e+02
7.860999999999999943e+01
5.997999999999999687e+01
-3.402000000000000313e+01
-1.241999999999999993e+01
2.662000000000000099e+01
1.226700000000000017e+02
1.019500000000000028e+02
-1.300000000000000044e+00
-1.412800000000000011e+02
-2.588999999999999773e+02
-2.773000000000000114e+02
2.007599999999999909e+02
3.073999999999999844e+01
-1.475000000000000000e+01
1.436999999999999922e+01
8.130000000000000782e+00
-1.339000000000000057e+01
5.599999999999999645e+00
1.513000000000000078e+01
1.451999999999999957e+01
1.065000000000000036e+01
8.742000000000000171e+01
3.684000000000000341e+01
9.992000000000000171e+01
-2.707200000000000273e+02
-2.405300000000000011e+02
1.545600000000000023e+02
4.665999999999999659e+01
-4.749000000000000199e+01
3.965999999999999659e+01
6.302000000000000313e+01
-6.003999999999999915e+01
-4.034000000000000341e+01
2.160000000000000142e+00
-1.132000000000000028e+01
2.258999999999999986e+01
5.835000000000000142e+01
6.467000000000000171e+01
-1.006299999999999955e+02
-3.572999999999999687e+01
-4.643999999999999773e+01
-1.072000000000000064e+01
8.500000000000000000e+00
-3.407999999999999829e+01
-8.704999999999999716e+01
9.746999999999999886e+01
1.325399999999999920e+02
1.616999999999999886e+02
-6.160000000000000142e+01
-3.126800000000000068e+02
1.048100000000000023e+02
4.565999999999999659e+01
-2.417999999999999972e+01
1.930500000000000114e+02
-3.008399999999999750e+02
1.361100000000000136e+02
-8.429999999999999716e+00
-1.425999999999999979e+01
2.944999999999999929e+01
-2.126000000000000156e+01
5.354999999999999716e+01
1.008900000000000006e+02
1.422000000000000064e+01
-2.966000000000000014e+01
2.989999999999999858e+01
-3.479999999999999982e+00
-1.619999999999999929e+01
1.284999999999999964e+01
1.160999999999999943e+01
8.480000000000000426e+00
-3.536999999999999744e+01
1.014000000000000057e+01
8.980000000000000426e+00
-1.198000000000000043e+01
-4.709999999999999964e+00
1.181000000000000050e+01
1.869999999999999929e+01
-8.119999999999999218e+00
4.625000000000000000e+01
1.174800000000000040e+02
-1.841000000000000014e+01
-2.320399999999999920e+02
-9.987999999999999545e+01
1.557599999999999909e+02
2.714999999999999858e+01
4.159000000000000341e+01
2.510999999999999943e+01
2.583999999999999986e+01
-2.405999999999999872e+01
-2.083999999999999986e+01
8.730000000000000426e+00
1.350999999999999979e+01
9.778000000000000114e+01
-2.070200000000000102e+02
-2.798999999999999844e+01
-8.999999999999999667e-02
2.630000000000000071e+01
1.696999999999999886e+01
3.532999999999999829e+01
1.780000000000000027e+00
3.709999999999999964e+00
1.099000000000000021e+01
-8.179999999999999716e+00
1.581000000000000050e+01
6.030000000000000249e+00
-9.320000000000000284e+00
-1.089000000000000057e+01
1.384999999999999964e+01
2.680000000000000160e+00
-2.426999999999999957e+01
3.629999999999999893e+00
1.298000000000000043e+01
-8.210000000000000853e+00
3.600000000000000089e+00
9.060000000000000497e+00
2.898999999999999844e+01
-5.853999999999999915e+01
-2.000000000000000000e+01
2.869000000000000128e+01
2.169000000000000128e+01
5.000000000000000000e+00
5.932000000000000028e+01
-8.410000000000000142e+00
-9.517000000000000171e+01
8.262000000000000455e+01
1.047000000000000064e+01
2.075000000000000000e+01
2.544000000000000128e+01
-1.575200000000000102e+02
3.014999999999999858e+01
-3.083999999999999986e+01
2.855000000000000071e+01
1.249000000000000021e+01
2.609999999999999876e+00
-1.209999999999999964e+01
1.310999999999999943e+01
2.005000000000000071e+01
9.759999999999999787e+00
-1.605099999999999909e+02
2.848999999999999844e+01
1.942999999999999972e+01
6.440000000000000391e+00
1.363000000000000078e+01
9.673999999999999488e+01
-1.714499999999999886e+02
5.543999999999999773e+01
1.700000000000000000e+01
2.205000000000000071e+01
3.021999999999999886e+01
4.202000000000000313e+01
-6.122999999999999687e+01
-3.392999999999999972e+01
4.938000000000000256e+01
2.919999999999999929e+01
-1.610000000000000142e+01
-6.730000000000000426e+00
1.475000000000000000e+01
6.139999999999999680e+00
-1.667000000000000171e+01
1.619000000000000128e+01
2.178000000000000114e+01
-6.750000000000000000e+00
-1.127999999999999936e+01
1.742999999999999972e+01
3.229999999999999982e+00
-2.144999999999999929e+01
5.230000000000000426e+00
4.889999999999999680e+00
-4.780000000000000249e+00
-2.146000000000000085e+01
1.283999999999999986e+01
7.889999999999999680e+00
-7.309999999999999609e+00
1.006000000000000050e+01
1.406000000000000050e+01
-1.969999999999999973e+00
-1.477999999999999936e+01
5.093999999999999773e+01
1.739999999999999991e+00
-1.174000000000000021e+01
-5.586999999999999744e+01
4.147999999999999687e+01
1.225999999999999979e+01
-1.208000000000000007e+01
2.182000000000000028e+01
-5.459999999999999964e+00
-9.217000000000000171e+01
7.320999999999999375e+01
1.449399999999999977e+02
-1.057500000000000000e+02
-1.890500000000000114e+02
3.033999999999999986e+01
7.099999999999999645e+00
-1.225999999999999979e+01
2.546999999999999886e+01
2.933999999999999986e+01
1.446000000000000085e+01
4.815999999999999659e+01
-3.092999999999999972e+01
-7.331000000000000227e+01
-8.765999999999999659e+01
-1.025000000000000000e+01
5.390999999999999659e+01
1.459999999999999964e+00
-5.118999999999999773e+01
1.017999999999999972e+01
1.821999999999999886e+01
-3.439999999999999947e+00
3.041000000000000014e+01
2.014999999999999858e+01
-2.910000000000000142e+00
-1.921000000000000085e+01
2.376000000000000156e+01
1.584999999999999964e+01
-8.820000000000000284e+00
2.999999999999999889e-01
1.835000000000000142e+01
-2.200000000000000178e+00
-1.725000000000000000e+01
5.188000000000000256e+01
-2.594000000000000128e+01
-2.294000000000000128e+01
-7.410000000000000142e+00
-1.511999999999999922e+01
-5.204999999999999716e+01
3.350000000000000000e+01
7.112999999999999545e+01
1.133299999999999983e+02
-1.108100000000000023e+02
-1.238000000000000078e+01
3.839999999999999858e+01
-5.225000000000000000e+01
2.344000000000000128e+01
2.987000000000000099e+01
9.609999999999999432e+00
-2.779999999999999805e+00
-2.921000000000000085e+01
2.628000000000000114e+01
2.626000000000000156e+01
1.803000000000000114e+01
-1.681399999999999864e+02
4.343999999999999773e+01
1.293999999999999950e+01
-5.578999999999999915e+01
3.141000000000000014e+01
1.123000000000000043e+01
-1.332000000000000028e+01
1.161999999999999922e+01
3.092999999999999972e+01
-1.252199999999999989e+02
1.203999999999999915e+01
3.224000000000000199e+01
6.709999999999999964e+00
5.300000000000000266e-01
-4.849999999999999645e+00
1.639999999999999858e+01
2.032999999999999829e+01
-1.117999999999999972e+01
-4.888000000000000256e+01
3.350000000000000000e+01
-8.630000000000000782e+00
2.870000000000000107e+00
2.432000000000000028e+01
-1.600000000000000089e+00
-1.515000000000000036e+01
2.608999999999999986e+01
5.622999999999999687e+01
-9.287999999999999545e+01
2.720000000000000195e+00
1.049000000000000021e+01
1.134999999999999964e+01
-2.078999999999999915e+01
2.389000000000000057e+01
1.238000000000000078e+01
-1.574000000000000021e+01
-3.910000000000000142e+00
1.967999999999999972e+01
-1.151299999999999955e+02
4.750999999999999801e+01
2.082000000000000028e+01
2.289999999999999858e+01
-7.179999999999999716e+00
-1.864999999999999858e+01
1.771999999999999886e+01
-6.089999999999999858e+00
-9.230000000000000426e+00
6.839999999999999858e+00
1.755000000000000071e+01
-1.005000000000000071e+01
-2.098999999999999844e+01
6.879999999999999893e+00
2.520000000000000018e+00
-1.118999999999999950e+01
7.169999999999999929e+00
1.441000000000000014e+01
-6.150000000000000355e+00
-2.032999999999999829e+01
-3.759000000000000341e+01
-1.669999999999999929e+01
6.379999999999999893e+00
2.464000000000000057e+01
4.990000000000000213e+00
1.218999999999999950e+01
1.169999999999999929e+00
-1.501800000000000068e+02
-2.396000000000000085e+01
-3.947999999999999687e+01
5.025000000000000000e+01
4.189999999999999858e+01
-9.000000000000000222e-01
-1.901000000000000156e+01
1.473000000000000043e+01
5.490000000000000213e+00
-1.828000000000000114e+01
1.249000000000000021e+01
2.567000000000000171e+01
2.569999999999999929e+01
6.118999999999999773e+01
-1.825999999999999943e+02
2.080000000000000071e+00
2.759999999999999787e+00
6.170000000000000284e+01
3.463000000000000256e+01
-1.971000000000000085e+01
1.192999999999999972e+01
4.621000000000000085e+01
-5.642999999999999972e+01
-1.100999999999999979e+01
3.057999999999999829e+01
-1.161700000000000017e+02
3.073999999999999844e+01
3.674000000000000199e+01
8.080000000000000071e+00
-4.140999999999999659e+01
2.239999999999999858e+01
1.635000000000000142e+01
1.048000000000000043e+01
8.240000000000000213e+00
-2.589000000000000057e+01
-1.340300000000000011e+02
6.192999999999999972e+01
2.660999999999999943e+01
-1.930500000000000114e+02
-5.032000000000000028e+01
-4.835000000000000142e+01
2.776999999999999957e+01
1.360600000000000023e+02
-1.086400000000000006e+02
-2.111399999999999864e+02
1.037399999999999949e+02
-5.099999999999999645e+00
2.032000000000000028e+01
1.091000000000000014e+01
-3.012999999999999901e+01
4.539999999999999858e+01
-3.734000000000000341e+01
-9.599999999999999645e-01
3.750000000000000000e+00
-8.160000000000000142e+00
-1.139999999999999902e+00
2.942999999999999972e+01
1.016999999999999993e+01
-1.115199999999999960e+02
2.405000000000000071e+01
-4.903999999999999915e+01
-8.898999999999999488e+01
2.896999999999999886e+01
3.411999999999999744e+01
1.243999999999999950e+01
3.020000000000000018e+00
-1.745999999999999943e+02
2.076999999999999957e+01
-3.930000000000000160e+00
6.604000000000000625e+01
1.382599999999999909e+02
-7.512999999999999545e+01
-2.019399999999999977e+02
-1.047600000000000051e+02
2.363499999999999943e+02
-2.125000000000000000e+01
-4.442999999999999972e+01
2.494000000000000128e+01
3.385000000000000142e+01
1.465000000000000036e+01
4.146000000000000085e+01
1.433000000000000007e+01
-3.417000000000000171e+01
-7.109000000000000341e+01
-2.810000000000000053e+00
5.560000000000000142e+01
8.031999999999999318e+01
-1.811699999999999875e+02
-5.442000000000000171e+01
-9.000000000000000000e+00
5.275999999999999801e+01
5.263000000000000256e+01
7.401000000000000512e+01
1.468000000000000114e+02
-5.800000000000000000e+01
-2.435600000000000023e+02
3.970000000000000284e+01
6.501000000000000512e+01
6.267999999999999972e+01
5.885999999999999943e+01
-9.679999999999999716e+00
2.398000000000000043e+01
-1.746000000000000085e+01
-3.636999999999999744e+01
-1.241000000000000014e+01
-6.385000000000000142e+01
6.470999999999999375e+01
3.850000000000000089e+00
-4.385999999999999943e+01
2.335999999999999943e+01
3.534000000000000341e+01
-9.631999999999999318e+01
3.829999999999999716e+01
1.214000000000000057e+02
-3.984000000000000341e+01
-1.809799999999999898e+02
1.212900000000000063e+02
3.017000000000000171e+01
-1.683999999999999986e+01
-1.475000000000000000e+01
9.380000000000000782e+00
5.610000000000000320e+00
-1.351999999999999957e+01
3.057000000000000028e+01
6.297999999999999687e+01
-1.938499999999999943e+02
6.371999999999999886e+01
-5.493999999999999773e+01
-1.331699999999999875e+02
6.050999999999999801e+01
-3.942999999999999972e+01
-5.167000000000000171e+01
5.735000000000000142e+01
-4.525999999999999801e+01
-4.664000000000000057e+01
-4.042999999999999972e+01
-2.072500000000000000e+02
-6.595000000000000284e+01
2.947900000000000205e+02
2.800000000000000000e+01
-7.765999999999999659e+01
3.460999999999999943e+01
9.195000000000000284e+01
2.953000000000000114e+01
-4.110000000000000320e+00
-3.410999999999999943e+01
3.371000000000000085e+01
3.507000000000000028e+01
4.575999999999999801e+01
4.242999999999999972e+01
-1.045300000000000011e+02
-2.600000000000000000e+01
-3.807000000000000028e+01
-1.256500000000000057e+02
1.061400000000000006e+02
7.360999999999999943e+01
-7.080000000000000071e+00
2.196000000000000085e+01
6.129999999999999716e+01
9.904999999999999716e+01
-8.001999999999999602e+01
-1.408700000000000045e+02
8.115999999999999659e+01
2.864999999999999858e+01
-2.216000000000000014e+01
2.119999999999999929e+01
3.746000000000000085e+01
-1.251999999999999957e+01
-3.120000000000000107e+00
2.453999999999999915e+01
3.593999999999999773e+01
-6.987000000000000455e+01
-5.806000000000000227e+01
-2.069900000000000091e+02
9.440000000000000568e+01
5.647999999999999687e+01
-9.400000000000000355e+00
1.799999999999999933e-01
6.626999999999999602e+01
-1.719999999999999929e+01
8.109999999999999432e+00
-4.896999999999999886e+01
2.105999999999999872e+01
3.175000000000000000e+01
-1.213000000000000078e+01
-1.489000000000000057e+01
-5.665999999999999659e+01
7.885999999999999943e+01
-3.796999999999999886e+01
-6.800000000000000488e-01
2.353999999999999915e+01
5.719999999999999751e+00
-9.380000000000000782e+00
5.419999999999999929e+00
-2.808999999999999986e+01
-2.610000000000000142e+01
2.141000000000000014e+01
4.093999999999999773e+01
-9.571999999999999886e+01
6.481999999999999318e+01
-4.378000000000000114e+01
1.113900000000000006e+02
-4.611999999999999744e+01
1.696000000000000085e+01
2.412999999999999901e+01
-7.519999999999999574e+00
-3.359999999999999876e+00
-4.370000000000000107e+00
-1.250000000000000000e+01
-1.910000000000000142e+01
1.760999999999999943e+01
1.864999999999999858e+01
-1.459999999999999964e+00
-1.523000000000000043e+01
1.374000000000000021e+01
1.889000000000000057e+01
-7.389999999999999680e+00
7.799999999999999822e+00
-1.239999999999999991e+00
1.499999999999999944e-01
-1.667000000000000171e+01
-2.999999999999999889e-02
9.490000000000000213e+00
-9.369999999999999218e+00
8.089999999999999858e+00
2.275000000000000000e+01
-5.903000000000000114e+01
-1.649999999999999911e+00
2.417999999999999972e+01
-5.100000000000000089e-01
-3.695000000000000284e+01
9.285999999999999943e+01
9.429999999999999716e+00
1.391000000000000014e+01
-2.458999999999999986e+01
3.785999999999999943e+01
9.150000000000000355e+00
-2.660000000000000142e+00
-9.269999999999999574e+00
-6.059999999999999609e+00
1.798999999999999844e+01
3.609999999999999876e+00
-1.282000000000000028e+01
-4.365999999999999659e+01
1.355000000000000071e+01
6.962000000000000455e+01
-1.928999999999999915e+01
-6.128000000000000114e+01
9.909000000000000341e+01
-5.415999999999999659e+01
1.005100000000000051e+02
-3.740999999999999659e+01
6.570000000000000284e+00
-3.792999999999999972e+01
4.461999999999999744e+01
-1.241200000000000045e+02
8.373999999999999488e+01
5.892999999999999972e+01
-1.687000000000000099e+01
7.059000000000000341e+01
3.493999999999999773e+01
-2.008999999999999986e+01
-4.200000000000000000e+01
-1.013000000000000078e+01
-3.981000000000000227e+01
2.814000000000000057e+01
1.703999999999999915e+01
-9.864000000000000057e+01
-1.334999999999999964e+01
4.867999999999999972e+01
2.790000000000000036e+00
-5.280000000000000249e+00
3.419999999999999929e+00
-7.919999999999999929e+00
1.701000000000000156e+01
-2.169999999999999929e+00
-1.019999999999999929e+01
2.932000000000000028e+01
1.402999999999999936e+01
1.635000000000000142e+01
2.523000000000000043e+01
-8.862999999999999545e+01
-9.880000000000000782e+00
9.920000000000000284e+01
-5.200000000000000178e+00
9.179999999999999716e+00
1.530000000000000071e+01
-6.448999999999999488e+01
-1.800000000000000044e+00
3.364999999999999858e+01
-3.704999999999999716e+01
4.339999999999999858e+01
-3.242000000000000171e+01
7.990000000000000213e+00
-1.361999999999999922e+01
3.761999999999999744e+01
1.392599999999999909e+02
8.754999999999999716e+01
-4.007999999999999829e+01
-2.619000000000000128e+01
2.092000000000000171e+01
-5.703999999999999915e+01
7.112000000000000455e+01
-8.310000000000000497e+00
-9.250000000000000000e+00
-1.039000000000000057e+01
-2.119999999999999929e+01
1.221200000000000045e+02
-9.067000000000000171e+01
4.364999999999999858e+01
4.238000000000000256e+01
7.848999999999999488e+01
4.313000000000000256e+01
-2.454399999999999977e+02
5.967999999999999972e+01
1.284999999999999964e+01
3.067000000000000171e+01
-1.749000000000000057e+02
1.373000000000000043e+01
-1.992100000000000080e+02
-6.443000000000000682e+01
-2.353000000000000114e+01
9.423999999999999488e+01
6.485999999999999943e+01
-1.334000000000000057e+02
-1.092999999999999972e+01
-1.066999999999999993e+01
9.179000000000000625e+01
-6.177000000000000313e+01
-1.205000000000000071e+01
-3.003999999999999915e+01
-6.940000000000000391e+00
2.341000000000000014e+01
2.887999999999999901e+01
-1.084999999999999964e+01
-1.039000000000000057e+01
2.467000000000000171e+01
6.669999999999999929e+00
-1.277999999999999936e+01
-2.691000000000000014e+01
2.119000000000000128e+01
9.250000000000000000e+00
-1.566000000000000014e+01
1.560999999999999943e+01
1.514000000000000057e+01
-9.619999999999999218e+00
-2.373000000000000043e+01
1.726000000000000156e+01
-3.879999999999999893e+00
-1.760000000000000142e+01
2.919000000000000128e+01
4.240000000000000213e+00
-9.720000000000000639e+00
-7.650000000000000355e+00
6.070000000000000284e+00
-8.720000000000000639e+00
-1.689999999999999858e+01
1.853999999999999915e+01
2.640000000000000124e+00
-1.533999999999999986e+01
1.574000000000000021e+01
2.109999999999999876e+00
-1.605000000000000071e+01
3.540000000000000036e+00
1.306000000000000050e+01
2.399999999999999911e-01
-2.473000000000000043e+01
1.950000000000000000e+01
8.800000000000000711e+00
-1.971999999999999886e+01
1.490000000000000036e+01
1.209999999999999964e+01
-1.547000000000000064e+01
-7.099999999999999645e-01
1.705999999999999872e+01
-2.700000000000000178e+00
-2.703999999999999915e+01
2.257000000000000028e+01
1.444999999999999929e+01
-1.619999999999999929e+01
3.459999999999999964e+00
5.889999999999999680e+00
-1.325999999999999979e+01
-1.392999999999999972e+01
2.221999999999999886e+01
6.419999999999999929e+00
-2.994000000000000128e+01
8.369999999999999218e+00
2.150000000000000000e+01
-8.509999999999999787e+00
-2.576000000000000156e+01
2.362000000000000099e+01
1.632999999999999829e+01
-1.846000000000000085e+01
-1.129999999999999893e+00
2.119000000000000128e+01
7.799999999999999822e+00
-2.426000000000000156e+01
1.513000000000000078e+01
1.111999999999999922e+01
-7.139999999999999680e+00
-1.925000000000000000e+01
8.490000000000000213e+00
-2.250000000000000000e+00
-3.309000000000000341e+01
1.657999999999999829e+01
1.490000000000000036e+01
-1.966000000000000014e+01
5.839999999999999858e+00
1.605000000000000071e+01
-9.039999999999999147e+00
-1.515000000000000036e+01
1.673999999999999844e+01
8.599999999999999867e-01
-4.284000000000000341e+01
3.382000000000000028e+01
3.169000000000000128e+01
1.425999999999999979e+01
4.690000000000000391e+00
-1.040000000000000036e+00
-7.931999999999999318e+01
1.341999999999999993e+01
5.100999999999999801e+01
-6.060000000000000142e+01
-4.972999999999999687e+01
4.885000000000000142e+01
1.306000000000000050e+01
-4.853999999999999915e+01
1.190000000000000000e+02
-1.506000000000000050e+01
3.660000000000000142e+00
1.139999999999999902e+00
-2.501000000000000156e+01
2.964000000000000057e+01
1.448300000000000125e+02
-8.369999999999999218e+00
-1.416999999999999886e+02
3.485999999999999943e+01
-2.700000000000000178e-01
-2.174300000000000068e+02
1.395000000000000000e+02
-1.541000000000000014e+01
-1.871800000000000068e+02
-4.728999999999999915e+01
2.606399999999999864e+02
8.101000000000000512e+01
-1.114099999999999966e+02
1.841800000000000068e+02
-1.657400000000000091e+02
-1.462400000000000091e+02
9.015999999999999659e+01
9.112999999999999545e+01
-2.208999999999999986e+01
3.481000000000000227e+01
3.350000000000000000e+01
2.505000000000000071e+01
1.164200000000000017e+02
-1.899199999999999875e+02
-6.460999999999999943e+01
5.229999999999999716e+01
1.860000000000000098e+00
-2.767000000000000171e+01
-4.653000000000000114e+01
1.515000000000000036e+01
-1.000000000000000021e-02
-4.877000000000000313e+01
2.138199999999999932e+02
6.292999999999999972e+01
-5.863000000000000256e+01
-3.217999999999999972e+01
1.710000000000000142e+01
-4.739999999999999858e+01
4.039000000000000057e+01
-1.056000000000000050e+01
8.551999999999999602e+01
-4.317999999999999972e+01
-1.044899999999999949e+02
1.358600000000000136e+02
5.042999999999999972e+01
-6.498000000000000398e+01
-4.707999999999999829e+01
-5.347999999999999687e+01
-1.921000000000000085e+01
7.804999999999999716e+01
2.225699999999999932e+02
-1.877899999999999920e+02
-1.012199999999999989e+02
2.928000000000000114e+01
-6.637000000000000455e+01
-1.258499999999999943e+02
-1.470900000000000034e+02
9.692000000000000171e+01
1.373799999999999955e+02
5.270000000000000284e+01
9.940999999999999659e+01
-1.147900000000000063e+02
-1.355500000000000114e+02
-3.632000000000000028e+01
-6.099999999999999867e-01
-5.761999999999999744e+01
-2.002500000000000000e+02
4.727000000000000313e+01
4.240999999999999659e+01
-1.165000000000000036e+01
-5.090999999999999659e+01
7.993999999999999773e+01
1.538100000000000023e+02
4.815799999999999841e+02
-2.050900000000000034e+02
-4.319599999999999795e+02
1.405699999999999932e+02
-3.713000000000000256e+01
3.192999999999999972e+01
9.595999999999999375e+01
-5.589999999999999858e+00
-1.230000000000000071e+01
-3.293999999999999773e+01
5.242999999999999972e+01
8.570000000000000284e+01
-1.858999999999999986e+01
-7.765999999999999659e+01
3.360000000000000142e+01
1.253100000000000023e+02
2.373000000000000043e+01
-8.212000000000000455e+01
8.590999999999999659e+01
5.975999999999999801e+01
-3.009999999999999787e+00
-7.018000000000000682e+01
-1.420800000000000125e+02
1.339900000000000091e+02
5.232000000000000028e+01
4.985999999999999943e+01
3.427000000000000313e+01
8.293000000000000682e+01
-3.310000000000000142e+01
-8.551999999999999602e+01
-1.476699999999999875e+02
2.199699999999999989e+02
4.678000000000000114e+01
-1.811899999999999977e+02
3.025000000000000000e+01
3.017999999999999972e+01
8.519999999999999574e+00
-9.609999999999999432e+01
7.090999999999999659e+01
4.690000000000000391e+00
3.789999999999999858e+01
6.153999999999999915e+01
-7.690000000000000391e+00
-6.926000000000000512e+01
2.000000000000000111e-01
-1.707999999999999829e+01
-6.138000000000000256e+01
-6.190000000000000391e+00
-1.898999999999999844e+01
-1.303899999999999864e+02
-1.905500000000000114e+02
3.953999999999999773e+02
-2.285200000000000102e+02
-1.221500000000000057e+02
1.336200000000000045e+02
-2.264999999999999858e+01
5.782000000000000028e+01
-9.843999999999999773e+01
-1.660000000000000142e+01
7.596999999999999886e+01
-1.722599999999999909e+02
4.071000000000000085e+01
9.492000000000000171e+01
1.574699999999999989e+02
-6.559000000000000341e+01
-3.895600000000000023e+02
5.996000000000000085e+01
2.352899999999999920e+02
2.596800000000000068e+02
-1.155499999999999972e+02
-1.919000000000000057e+02
-2.002800000000000011e+02
1.138100000000000023e+02
3.729599999999999795e+02
-2.077800000000000011e+02
-1.492800000000000011e+02
-2.803999999999999915e+01
-2.530999999999999872e+01
-3.882000000000000028e+01
-9.339999999999999858e+00
-2.850000000000000089e+00
-1.580000000000000071e+00
-1.964000000000000057e+01
1.482000000000000028e+01
1.192999999999999972e+01
1.623999999999999844e+01
-4.207000000000000028e+01
-6.181000000000000227e+01
7.914000000000000057e+01
-1.026400000000000006e+02
-5.592000000000000171e+01
2.179000000000000057e+02
-5.331000000000000227e+01
-4.629999999999999716e+01
-1.144200000000000017e+02
-8.979000000000000625e+01
2.171500000000000057e+02
1.535999999999999943e+01
9.590999999999999659e+01
1.117999999999999972e+01
-1.704900000000000091e+02
5.122999999999999687e+01
6.693999999999999773e+01
-7.857999999999999829e+01
4.649000000000000199e+01
-2.348000000000000043e+01
-3.029999999999999805e+00
1.080000000000000071e+01
-4.160999999999999943e+01
-4.299999999999999822e+00
3.239999999999999858e+01
-1.035799999999999983e+02
1.567299999999999898e+02
-3.271999999999999886e+01
3.503000000000000114e+01
8.962000000000000455e+01
8.784000000000000341e+01
-2.593100000000000023e+02
5.103000000000000114e+01
-6.006000000000000227e+01
-1.051800000000000068e+02
-3.874000000000000199e+01
4.309999999999999609e+00
7.814000000000000057e+01
-5.265999999999999659e+01
4.756000000000000227e+01
3.345000000000000284e+01
2.525000000000000000e+01
-1.027999999999999936e+01
1.524000000000000021e+01
-1.522000000000000064e+01
1.762000000000000099e+01
1.296899999999999977e+02
-1.050100000000000051e+02
1.776000000000000156e+01
5.699999999999999512e-01
2.435000000000000142e+01
-2.419999999999999929e+00
9.949999999999999289e+00
-1.287100000000000080e+02
-2.421999999999999886e+01
6.687000000000000455e+01
1.289000000000000057e+01
-1.716000000000000014e+01
1.260000000000000009e+00
-8.779999999999999361e+00
1.676000000000000156e+01
3.139000000000000057e+01
-1.577999999999999936e+01
-3.700000000000000178e+00
1.923999999999999844e+01
6.990000000000000213e+00
-1.605999999999999872e+01
4.759999999999999787e+00
1.232000000000000028e+01
3.099999999999999978e-01
-1.930999999999999872e+01
8.550000000000000711e+00
8.589999999999999858e+00
-1.580000000000000071e+00
-5.030000000000000249e+00
5.202000000000000313e+01
1.604600000000000080e+02
-1.486999999999999922e+01
-3.932000000000000028e+01
-2.010600000000000023e+02
-3.438000000000000256e+01
1.583000000000000007e+01
7.873000000000000398e+01
5.106000000000000227e+01
-4.345000000000000284e+01
-1.805999999999999872e+01
6.080000000000000071e+00
-8.084999999999999432e+01
1.727400000000000091e+02
4.200999999999999801e+01
-1.091800000000000068e+02
-1.116999999999999993e+01
2.576999999999999957e+01
2.430000000000000160e+00
6.199999999999999956e-01
8.699999999999999289e+00
8.640000000000000568e+00
1.360999999999999943e+01
-1.689999999999999858e+01
1.225000000000000000e+01
9.726999999999999602e+01
-4.396000000000000085e+01
1.459999999999999964e+01
-7.750000000000000000e+00
5.679999999999999716e+01
1.186999999999999922e+01
2.167999999999999972e+01
1.953999999999999915e+01
-1.901000000000000156e+01
-2.214999999999999858e+01
2.214999999999999858e+01
5.459999999999999964e+00
-1.006000000000000050e+01
-2.689999999999999947e+00
-4.222999999999999687e+01
-4.370000000000000107e+00
7.695000000000000284e+01
2.514999999999999858e+01
1.655000000000000071e+01
-1.932999999999999829e+01
-1.929999999999999938e+00
5.610000000000000320e+00
5.889999999999999680e+00
2.790000000000000036e+00
1.089000000000000057e+01
6.750000000000000000e+00
9.810000000000000497e+00
8.289999999999999147e+00
3.250000000000000000e+00
1.174000000000000021e+01
4.149000000000000199e+01
-9.254000000000000625e+01
2.994999999999999929e+01
-3.334000000000000341e+01
3.069999999999999929e+01
6.150000000000000355e+00
1.812999999999999901e+01
-3.224000000000000199e+01
4.640999999999999659e+01
1.113000000000000078e+01
2.819000000000000128e+01
2.305000000000000071e+01
6.453000000000000114e+01
-1.078199999999999932e+02
-8.429000000000000625e+01
-8.371999999999999886e+01
-7.421999999999999886e+01
3.343700000000000045e+02
7.720000000000000284e+01
-2.619999999999999929e+01
4.900000000000000355e+00
-2.061800000000000068e+02
8.168000000000000682e+01
9.109999999999999432e+00
-1.839999999999999858e+01
-6.061999999999999744e+01
-1.234200000000000017e+02
-2.008899999999999864e+02
2.492100000000000080e+02
9.104999999999999716e+01
8.243000000000000682e+01
1.700000000000000000e+01
-2.360000000000000142e+01
-1.005000000000000000e+02
-2.348999999999999844e+01
-3.990000000000000213e+00
8.150000000000000355e+00
4.456000000000000227e+01
-9.743999999999999773e+01
4.468999999999999773e+01
-2.194999999999999929e+01
9.890000000000000568e+00
-2.051999999999999957e+01
-1.628999999999999915e+01
-1.108100000000000023e+02
-1.569000000000000057e+02
2.738500000000000227e+02
-1.480099999999999909e+02
4.719999999999999751e+00
-3.389999999999999858e+01
