1587734399.00
64.000000
-0.00
-0.00
-0.00
-0.00
-0.00
-0.00
-0.00
-0.00
-0.00
-0.00
0.00
0.01
0.01
-0.00
-0.03
-0.05
-0.05
0.00
0.13
0.36
0.66
1.01
1.37
1.72
2.06
2.40
2.79
3.24
3.80
4.43
5.08
5.71
6.28
6.82
7.38
8.05
8.86
9.94
11.18
12.49
13.74
14.89
15.98
17.18
18.69
20.66
23.32
26.46
29.83
33.14
36.23
39.18
42.32
46.05
50.70
56.62
63.47
70.73
77.87
84.57
90.94
97.50
104.94
113.81
124.64
136.94
149.93
162.76
174.91
186.47
198.08
211.09
224.18
239.61
257.97
279.39
302.72
325.15
342.39
349.82
344.00
323.96
291.99
251.90
208.04
163.79
120.84
79.56
39.73
1.42
-34.92
-68.26
-98.19
-124.78
-148.40
-169.36
-187.69
-203.28
-215.92
-225.75
-233.11
-238.96
-244.36
-250.25
-257.24
-265.14
-273.49
-281.68
-289.32
-296.46
-304.02
-313.41
-325.86
-341.33
-357.88
-371.85
-378.97
-376.07
-362.22
-339.17
-310.27
-279.01
-247.82
-217.79
-189.31
-162.82
-139.11
-118.98
-102.52
-88.70
-75.71
-61.95
-46.91
-31.56
-17.64
-6.65
0.98
6.25
10.90
16.42
23.19
30.26
36.10
39.48
40.34
39.81
39.59
40.92
43.83
47.14
49.24
49.08
46.81
43.79
41.74
41.72
43.52
45.68
46.44
44.77
41.00
36.70
33.73
33.14
34.57
36.35
36.61
34.29
29.84
24.98
21.69
21.11
22.84
25.07
25.67
23.37
18.54
13.19
9.90
10.44
14.78
20.99
26.30
28.57
27.33
23.95
20.74
19.53
20.63
22.72
23.81
22.50
18.88
14.46
11.24
10.51
12.12
14.50
15.72
14.56
11.18
7.10
4.29
4.00
6.10
9.03
10.72
9.78
6.20
1.45
-2.43
-3.93
-2.95
-0.90
0.25
-0.94
-4.51
-9.02
-12.38
-13.07
-10.98
-7.56
-4.88
-4.54
-6.72
-10.13
-12.74
-13.03
-10.79
-7.31
-4.54
-3.87
-5.37
-7.69
-8.87
-7.60
-3.96
0.45
3.49
3.69
1.06
-2.90
-6.08
-6.98
-5.54
-3.18
-1.80
-2.69
-5.74
-9.43
-11.73
-11.26
-8.05
-3.59
0.09
1.56
0.72
-1.13
-2.09
-0.84
2.69
7.16
10.74
12.08
11.14
9.23
8.28
9.68
13.54
18.51
22.63
24.39
23.56
21.36
19.78
20.39
23.51
27.94
31.76
33.36
32.36
29.85
27.72
27.53
29.68
33.08
35.90
36.61
34.87
31.73
29.03
28.22
29.56
31.89
33.38
32.61
29.42
25.02
21.34
19.81
20.62
22.50
23.57
22.43
18.91
14.24
10.34
8.69
9.55
11.74
13.45
13.21
10.74
7.09
4.07
3.12
4.53
7.20
9.26
9.18
6.61
2.63
-0.78
-1.96
-0.43
2.75
5.64
6.51
4.82
1.55
-1.39
-2.33
-0.78
2.24
4.81
5.31
3.31
-0.12
-3.03
-3.80
-1.98
1.33
4.24
5.14
3.62
0.68
-1.83
-2.41
-0.71
2.26
4.72
5.21
3.38
0.22
-2.51
-3.35
-1.87
1.02
3.60
4.37
2.85
-0.13
-2.91
-3.95
-2.66
0.17
2.85
3.78
2.36
-0.65
-3.47
-4.41
-2.81
0.49
3.59
4.69
3.10
-0.34
-3.66
-4.98
-3.55
-0.22
3.02
4.30
2.87
-0.42
-3.59
-4.74
-3.12
0.39
3.80
5.23
3.91
0.64
-2.61
-3.99
-2.70
0.47
3.64
4.96
3.68
0.53
-2.65
-4.05
-2.90
0.08
3.10
4.39
3.18
0.15
-2.95
-4.35
-3.22
-0.22
2.91
4.38
3.30
0.23
-3.11
-4.90
-4.21
-1.54
1.47
3.03
2.26
-0.37
-3.18
-4.43
-3.23
-0.15
3.04
4.54
3.47
0.44
-2.80
-4.36
-3.35
-0.36
2.84
4.41
3.44
0.52
-2.65
-4.26
-3.40
-0.62
2.42
4.01
3.29
0.81
-1.83
-2.96
-1.79
1.13
4.15
5.54
4.45
1.40
-1.96
-3.82
-3.19
-0.50
2.59
4.26
3.47
0.59
-2.77
-4.76
-4.27
-1.62
1.60
3.54
3.12
0.62
-2.39
-4.10
-3.42
-0.65
2.66
4.69
4.28
1.69
-1.61
-3.74
-3.51
-1.12
1.97
3.89
3.45
0.84
-2.45
-4.49
-4.07
-1.35
2.08
4.27
3.97
1.38
-1.93
-3.98
-3.49
-0.66
2.91
5.24
5.04
2.48
-0.94
-3.29
-3.28
-1.03
1.99
3.94
3.58
1.02
-2.36
-4.67
-4.67
-2.41
0.69
2.78
2.61
0.27
-2.83
-4.76
-4.27
-1.49
2.05
4.34
4.08
1.41
-2.13
-4.46
-4.22
-1.49
2.17
4.72
4.75
2.29
-1.20
-3.74
-3.91
-1.72
1.42
3.56
3.40
1.03
-2.11
-4.07
-3.54
-0.63
3.10
5.67
5.72
3.29
-0.19
-2.76
-3.06
-1.07
1.88
3.94
3.84
1.56
-1.61
-3.86
-3.95
-1.85
1.12
3.19
3.11
0.91
-2.09
-4.05
-3.73
-1.17
2.21
4.52
4.42
1.89
-1.72
-4.48
-4.98
-3.05
0.07
2.53
2.94
1.15
-1.68
-3.76
-3.78
-1.65
1.37
3.48
3.43
1.18
-1.97
-4.17
-4.10
-1.72
1.65
4.15
4.46
2.50
-0.52
-2.79
-3.01
-1.10
1.69
3.62
3.39
0.98
-2.34
-4.68
-4.67
-2.22
1.35
4.06
4.44
2.32
-1.02
-3.60
-3.88
-1.66
1.78
4.45
4.81
2.63
-0.84
-3.59
-4.12
-2.18
1.02
3.56
3.99
2.05
-1.12
-3.72
-4.32
-2.66
0.18
2.51
3.01
1.45
-1.17
-3.16
-3.20
-1.10
2.06
4.52
4.88
2.92
-0.28
-2.88
-3.43
-1.66
1.33
3.74
4.12
2.19
-0.95
-3.49
-3.97
-2.08
1.09
3.74
4.40
2.73
-0.29
-2.91
-3.68
-2.22
0.48
2.72
3.07
1.23
-1.79
-4.22
-4.60
-2.59
0.76
3.60
4.39
2.72
-0.45
-3.28
-4.17
-2.59
0.54
3.42
4.43
3.01
0.00
-2.81
-3.79
-2.35
0.67
3.46
4.39
2.83
-0.41
-3.53
-4.83
-3.63
-0.70
2.24
3.52
2.51
-0.11
-2.66
-3.54
-2.14
0.77
3.48
4.36
2.83
-0.34
-3.35
-4.53
-3.19
-0.12
2.91
4.16
2.91
-0.14
-3.22
-4.58
-3.41
-0.40
2.70
4.09
2.93
-0.14
-3.40
-4.97
-3.95
-0.93
2.33
4.00
3.18
0.42
-2.55
-3.93
-2.86
0.04
3.02
4.31
3.12
0.13
-2.87
-4.07
-2.68
0.57
3.82
5.21
3.91
0.61
-2.85
-4.58
-3.67
-0.71
2.54
4.26
3.52
0.84
-2.16
-3.73
-2.96
-0.31
2.63
4.15
3.37
0.71
-2.27
-3.81
-2.99
-0.24
2.81
4.36
3.43
0.51
-2.70
-4.29
-3.25
-0.11
3.30
5.03
4.09
1.03
-2.34
-4.09
-3.27
-0.43
2.63
4.06
2.94
-0.17
-3.58
-5.45
-4.81
-2.03
1.33
3.50
3.43
1.33
-1.50
-3.37
-3.20
-1.06
1.81
3.81
3.78
1.74
-1.15
-3.22
-3.24
-1.18
1.73
3.74
3.62
1.33
-1.87
-4.14
-4.17
-1.92
1.27
3.53
3.45
0.99
-2.52
-5.11
-5.30
-2.93
0.66
3.47
4.00
2.05
-1.12
-3.55
-3.72
-1.45
1.94
4.51
4.82
2.76
-0.35
-2.60
-2.63
-0.45
2.56
4.49
4.09
1.45
-1.98
-4.27
-4.14
-1.69
1.64
3.97
4.02
1.86
-1.14
-3.19
-3.07
-0.84
2.13
4.03
3.68
1.13
-2.24
-4.59
-4.61
-2.29
0.98
3.34
3.43
1.25
-1.88
-4.07
-4.00
-1.65
1.61
3.90
3.93
1.69
-1.51
-3.79
-3.91
-1.87
1.01
2.95
2.77
0.55
-2.36
-4.17
-3.72
-1.11
2.20
4.35
4.10
1.56
-1.82
-4.10
-3.93
-1.36
2.15
4.62
4.67
2.27
-1.21
-3.79
-4.04
-1.83
1.52
4.13
4.58
2.68
-0.42
-2.94
-3.50
-1.89
0.79
2.92
3.25
1.64
-0.89
-2.73
-2.77
-0.96
1.52
3.07
2.59
0.14
-2.98
-4.99
-4.66
-1.98
1.70
4.49
4.97
2.98
-0.31
-2.99
-3.65
-2.01
0.81
3.01
3.22
1.25
-1.77
-4.05
-4.19
-1.99
1.37
4.10
4.76
3.08
0.09
-2.46
-3.18
-1.72
0.94
3.15
3.59
1.97
-0.72
-2.80
-2.94
-0.91
2.19
4.57
4.78
2.54
-1.06
-4.08
-4.95
-3.24
-0.03
2.79
3.56
1.85
-1.36
-4.15
-4.92
-3.20
-0.01
2.78
3.56
1.91
-1.23
-3.99
-4.79
-3.16
-0.03
2.80
3.76
2.31
-0.71
-3.57
-4.69
-3.49
-0.75
1.85
2.73
1.35
-1.51
-4.08
-4.71
-2.81
0.75
4.06
5.33
3.83
0.33
-3.25
-5.02
-4.08
-1.03
2.42
4.44
4.13
1.92
-0.64
-1.95
-1.21
1.02
3.22
3.84
2.23
-0.88
-3.77
-4.75
-3.13
0.28
3.63
5.10
3.93
0.87
-2.25
-3.56
-2.27
0.91
4.15
5.59
4.42
1.28
-2.06
-3.81
-3.09
-0.49
2.31
3.62
2.64
-0.08
-2.91
-4.18
-3.09
-0.21
2.81
4.24
3.24
0.34
-2.81
-4.43
-3.60
-0.84
2.22
3.78
2.91
0.09
-3.02
-4.61
-3.71
-0.81
2.42
4.11
3.28
0.36
-2.99
-4.89
-4.26
-1.50
1.73
3.52
2.83
0.06
-3.09
-4.68
-3.59
-0.28
3.46
5.55
4.84
1.71
-2.00
-4.18
-3.59
-0.58
3.03
5.18
4.65
1.80
-1.64
-3.67
-3.11
-0.34
2.92
4.70
3.92
1.03
-2.27
-4.02
-3.17
-0.17
3.24
5.07
4.26
1.20
-2.39
-4.57
-4.20
-1.62
1.55
3.44
3.00
0.55
-2.34
-3.89
-3.09
-0.37
2.65
4.13
3.09
0.02
-3.42
-5.32
-4.65
-1.80
1.52
3.42
2.84
0.16
-3.02
-4.80
-4.10
-1.27
2.03
3.93
3.31
0.49
-2.90
-4.92
-4.38
-1.54
2.01
4.29
4.09
1.60
-1.66
-3.76
-3.47
-0.97
2.24
4.27
3.95
1.42
-1.82
-3.92
-3.72
-1.35
1.68
3.58
3.20
0.75
-2.30
-4.08
-3.45
-0.64
2.84
5.06
4.83
2.30
-1.04
-3.26
-3.08
-0.61
2.66
4.77
4.39
1.58
-2.19
-4.87
-5.02
-2.59
0.97
3.67
4.05
2.01
-1.08
-3.30
-3.29
-1.02
2.08
4.10
3.69
0.93
-2.69
-5.12
-4.94
-2.16
1.66
4.42
4.58
2.10
-1.59
-4.38
-4.72
-2.49
0.89
3.38
3.56
1.38
-1.74
-3.79
-3.45
-0.79
2.65
4.87
4.55
1.82
-1.78
-4.20
-4.10
-1.55
1.95
4.43
4.50
2.17
-1.21
-3.67
-3.82
-1.57
1.77
4.30
4.59
2.52
-0.71
-3.20
-3.56
-1.61
1.39
3.59
3.58
1.25
-2.17
-4.76
-5.08
-2.94
0.41
3.09
3.64
1.86
-1.10
-3.44
-3.75
-1.85
1.07
3.20
3.18
0.85
-2.56
-5.14
-5.39
-3.07
0.61
3.70
4.59
2.91
-0.31
-3.20
-4.19
-2.83
-0.08
2.38
3.16
1.92
-0.41
-2.20
-2.19
-0.20
2.65
4.65
4.53
2.19
-1.19
-3.76
-4.16
-2.18
0.99
3.55
4.03
2.20
-0.87
-3.37
-3.87
-2.07
0.95
3.42
3.86
1.96
-1.25
-3.95
-4.61
-2.81
0.44
3.34
4.29
2.83
-0.12
-2.73
-3.43
-1.70
1.48
4.28
5.11
3.47
0.31
-2.51
-3.38
-1.80
1.23
3.89
4.57
2.82
-0.39
-3.20
-4.07
-2.57
0.30
2.73
3.27
1.55
-1.39
-3.76
-4.09
-2.06
1.26
4.02
4.67
2.80
-0.59
-3.64
-4.75
-3.39
-0.45
2.29
3.24
1.86
-1.05
-3.76
-4.72
-3.38
-0.57
2.02
2.85
1.42
-1.44
-4.02
-4.79
-3.22
-0.18
2.61
3.60
2.29
-0.49
-3.00
-3.68
-2.01
1.12
3.97
4.95
3.54
0.58
-2.20
-3.19
-1.86
0.95
3.52
4.26
2.66
-0.44
-3.27
-4.26
-2.86
0.04
2.69
3.52
2.02
-0.94
-3.57
-4.27
-2.44
1.02
4.32
5.70
4.46
1.31
-2.02
-3.75
-3.07
-0.55
2.16
3.40
2.44
-0.15
-2.73
-3.69
-2.34
0.63
3.53
4.68
3.41
0.39
-2.65
-3.96
-2.78
0.23
3.30
4.64
3.39
0.15
-3.31
-5.11
-4.27
-1.32
2.03
3.91
3.33
0.74
-2.23
-3.79
-3.02
-0.39
2.45
3.78
2.75
-0.07
-3.01
-4.29
-3.01
0.22
3.64
5.30
4.22
0.86
-3.02
-5.40
-5.07
-2.32
1.21
3.57
3.53
1.24
-1.81
-3.78
-3.47
-1.07
1.99
3.89
3.53
1.15
-1.75
-3.34
-2.51
0.42
3.81
5.69
4.87
1.64
-2.33
-4.98
-4.99
-2.56
0.74
2.93
2.75
0.37
-2.70
-4.56
-4.03
-1.32
2.05
4.17
3.83
1.22
-2.16
-4.35
-4.11
-1.56
1.77
3.89
3.51
0.74
-2.90
-5.40
-5.39
-2.91
0.53
3.00
3.21
1.24
-1.46
-3.05
-2.36
0.39
3.62
5.44
4.74
1.82
-1.69
-3.77
-3.21
-0.28
3.32
5.53
5.09
2.22
-1.45
-3.86
-3.73
-1.25
1.94
3.85
3.20
0.24
-3.40
-5.64
-5.12
-2.03
1.96
4.71
4.74
2.10
-1.69
-4.48
-4.75
-2.42
1.02
3.51
3.52
0.98
-2.71
-5.41
-5.54
-2.90
1.10
4.34
5.11
3.02
-0.73
-4.08
-5.25
-3.69
-0.40
2.79
4.21
3.26
0.80
-1.45
-1.98
-0.30
2.51
4.60
4.37
1.50
-2.61
-5.52
-5.21
-1.35
4.12
8.09
8.00
3.48
-3.14
-8.02
-8.11
-2.98
4.55
10.11
10.30
4.70
-3.64
-9.98
-10.72
-5.50
2.37
8.04
7.95
1.90
-6.66
-12.64
-12.42
-5.88
3.23
9.69
9.78
3.45
-5.55
-11.79
-11.46
-4.51
5.10
11.87
11.92
5.19
-4.44
-11.36
-11.59
-4.90
4.86
12.15
12.90
6.74
-2.76
-10.13
-11.24
-5.49
3.65
10.85
11.95
6.28
-2.90
-10.22
-11.45
-5.84
3.25
10.40
11.31
5.23
-4.50
-12.30
-13.68
-7.68
2.31
10.74
12.99
7.98
-1.19
-9.02
-10.94
-5.80
3.28
10.91
12.61
7.35
-1.82
-9.48
-11.18
-5.89
3.21
10.76
12.35
7.03
-2.09
-9.59
-11.07
-5.50
3.95
11.89
13.82
8.64
-0.68
-8.77
-11.08
-6.31
2.66
10.58
12.87
8.25
-0.57
-8.35
-10.53
-5.80
2.97
10.50
12.26
7.05
-2.22
-10.13
-12.07
-6.82
2.55
10.52
12.44
7.13
-2.40
-10.65
-12.94
-8.00
1.26
9.52
12.18
7.90
-0.79
-9.00
-12.43
-9.63
-2.70
4.12
7.05
4.81
-0.89
-6.46
-8.64
-6.30
-0.94
4.27
6.41
4.41
-0.52
-5.55
-7.94
-6.43
-1.98
2.92
5.70
5.06
1.63
-2.39
-4.64
-3.86
-0.63
3.05
4.98
4.03
0.76
-2.87
-4.82
-4.00
-1.04
2.22
3.79
2.73
-0.37
-3.63
-5.13
-3.88
-0.47
3.30
5.47
5.00
2.31
-0.96
-2.99
-2.74
-0.57
2.03
3.40
2.65
0.20
-2.48
-3.74
-2.76
-0.02
2.91
4.33
3.37
0.51
-2.63
-4.28
-3.47
-0.65
2.52
4.21
3.40
0.50
-2.84
-4.72
-4.07
-1.24
2.12
4.16
3.77
1.26
-1.81
-3.61
-3.04
-0.39
2.77
4.63
4.09
1.40
-1.91
-3.98
-3.68
-1.24
1.83
3.71
3.27
0.78
-2.28
-4.05
-3.41
-0.63
2.70
4.68
4.12
1.24
-2.38
-4.75
-4.57
-1.98
1.49
3.83
3.71
1.20
-2.20
-4.52
-4.40
-1.90
1.47
3.73
3.55
1.00
-2.45
-4.81
-4.74
-2.27
1.16
3.64
3.85
1.80
-1.17
-3.24
-3.16
-0.92
2.13
4.19
4.03
1.62
-1.77
-4.30
-4.62
-2.56
0.64
3.20
3.74
2.00
-0.91
-3.21
-3.53
-1.64
1.32
3.56
3.74
1.74
-1.25
-3.38
-3.29
-0.93
2.35
4.63
4.51
1.96
-1.62
-4.23
-4.39
-2.03
1.45
4.09
4.45
2.42
-0.73
-3.14
-3.44
-1.52
1.35
3.42
3.44
1.39
-1.50
-3.48
-3.34
-1.07
2.00
4.02
3.71
1.10
-2.40
-4.79
-4.62
-1.88
1.93
4.68
4.81
2.23
-1.63
-4.59
-5.04
-2.78
0.79
3.65
4.24
2.37
-0.72
-3.14
-3.49
-1.61
1.27
3.36
3.35
1.17
-1.94
-4.12
-4.05
-1.62
1.85
4.44
4.70
2.48
-0.98
-3.76
-4.36
-2.52
0.59
3.11
3.62
1.85
-1.12
-3.53
-3.98
-2.20
0.78
3.22
3.72
2.00
-1.00
-3.57
-4.27
-2.69
0.26
2.92
3.85
2.58
-0.08
-2.53
-3.35
-2.12
0.32
2.38
2.74
1.08
-1.66
-3.78
-3.92
-1.78
1.58
4.36
5.03
3.23
-0.06
-2.97
-3.87
-2.18
1.18
4.37
5.63
4.24
0.95
-2.43
-4.12
-3.29
-0.62
2.18
3.41
2.36
-0.31
-2.94
-3.95
-2.71
0.05
2.64
3.52
2.12
-0.83
-3.65
-4.75
-3.46
-0.48
2.53
3.93
2.94
0.14
-2.88
-4.41
-3.59
-0.90
2.06
3.60
2.86
0.31
-2.47
-3.75
-2.69
0.18
3.18
4.56
3.48
0.50
-2.65
-4.18
-3.17
-0.16
3.13
4.84
4.00
1.02
-2.44
-4.50
-4.01
-1.25
2.25
4.60
4.59
2.35
-0.68
-2.65
-2.34
0.10
3.16
4.94
4.21
1.16
-2.64
-5.13
-4.99
-2.37
1.10
3.36
3.07
0.38
-3.06
-5.18
-4.66
-1.71
1.96
4.27
3.92
1.13
-2.39
-4.55
-4.05
-1.10
2.63
5.09
4.98
2.47
-0.91
-3.18
-3.07
-0.73
2.33
4.22
3.70
0.96
-2.48
-4.68
-4.35
-1.63
1.89
4.22
4.08
1.56
-1.82
-4.06
-3.89
-1.41
1.82
3.80
3.25
0.34
-3.37
-5.84
-5.69
-2.97
0.85
3.79
4.44
2.73
-0.11
-2.28
-2.49
-0.65
2.01
3.82
3.55
1.18
-2.05
-4.38
-4.51
-2.34
0.89
3.36
3.71
1.81
-1.16
-3.38
-3.48
-1.33
1.83
4.13
4.24
2.03
-1.23
-3.66
-3.88
-1.78
1.37
3.73
3.94
1.89
-1.22
-3.55
-3.74
-1.63
1.55
3.96
4.17
1.96
-1.49
-4.28
-4.87
-2.91
0.47
3.35
4.13
2.41
-0.78
-3.56
-4.35
-2.73
0.25
2.77
3.36
1.70
-1.14
-3.34
-3.50
-1.41
1.77
4.22
4.57
2.66
-0.33
-2.59
-2.76
-0.71
2.34
4.55
4.56
2.20
-1.37
-4.26
-5.04
-3.40
-0.40
2.19
2.91
1.40
-1.39
-3.70
-4.10
-2.23
0.92
3.55
4.18
2.41
-0.81
-3.64
-4.51
-2.93
0.17
3.00
3.97
2.51
-0.53
-3.39
-4.44
-3.02
0.07
3.11
4.38
3.17
0.16
-2.89
-4.23
-3.00
0.17
3.55
5.32
4.58
1.85
-1.23
-2.88
-2.23
0.20
2.78
3.81
2.56
-0.34
-3.16
-4.22
-2.80
0.39
3.51
4.82
3.55
0.37
-2.95
-4.61
-3.76
-0.98
2.03
3.52
2.56
-0.37
-3.60
-5.33
-4.51
-1.53
1.98
4.15
3.83
1.28
-1.97
-4.04
-3.75
-1.30
1.78
3.65
3.18
0.61
-2.54
-4.40
-3.86
-1.19
2.05
3.99
3.55
1.04
-1.97
-3.60
-2.72
0.32
3.85
5.90
5.32
2.41
-1.17
-3.40
-3.02
-0.34
2.98
4.88
4.14
1.02
-2.79
-5.19
-4.87
-2.04
1.63
4.10
4.06
1.73
-1.34
-3.21
-2.70
-0.14
2.80
4.19
2.93
-0.55
-4.46
-6.68
-5.99
-2.74
1.25
3.83
3.65
0.93
-2.68
-5.04
-4.77
-1.99
1.72
4.27
4.31
1.91
-1.43
-3.70
-3.54
-1.02
2.34
4.59
4.39
1.84
-1.59
-3.91
-3.80
-1.28
2.18
4.62
4.71
2.43
-0.83
-3.09
-3.00
-0.53
2.85
5.14
4.91
2.13
-1.79
-4.80
-5.38
-3.35
-0.03
2.65
3.22
1.47
-1.45
-3.76
-4.12
-2.33
0.49
2.70
3.03
1.35
-1.26
-3.15
-3.07
-0.89
2.24
4.53
4.61
2.31
-1.20
-3.98
-4.49
-2.40
1.11
4.06
4.81
2.96
-0.39
-3.28
-4.09
-2.42
0.60
3.12
3.63
1.85
-1.16
-3.57
-3.97
-2.14
0.77
2.94
3.01
0.83
-2.43
-4.91
-5.18
-3.04
0.33
3.07
3.71
1.96
-1.11
-3.64
-4.08
-2.04
1.49
4.68
5.92
4.62
1.60
-1.43
-2.85
-1.98
0.47
2.91
3.79
2.50
-0.24
-2.80
-3.61
-2.07
1.00
3.85
4.83
3.32
0.09
-3.06
-4.43
-3.29
-0.42
2.42
3.50
2.15
-0.91
-3.90
-5.13
-3.88
-0.90
2.10
3.45
2.47
-0.16
-2.78
-3.79
-2.48
0.44
3.29
4.43
3.19
0.22
-2.77
-4.09
-2.98
-0.08
2.86
4.12
2.91
-0.16
-3.35
-4.85
-3.81
-0.81
2.43
4.09
3.28
0.56
-2.40
-3.81
-2.79
0.06
3.03
4.30
3.01
-0.21
-3.59
-5.25
-4.26
-1.23
2.06
3.74
2.88
0.03
-3.11
-4.65
-3.62
-0.47
3.08
5.10
4.50
1.64
-1.87
-4.06
-3.76
-1.19
2.07
4.10
3.72
1.17
-2.00
-3.90
-3.38
-0.68
2.60
4.57
4.10
1.46
-1.78
-3.72
-3.22
-0.55
2.70
4.61
4.04
1.26
-2.13
-4.16
-3.65
-0.84
2.58
4.57
3.85
0.67
-3.24
-5.74
-5.39
-2.33
1.77
4.74
5.10
2.81
-0.63
-3.18
-3.42
-1.31
1.71
3.74
3.45
0.93
-2.38
-4.52
-4.21
-1.53
1.97
4.36
4.33
1.94
-1.37
-3.65
-3.66
-1.44
1.54
3.40
2.91
0.22
-3.17
-5.27
-4.76
-1.77
2.10
4.76
4.81
2.27
-1.33
-3.90
-3.99
-1.57
1.90
4.39
4.52
2.26
-1.00
-3.30
-3.31
-1.06
2.02
4.01
3.61
0.92
-2.61
-4.97
-4.79
-2.06
1.73
4.56
4.93
2.72
-0.73
-3.42
-3.86
-1.87
1.28
3.69
3.92
1.85
-1.31
-3.65
-3.83
-1.70
1.45
3.81
4.00
1.93
-1.19
-3.55
-3.80
-1.78
1.34
3.76
4.05
1.95
-1.46
-4.35
-5.17
-3.50
-0.38
2.40
3.24
1.69
-1.32
-3.97
-4.71
-3.09
-0.07
2.58
3.40
2.04
-0.55
-2.65
-2.91
-1.06
1.83
4.05
4.23
2.11
-1.23
-3.96
-4.55
-2.63
0.77
3.75
4.65
2.97
-0.32
-3.27
-4.15
-2.33
1.17
4.35
5.36
3.61
0.06
-3.24
-4.43
-2.87
0.47
3.59
4.70
3.15
-0.16
-3.30
-4.52
-3.14
0.02
3.15
4.58
3.61
0.90
-1.90
-3.21
-2.34
0.05
2.39
3.15
1.72
-1.20
-3.92
-4.79
-3.15
0.23
3.49
4.79
3.31
-0.21
-3.83
-5.54
-4.38
-0.99
2.73
4.77
4.10
1.28
-1.90
-3.52
-2.61
0.28
3.40
4.88
3.81
0.76
-2.55
-4.24
-3.39
-0.55
2.50
3.92
2.76
-0.39
-3.77
-5.44
-4.42
-1.23
2.35
4.40
3.88
1.20
-1.98
-3.80
-3.18
-0.49
2.66
4.40
3.65
0.72
-2.78
-4.89
-4.34
-1.34
2.49
5.09
5.10
2.60
-0.86
-3.25
-3.22
-0.90
2.12
3.87
3.17
0.29
-3.07
-4.90
-4.03
-0.86
2.82
4.95
4.36
1.36
-2.33
-4.68
-4.47
-1.92
1.34
3.41
3.09
0.59
-2.62
-4.68
-4.45
-2.09
0.95
2.87
2.55
0.20
-2.73
-4.38
-3.56
-0.50
3.22
5.60
5.34
2.60
-1.07
-3.55
-3.43
-0.76
2.90
5.42
5.36
2.73
-0.97
-3.65
-3.88
-1.64
1.56
3.72
3.50
0.95
-2.46
-4.75
-4.58
-2.03
1.44
3.83
3.80
1.35
-2.10
-4.54
-4.59
-2.17
1.31
3.86
4.06
1.87
-1.37
-3.65
-3.59
-1.15
2.25
4.63
4.63
2.26
-1.09
-3.48
-3.58
-1.41
1.61
3.62
3.35
0.86
-2.46
-4.73
-4.65
-2.26
1.07
3.42
3.48
1.24
-1.97
-4.21
-4.11
-1.60
1.97
4.64
4.93
2.71
-0.76
-3.51
-3.99
-1.93
1.44
4.17
4.72
2.76
-0.58
-3.41
-4.19
-2.58
0.32
2.68
3.07
1.23
-1.72
-3.93
-3.99
-1.72
1.63
4.12
4.29
1.94
-1.67
-4.55
-5.14
-3.15
0.27
3.16
3.96
2.29
-0.83
-3.52
-4.19
-2.37
0.93
3.86
4.76
3.10
-0.18
-3.23
-4.31
-2.79
0.48
3.67
5.05
3.94
1.09
-1.76
-2.93
-1.75
1.00
3.58
4.32
2.61
-0.77
-3.97
-5.27
-3.94
-0.82
2.23
3.44
2.08
-1.03
-3.99
-4.98
-3.26
0.30
3.77
5.24
3.93
0.59
-2.91
-4.68
-3.86
-1.11
1.78
3.04
1.91
-0.96
-3.81
-4.88
-3.41
-0.11
3.22
4.77
3.71
0.71
-2.45
-3.95
-2.93
-0.03
3.00
4.39
3.31
0.40
-2.62
-3.98
-2.85
0.17
3.36
4.94
4.05
1.25
-1.82
-3.39
-2.56
0.16
3.11
4.54
3.56
0.67
-2.48
-4.05
-3.09
-0.08
3.29
5.13
4.38
1.46
-1.99
-4.05
-3.58
-0.86
2.48
4.52
4.09
1.37
-2.07
-4.31
-4.10
-1.63
1.53
3.41
2.76
-0.18
-3.80
-6.01
-5.51
-2.48
1.34
3.82
3.59
0.81
-2.83
-5.16
-4.77
-1.78
2.12
4.80
4.81
2.27
-1.24
-3.63
-3.48
-0.91
2.45
4.52
3.97
1.00
-2.70
-5.01
-4.56
-1.56
2.26
4.74
4.51
1.75
-1.91
-4.35
-4.21
-1.60
1.92
4.34
4.30
1.87
-1.48
-3.76
-3.61
-1.06
2.37
4.69
4.47
1.72
-2.08
-4.85
-5.12
-2.79
0.70
3.40
3.86
2.02
-0.85
-2.93
-2.96
-0.93
1.83
3.58
3.16
0.66
-2.51
-4.46
-3.89
-0.86
3.10
5.88
5.93
3.13
-1.06
-4.39
-5.14
-2.99
0.68
3.71
4.40
2.45
-0.92
-3.65
-4.18
-2.25
0.88
3.30
3.56
1.50
-1.65
-3.95
-4.00
-1.64
1.80
4.37
4.56
2.16
-1.59
-4.67
-5.48
-3.60
-0.14
2.99
4.17
2.96
0.29
-2.06
-2.62
-0.98
1.81
4.03
4.23
2.16
-1.08
-3.59
-3.89
-1.76
1.52
3.97
4.06
1.60
-2.09
-4.91
-5.29
-3.00
0.59
3.44
3.98
2.01
-1.25
-3.81
-4.14
-2.00
1.41
4.21
4.86
3.02
-0.27
-3.15
-4.09
-2.64
0.21
2.68
3.27
1.59
-1.40
-3.87
-4.32
-2.40
0.81
3.45
4.01
2.16
-1.07
-3.81
-4.55
-2.88
0.19
2.92
3.78
2.32
-0.60
-3.27
-4.16
-2.72
0.22
3.00
4.07
2.86
0.13
-2.45
-3.28
-1.74
1.39
4.39
5.60
4.32
1.22
-1.99
-3.58
-2.72
0.01
2.96
4.40
3.45
0.62
-2.48
-4.07
-3.25
-0.54
2.37
3.68
2.47
-0.71
-4.11
-5.82
-4.84
-1.67
1.99
4.21
