1593696872.00
64.000000
-0.00
-0.00
-0.00
-0.00
-0.00
-0.00
-0.00
-0.00
-0.00
-0.00
0.00
0.01
0.01
-0.00
-0.03
-0.05
-0.05
0.00
0.13
0.36
0.66
1.01
1.37
1.72
2.06
2.40
2.79
3.24
3.80
4.42
5.06
5.66
6.20
6.68
7.15
7.68
8.31
9.14
10.09
11.04
11.88
12.56
13.14
13.76
14.65
15.96
17.91
20.32
22.90
25.38
27.58
29.57
31.68
34.32
37.81
42.54
48.15
54.10
59.83
64.97
69.58
74.14
79.34
85.71
93.76
103.00
112.62
121.73
129.77
136.75
143.30
150.75
157.77
166.64
177.95
191.79
206.97
220.57
228.25
225.36
208.53
176.87
132.76
80.04
23.07
-34.93
-92.41
-149.11
-205.19
-260.38
-313.84
-364.09
-410.16
-451.33
-486.98
-516.23
-537.71
-549.71
-550.48
-538.97
-514.91
-479.49
-434.76
-383.33
-327.86
-270.63
-213.43
-157.55
-104.07
-53.78
-7.61
33.68
69.49
99.51
123.80
142.68
156.74
166.64
173.10
176.72
178.01
177.36
174.99
171.01
165.49
158.53
150.40
141.53
132.45
123.71
115.62
108.16
100.98
93.56
85.47
76.62
67.34
58.32
50.25
43.54
38.13
33.52
29.04
24.06
18.18
11.23
3.33
-4.87
-12.03
-16.23
-15.49
-8.69
3.67
19.40
35.31
48.50
57.42
62.20
64.07
64.32
63.43
61.07
56.64
50.10
42.42
35.28
30.35
28.42
29.22
31.60
34.06
35.48
35.35
33.70
30.87
27.32
23.59
20.19
17.38
14.89
11.91
7.28
0.12
-9.56
-20.69
-31.57
-40.59
-46.85
-50.27
-51.35
-50.62
-48.31
-44.42
-38.99
-32.37
-25.36
-19.10
-14.75
-13.14
-14.51
-18.12
-22.56
-26.02
-26.98
-24.78
-19.72
-12.89
-5.62
1.00
6.31
10.08
12.34
13.37
13.49
13.01
12.04
10.47
8.18
5.33
2.56
0.83
0.93
2.90
6.01
9.06
11.09
11.77
11.40
10.52
9.41
7.91
5.71
2.84
-0.05
-1.90
-1.71
0.80
5.03
9.75
13.68
16.05
16.68
15.86
13.84
10.71
6.44
1.25
-4.18
-8.59
-10.58
-9.14
-4.14
3.56
12.47
21.00
27.92
32.56
34.83
34.94
33.22
29.98
25.58
20.15
14.07
7.86
2.12
-2.66
-6.26
-8.74
-10.42
-11.68
-12.77
-13.80
-14.78
-15.68
-16.52
-17.27
-17.85
-18.09
-17.78
-16.78
-15.10
-12.92
-10.52
-8.24
-6.39
-5.20
-4.78
-5.09
-5.91
-6.89
-7.66
-7.91
-7.51
-6.49
-5.04
-3.45
-2.00
-0.89
-0.18
0.20
0.38
0.53
0.82
1.33
2.13
3.16
4.28
5.25
5.87
5.99
5.66
5.06
4.47
4.07
3.92
4.01
4.30
4.88
5.86
7.35
9.37
11.87
14.79
17.98
21.06
23.36
24.00
21.97
16.53
7.63
-3.83
-16.16
-27.39
-35.86
-40.61
-41.45
-38.72
-33.00
-24.96
-15.32
-4.96
5.11
13.81
20.28
24.08
25.24
24.19
21.60
18.17
14.44
10.81
7.51
4.64
2.26
0.34
-1.17
-2.30
-3.05
-3.40
-3.33
-2.90
-2.22
-1.51
-1.01
-0.92
-1.34
-2.30
-3.77
-5.68
-7.87
-10.04
-11.80
-12.74
-12.60
-11.45
-9.67
-7.82
-6.39
-5.56
-5.19
-4.86
-4.08
-2.47
0.12
3.67
7.98
12.67
17.10
20.33
21.29
19.19
13.97
6.52
-1.49
-8.15
-12.06
-12.75
-10.72
-7.09
-3.09
0.37
2.91
4.52
5.41
5.83
5.90
5.59
4.74
3.11
0.55
-2.84
-6.66
-10.26
-12.99
-14.36
-14.31
-13.13
-11.32
-9.38
-7.60
-6.04
-4.65
-3.42
-2.47
-2.00
-2.12
-2.73
-3.48
-3.97
-3.87
-3.16
-2.07
-0.97
-0.14
0.38
0.73
1.20
1.95
3.02
4.22
5.30
6.05
6.44
6.58
6.70
7.04
7.69
8.58
9.51
10.20
10.46
10.20
9.48
8.38
7.03
5.54
3.98
2.35
0.65
-1.11
-2.87
-4.50
-5.81
-6.63
-6.88
-6.57
-5.86
-4.95
-4.05
-3.23
-2.47
-1.68
-0.82
0.02
0.60
0.64
-0.05
-1.47
-3.42
-5.55
-7.49
-8.92
-9.66
-9.60
-8.75
-7.17
-5.08
-2.83
-0.84
0.54
1.17
1.16
0.87
0.69
0.93
1.70
2.87
4.18
5.32
5.99
6.06
5.47
4.34
2.88
1.46
0.46
0.12
0.39
0.93
1.26
0.94
-0.25
-2.28
-4.75
-7.14
-8.96
-9.97
-10.25
-10.04
-9.71
-9.57
-9.94
-10.85
-12.09
-13.35
-14.28
-14.51
-13.67
-11.51
-8.06
-4.02
-0.16
2.85
4.40
4.20
2.46
0.00
-2.16
-3.15
-3.19
-2.45
-1.22
-0.21
-0.37
-2.36
-5.80
-9.33
-11.08
-10.26
-6.08
1.38
10.31
17.18
17.82
9.07
-10.39
-39.63
-76.33
-114.72
-147.02
-166.34
-168.88
-154.54
-125.99
-87.58
-37.89
15.60
62.09
94.84
113.50
120.78
119.70
113.38
105.34
98.96
96.19
99.36
109.58
124.39
138.75
144.82
136.66
112.86
76.65
33.93
-6.84
-37.30
-52.56
-54.81
-50.67
-48.79
-51.74
-59.35
-70.69
-83.06
-93.09
-98.09
-96.76
-89.17
-76.55
-60.98
-42.90
-25.73
-12.05
-2.81
2.40
4.74
5.76
7.23
10.74
16.77
24.24
31.75
37.62
40.26
38.81
33.53
26.04
18.73
13.59
11.43
12.30
15.38
19.24
22.31
23.43
22.15
18.83
14.16
8.92
4.01
0.07
-2.67
-4.41
-5.47
-6.11
-6.33
-6.13
-5.39
-3.92
-1.80
0.46
2.14
2.57
1.46
-1.03
-4.43
-7.71
-9.64
-9.61
-7.86
-5.36
-3.22
-2.30
-2.91
-5.10
-8.17
-11.17
-13.90
-16.94
-21.24
-27.47
-35.89
-46.47
-59.28
-73.33
-86.44
-95.99
-99.21
-93.81
-78.47
-53.68
-19.92
16.19
45.66
63.27
69.62
68.67
64.13
58.38
52.54
47.29
43.11
41.24
44.46
52.26
62.51
72.01
77.88
78.29
73.13
63.72
52.87
43.69
37.86
35.41
33.44
29.64
22.29
10.97
-3.17
-17.09
-26.81
-29.39
-23.97
-12.38
1.83
14.52
22.59
24.80
21.78
15.07
6.01
-4.39
-15.16
-24.56
-30.36
-30.59
-24.67
-14.11
-2.22
6.82
9.48
3.96
-9.17
-27.15
-45.67
-59.97
-66.31
-63.34
-52.67
-38.33
-25.11
-16.60
-13.92
-15.78
-19.54
-22.80
-24.42
-24.56
-23.93
-22.89
-21.06
-17.83
-12.97
-7.17
-1.83
1.51
1.94
-0.35
-4.22
-8.15
-11.02
-12.52
-13.08
-13.47
-14.19
-15.15
-15.76
-15.39
-13.82
-11.42
-8.94
-7.05
-6.00
-5.49
-4.92
-3.73
-1.65
1.22
4.50
7.80
10.85
13.60
16.08
18.32
20.26
21.83
22.93
23.53
23.62
23.25
22.50
21.51
20.42
19.40
18.71
18.54
18.88
19.51
20.05
20.06
19.16
17.11
13.94
10.25
6.73
3.75
1.09
-2.01
-6.61
-13.64
-23.55
-35.90
-48.65
-59.19
-65.37
-66.24
-62.11
-54.18
-43.85
-32.09
-19.24
-4.10
14.53
36.63
60.63
84.17
105.07
122.03
134.39
142.00
146.34
148.97
151.02
152.82
154.61
156.73
159.31
161.55
154.35
131.96
94.82
49.95
5.87
-31.27
-58.68
-75.96
-84.82
-88.03
-87.37
-84.45
-80.54
-76.96
-74.26
-73.45
-73.99
-76.20
-80.75
-87.26
-95.14
-103.78
-113.61
-124.69
-136.35
-147.04
-155.19
-159.62
-159.86
-157.54
-152.08
-147.32
-147.23
-153.40
-163.89
-174.52
-180.99
-181.08
-175.92
-169.25
-165.77
-167.53
-172.97
-177.74
-177.01
-167.47
-148.29
-120.68
-86.78
-49.11
-9.35
30.97
69.47
102.59
126.38
138.34
139.34
134.22
130.39
135.38
153.50
183.60
219.16
250.57
268.60
267.66
247.36
211.95
168.60
124.86
86.74
57.91
39.63
31.49
32.29
40.41
53.55
68.36
80.30
84.25
76.39
55.93
26.40
-4.73
-28.35
-37.09
-28.25
-4.75
26.09
56.17
78.84
90.70
92.07
86.26
77.74
70.29
65.73
63.94
64.59
66.21
66.64
64.19
58.96
52.98
49.30
50.60
58.27
74.12
97.22
123.48
146.75
161.18
163.26
152.82
133.48
112.00
98.64
100.06
116.23
140.83
165.11
182.17
189.11
187.47
164.85
119.81
61.37
2.82
-48.21
-90.74
-125.35
-151.49
-167.75
-173.51
-167.57
-152.98
-135.65
-121.69
-115.36
-114.86
-116.23
-116.20
-113.11
-105.25
-94.32
-84.14
-79.12
-82.34
-94.72
-116.05
-146.05
-183.80
-219.65
-244.75
-251.89
-237.91
-205.00
-160.07
-112.86
-73.10
-46.16
-31.15
-24.52
-22.53
-23.86
-29.59
-41.37
-53.71
-61.20
-59.86
-48.41
-29.35
-7.06
13.15
27.24
33.95
35.10
33.48
32.05
32.79
35.41
38.44
39.78
37.89
32.26
23.41
11.94
-1.24
-13.39
-21.55
-22.96
-16.39
-2.81
14.79
32.44
46.24
54.17
56.65
55.64
53.65
52.26
51.79
51.59
50.67
48.15
43.72
37.78
30.13
21.50
12.77
4.69
-2.26
-7.89
-12.39
-16.12
-19.55
-23.24
-27.44
-31.90
-35.52
-36.47
-32.99
-24.62
-13.05
-2.01
3.95
1.53
-9.89
-27.92
-48.24
-66.53
-80.11
-88.62
-93.53
-97.12
-101.33
-107.29
-115.12
-124.02
-132.48
-138.79
-141.56
-140.35
-135.87
-129.62
-123.30
-117.96
-113.59
-109.13
-103.13
-94.29
-81.95
-66.18
-47.76
-28.09
-9.05
7.30
19.25
26.05
28.25
27.59
26.33
26.29
28.14
31.13
33.67
34.32
32.78
30.41
29.47
31.88
38.01
46.46
54.74
60.37
61.86
59.06
53.08
45.59
38.35
33.11
31.52
34.83
42.94
53.84
64.11
70.59
71.77
68.66
64.21
61.49
62.23
65.70
69.47
71.40
72.16
74.40
81.24
94.50
113.47
136.06
158.87
178.37
192.19
201.44
208.02
213.20
217.35
219.81
221.95
225.36
231.02
238.95
250.48
264.22
275.56
278.56
267.99
245.33
215.47
184.16
156.14
137.16
129.13
129.82
135.05
140.24
146.40
155.21
166.75
156.08
111.21
39.40
-38.09
-91.16
-122.82
-140.02
-149.68
-160.42
-176.84
-197.20
-218.28
-237.43
-253.22
-266.43
-275.07
-278.81
-279.66
-280.38
-280.54
-279.22
-276.04
-271.32
-266.38
-259.09
-246.98
-228.22
-201.78
-166.33
-122.86
-75.46
-30.42
5.01
26.83
33.45
25.51
6.00
-19.80
-46.24
-68.83
-84.89
-93.80
-95.22
-89.53
-77.66
-60.89
-40.68
-19.31
-0.01
13.50
17.70
10.85
-6.41
-30.71
-56.34
-76.57
-85.79
-81.42
-64.93
-41.42
-17.65
0.46
9.79
10.59
5.69
-1.16
-6.68
-8.78
-6.61
-0.04
10.66
24.91
41.72
59.74
77.30
92.81
104.87
112.24
113.63
107.66
93.30
70.70
42.04
11.70
-14.83
-32.81
-40.30
-39.08
-33.63
-28.77
-26.98
-27.04
-24.74
-15.27
4.10
32.34
64.99
95.65
118.29
128.98
126.64
112.96
91.87
68.54
48.10
34.21
27.49
25.06
21.28
10.18
-11.78
-43.76
-80.64
-115.03
-140.23
-152.72
-152.82
-143.72
-129.58
-113.78
-98.17
-83.48
-70.21
-59.35
-52.39
-50.31
-52.41
-55.55
-54.38
-43.14
-18.02
20.98
69.69
121.10
168.09
205.66
231.66
246.17
250.12
244.46
230.47
210.11
185.88
159.66
131.43
99.13
60.51
15.81
-30.48
-70.16
-94.66
-98.99
-84.21
-56.89
-25.90
1.45
21.47
33.68
38.69
36.06
24.01
0.98
-32.25
-71.40
-109.38
-138.73
-154.19
-153.94
-139.21
-112.61
-76.72
-33.86
13.23
60.49
102.78
135.13
154.08
158.39
148.63
126.40
93.89
54.62
13.99
-20.84
-42.78
-47.79
-37.04
-16.79
4.36
19.28
25.27
24.12
19.75
15.02
9.74
1.13
-13.88
-35.79
-61.11
-82.96
-93.64
-87.67
-64.29
-27.76
14.02
51.91
78.34
89.08
83.86
65.88
40.18
11.69
-16.31
-42.49
-66.73
-88.81
-107.56
-121.02
-127.49
-126.69
-120.03
-109.82
-97.91
-84.85
-70.38
-55.05
-41.14
-32.03
-30.19
-34.94
-41.93
-45.01
-39.47
-24.94
-6.16
9.59
16.73
14.28
6.07
-1.86
-4.57
-0.02
11.06
26.74
45.72
67.90
92.74
116.81
133.39
135.20
118.73
87.26
50.07
18.38
0.41
-2.11
5.85
15.77
18.84
10.94
-4.13
-18.58
-28.22
-34.59
-41.41
-50.51
-61.05
-69.36
-72.22
-69.17
-63.03
-58.24
-57.87
-61.34
-63.33
-57.46
-38.91
-7.46
31.28
68.25
95.87
110.80
115.12
113.58
110.40
106.73
100.43
88.65
70.50
47.89
24.31
2.63
-17.07
-36.07
-54.96
-72.40
-84.95
-89.43
-85.30
-75.26
-60.83
-47.59
-39.34
-33.53
-24.95
-10.24
8.66
26.27
36.64
35.56
22.56
2.43
-16.77
-27.55
-25.25
-10.93
6.22
14.36
7.46
-11.63
-34.05
-50.61
-57.33
-54.64
-45.16
-31.70
-15.38
4.40
28.49
56.75
85.36
108.70
121.47
120.08
104.07
76.57
43.30
10.56
-17.36
-38.72
-53.08
-60.60
-62.13
-58.93
-52.46
-44.31
-33.87
-23.72
-17.88
-17.77
-21.98
-28.50
-35.83
-42.87
-49.55
-53.02
-50.52
-41.00
-24.24
-1.25
25.12
51.16
72.02
80.79
74.56
61.25
46.45
31.44
17.53
5.10
-5.56
-13.58
-17.22
-13.88
-3.10
11.75
26.02
34.89
36.32
33.27
29.97
27.29
24.27
18.59
9.19
-2.03
-11.65
-16.81
-16.14
-11.70
-7.99
-8.42
-13.61
-21.95
-29.99
-34.10
-32.34
-25.22
-15.99
-9.51
-8.99
-14.62
-24.01
-33.05
-37.46
-34.53
-23.95
-5.96
14.47
30.51
38.75
40.26
37.50
32.97
25.74
14.97
1.48
-12.46
-23.72
-28.44
-24.73
-13.99
0.04
13.69
22.68
25.09
22.74
20.02
20.92
26.56
35.19
43.17
46.73
43.09
31.55
13.06
-10.23
-35.20
-57.35
-72.74
-79.09
-76.29
-66.14
-50.58
-31.29
-9.84
11.81
30.75
43.26
46.04
37.78
19.84
-3.09
-24.79
-40.06
-46.73
-45.88
-40.83
-34.93
-27.13
-17.64
-7.29
3.06
12.71
20.57
25.82
28.33
28.66
27.51
24.71
19.77
11.74
1.13
-9.87
-18.23
-21.59
-19.53
-13.62
-6.59
-0.20
5.36
10.69
15.56
18.19
16.00
7.41
-6.60
-22.45
-34.91
-39.48
-34.54
-22.10
-6.75
6.79
15.55
19.32
20.09
21.10
25.39
34.30
46.53
58.35
65.26
63.87
53.63
37.18
19.37
5.12
-2.79
-4.58
-2.66
0.77
5.04
10.96
18.85
27.10
32.71
33.07
28.53
20.07
10.08
1.28
-4.79
-8.06
-10.00
-12.70
-17.79
-25.77
-36.09
-47.13
-56.88
-63.64
-66.39
-64.98
-60.11
-53.19
-45.89
-39.86
-35.82
-33.44
-31.78
-29.82
-27.21
-24.20
-21.52
-19.63
-18.02
-14.68
-6.92
7.19
27.51
51.34
74.18
91.16
99.04
97.66
90.46
82.98
80.42
85.32
96.87
111.75
125.52
134.18
135.48
129.14
116.31
98.82
78.96
59.16
42.49
29.85
18.49
2.82
-23.00
-62.96
-118.03
-185.91
-261.65
-336.32
-401.23
-449.96
-477.97
-482.09
-461.46
-418.95
-360.70
-293.97
-221.20
-144.06
-65.88
8.68
75.64
131.94
175.38
205.86
226.48
247.70
278.42
320.59
369.76
418.34
457.48
478.17
473.90
415.24
300.04
159.95
35.34
-54.07
-109.70
-140.78
-155.25
-156.60
-145.80
-120.62
-84.85
-49.90
-28.71
-27.90
-45.42
-73.76
-103.03
-124.64
-130.58
-119.74
-98.59
-76.88
-61.61
-54.78
-54.17
-54.66
-51.14
-38.86
-17.17
10.19
38.18
63.82
86.83
102.76
108.44
103.83
92.33
77.09
60.03
42.81
27.81
17.09
11.45
11.17
16.51
27.92
42.32
55.65
63.99
64.55
56.42
40.77
20.49
-0.91
-23.01
-48.51
-79.97
-115.36
-147.12
-164.62
-158.47
-124.44
-64.61
10.73
86.65
149.70
192.07
211.74
210.44
191.64
150.57
92.76
32.04
-18.01
-51.40
-69.34
-76.22
-76.54
-73.74
-70.00
-65.08
-59.38
-54.27
-50.71
-48.43
-46.27
-43.32
-39.31
-34.67
-28.88
-22.26
-15.95
-11.09
-8.12
-6.84
-6.86
-7.78
-8.98
-8.95
-6.86
-3.01
1.51
5.32
7.22
6.47
3.13
-1.60
-5.60
-7.24
-6.17
-3.49
-1.15
-1.21
-5.25
-13.71
-26.00
-40.79
-56.07
-68.89
-75.49
-72.14
-57.06
-31.65
-3.32
18.82
27.61
21.43
5.32
-11.47
-20.20
-16.93
-4.05
11.69
23.54
28.20
26.92
23.81
22.83
25.51
30.45
34.51
34.84
30.79
23.80
16.75
12.46
12.47
16.79
24.35
33.78
43.73
52.78
58.76
59.14
51.72
36.12
14.71
-8.13
-27.46
-39.94
-45.52
-46.58
-46.20
-46.55
-48.17
-50.38
-52.30
-53.09
-51.91
-47.68
-39.25
-26.08
-9.16
9.00
25.98
39.87
50.72
59.47
65.40
65.57
56.43
35.00
2.78
-33.03
-61.78
-73.78
-65.07
-39.64
-7.31
20.79
37.36
41.37
37.61
32.55
30.29
30.70
30.71
27.29
19.86
10.62
3.27
0.97
4.54
12.49
21.85
29.12
31.60
27.81
17.84
3.49
-12.35
-26.45
-36.23
-40.62
-40.06
-35.97
-30.00
-23.36
-16.65
-10.29
-4.92
-1.51
-0.84
-2.84
-6.21
-8.89
-9.01
-5.91
-0.45
5.32
9.28
10.27
8.57
5.62
3.05
1.80
1.74
1.95
1.47
-0.04
-2.14
-3.93
-4.73
-4.55
-4.00
-3.82
-4.37
-5.42
-6.43
-6.98
-7.10
-7.16
-7.58
-8.43
-9.33
-9.73
-9.17
-7.64
-5.50
-3.27
-1.41
-0.19
0.31
0.14
-0.65
-1.91
-3.45
-5.03
-6.49
-7.82
-9.14
-10.48
-11.78
-12.75
-13.07
-12.49
-11.09
-9.12
-6.90
-4.72
-2.79
-1.16
0.21
1.47
2.86
4.71
7.34
10.93
15.29
19.89
23.91
26.51
27.08
25.45
21.89
16.98
11.38
5.74
0.46
-4.24
-8.36
-12.03
-15.38
-18.44
-21.10
-23.07
-24.11
-24.19
-23.58
-22.88
-22.84
-24.07
-26.74
-30.47
-34.33
-37.09
-37.58
-34.99
-29.04
-20.05
-8.84
3.48
15.51
25.81
33.01
36.09
34.63
29.01
20.38
10.37
0.66
-7.42
-13.13
-16.26
-16.95
-15.39
-11.75
-6.19
1.03
9.44
18.35
27.04
34.89
41.54
46.82
50.66
53.01
53.73
52.76
50.19
46.38
41.90
37.32
33.09
29.35
26.02
22.85
19.61
16.21
12.71
9.24
5.89
2.61
-0.89
-4.95
-9.89
-15.79
-22.40
-29.24
-35.67
-41.16
-45.34
-48.12
-49.53
-49.73
-48.93
-47.34
-45.17
-42.54
-39.42
-35.63
-30.96
-25.39
-19.15
-12.79
-7.00
-2.36
0.82
2.60
3.31
3.37
3.14
2.85
2.59
2.44
2.49
2.87
3.71
5.06
6.83
8.70
10.27
11.18
11.25
10.61
9.59
8.53
7.57
6.60
5.32
3.48
1.07
-1.54
-3.71
-4.70
-3.89
-0.96
4.03
10.51
17.40
23.23
26.40
25.61
20.25
10.72
-1.65
-14.94
-27.18
-36.84
-43.17
-46.08
-45.94
-43.32
-38.77
-32.80
-25.95
-18.88
-12.22
-6.49
-1.87
1.83
5.08
8.36
11.93
15.72
19.42
22.73
25.42
27.47
28.99
30.12
30.98
31.59
31.91
31.87
31.50
30.90
30.12
29.12
27.85
26.27
24.44
22.51
20.69
19.34
18.62
18.42
18.32
17.87
16.78
15.08
12.98
10.78
9.19
8.67
9.10
9.87
10.21
9.73
8.55
6.94
5.34
5.00
6.67
10.11
14.06
16.97
18.09
17.69
16.30
15.07
16.62
22.83
33.75
47.34
60.47
70.73
77.13
79.26
78.56
79.59
86.59
101.28
121.41
141.76
156.82
162.21
153.92
121.45
63.66
-9.11
-78.08
-125.73
-143.49
-133.93
-102.96
-60.51
-16.43
22.61
51.92
70.53
80.88
83.15
79.79
76.78
69.23
48.21
11.18
-38.20
-92.48
-144.27
-188.95
-224.76
-245.44
-248.00
-233.37
-205.58
-169.63
-129.99
-90.54
-55.01
-26.10
-5.54
4.32
3.40
-6.16
-18.43
-27.27
-28.04
-18.49
1.13
28.00
56.34
80.45
96.56
103.36
100.93
89.50
70.43
46.69
22.62
2.43
-10.23
-13.31
-7.21
4.81
17.86
27.34
30.46
27.03
18.82
8.77
-0.17
-6.03
-8.40
-8.08
-6.23
-3.75
-1.07
1.63
4.12
6.04
6.98
6.59
4.84
2.18
-0.80
-3.57
-5.90
-7.82
-9.49
-11.01
-12.41
-13.59
-14.41
-14.85
-15.09
-15.57
-16.91
-19.64
-23.93
-29.40
-35.02
-39.49
-41.69
-41.24
-38.71
-35.40
-32.77
-31.87
-32.95
-35.63
-39.32
-43.68
-48.64
-54.09
-59.26
-62.48
-61.49
-54.43
-40.91
-22.59
-2.77
14.75
27.16
33.46
34.43
31.79
27.14
21.46
15.17
8.71
2.90
-1.14
-2.58
-1.48
1.06
3.32
3.93
2.52
-0.00
-2.13
-2.57
-0.99
1.76
4.08
4.32
1.55
-4.04
-11.30
-18.45
-23.72
-25.84
-24.38
-19.80
-13.34
-6.55
-0.86
2.93
4.75
5.22
5.19
5.39
6.14
7.40
8.89
10.31
11.48
12.27
12.57
12.27
11.37
10.12
8.94
8.36
8.64
9.72
11.24
12.78
14.05
14.99
15.58
15.66
14.95
13.23
10.64
7.80
5.62
4.79
5.45
7.00
8.40
8.69
7.41
4.79
1.53
-1.52
-3.77
-5.03
-5.53
-5.76
-6.28
-7.55
-9.82
-12.99
-16.68
-20.27
-23.07
-24.55
-24.48
-23.02
-20.65
-17.87
-14.94
-11.82
-8.15
-3.66
1.50
6.58
10.49
12.26
11.60
9.14
6.16
4.05
3.69
5.12
7.66
10.32
12.17
12.74
12.04
10.40
8.45
6.82
6.08
6.48
7.97
10.17
12.52
14.38
15.22
14.71
12.85
9.97
6.77
4.03
2.43
2.10
2.60
2.99
2.31
0.12
-3.30
-7.05
-10.11
-11.84
-12.21
-11.75
-11.18
-11.02
-11.50
-12.47
-13.63
-14.59
-14.97
-14.44
-12.76
-9.93
-6.21
-2.14
1.67
4.83
7.25
9.07
10.55
11.75
12.55
12.77
12.34
11.37
10.12
8.82
7.56
6.34
5.16
4.13
3.42
3.17
3.26
3.43
3.37
2.95
2.29
1.69
1.42
1.50
1.71
1.65
1.05
-0.13
-1.68
-3.21
-4.34
-4.81
-4.56
-3.75
-2.73
-1.89
-1.57
-1.89
-2.75
-3.97
-5.44
-7.16
-9.26
-11.75
-14.40
-16.75
-18.20
-18.32
-17.01
-14.52
-11.34
-7.94
-4.74
-1.99
0.17
1.65
2.41
2.50
2.03
1.14
-0.01
-1.24
-2.28
-2.81
-2.55
-1.48
0.12
1.78
3.05
3.78
4.24
4.84
5.79
6.92
7.71
7.67
6.69
5.20
3.93
3.45
3.91
4.92
5.91
6.35
5.98
4.75
2.79
0.35
-2.22
-4.50
-6.15
-7.07
-7.51
-7.91
-8.69
-9.98
-11.57
-13.01
-13.87
-13.84
-12.81
-10.81
-7.99
-4.62
-1.08
2.26
5.08
7.21
8.54
9.06
8.75
7.76
6.52
5.67
5.85
7.33
9.80
12.41
14.19
14.54
13.45
11.45
9.20
7.19
5.56
4.24
3.15
2.33
1.85
1.70
1.67
1.38
0.46
-1.28
-3.78
-6.75
-9.81
-12.59
-14.83
-16.44
-17.49
-18.19
-18.83
-19.52
-20.26
-20.84
-21.09
-20.99
-20.76
-20.69
-20.96
-21.39
-21.49
-20.71
-18.83
-16.12
-13.20
-10.59
-8.41
-6.22
-3.40
0.40
4.93
9.40
12.91
14.96
15.72
15.89
16.21
17.07
18.26
19.18
19.27
18.31
16.57
14.65
13.05
11.98
11.13
9.97
8.04
5.28
2.18
-0.47
-2.03
-2.32
-1.80
-1.33
-1.68
-3.19
-5.56
-8.06
-9.90
-10.66
-10.40
-9.59
-8.84
-8.55
-8.86
-9.71
-10.97
-12.65
-14.82
-17.50
-20.43
-23.06
-24.59
-24.35
-22.04
-17.88
-12.55
-6.90
-1.58
3.19
7.60
12.07
16.86
21.83
26.35
29.57
30.84
30.09
27.90
25.23
22.93
21.33
20.15
18.73
16.41
12.96
8.65
4.16
0.20
-2.73
-4.57
-5.65
-6.43
-7.28
-8.26
-9.12
-9.50
-9.21
-8.42
-7.60
-7.25
-7.50
-7.92
-7.95
-7.35
-6.53
-6.29
-7.34
-9.78
-13.00
-16.05
-18.16
-19.27
-20.08
-21.39
-23.35
-25.21
-25.71
-23.72
-18.93
-11.89
-3.93
3.30
8.64
12.25
15.10
18.23
22.02
25.74
28.58
29.57
27.93
23.78
19.04
16.04
16.19
19.05
22.23
23.86
22.35
16.96
8.67
1.08
-2.10
0.94
9.03
18.33
26.02
29.75
27.96
21.30
13.99
11.22
16.93
32.35
56.01
86.79
122.38
159.31
182.17
179.40
149.71
103.67
67.43
47.63
45.24
59.45
83.00
109.80
134.25
150.13
151.76
126.01
70.49
-3.38
-78.71
-142.35
-186.94
-207.63
-200.89
-166.40
-111.54
-46.85
12.97
51.47
56.76
26.59
-31.30
-103.85
-178.30
-245.13
-294.42
-319.76
-320.07
-298.30
-259.87
-211.28
-158.97
-106.45
-60.81
-24.35
6.52
32.25
52.11
65.50
72.87
75.84
76.57
76.52
77.19
78.19
77.53
73.96
67.83
60.76
54.76
51.16
49.98
51.17
53.98
57.31
60.87
64.78
68.84
72.18
73.45
71.37
65.91
57.93
48.68
39.75
32.36
26.99
23.51
21.54
20.81
21.44
23.51
26.54
29.68
31.70
31.44
28.18
21.90
13.30
3.60
-5.90
-14.33
-21.40
-27.54
-33.64
-40.77
-49.65
-60.41
-72.40
-84.42
-95.01
-102.77
-106.75
-106.51
-102.15
-94.17
-83.28
-70.20
-55.63
-40.17
-24.49
-9.38
4.23
15.40
23.53
28.59
31.07
31.76
31.34
30.13
28.21
25.68
23.03
21.27
21.68
25.23
32.06
41.20
50.93
59.35
65.03
67.47
67.22
65.75
64.78
65.62
68.70
73.46
78.77
83.16
85.28
84.44
80.81
75.28
68.94
62.64
56.80
51.57
46.52
40.97
34.52
27.52
20.96
15.85
12.69
11.35
11.70
13.21
15.09
16.42
16.22
13.16
5.52
-8.35
-30.74
-59.33
-87.65
-108.72
-118.99
-119.11
-112.19
-101.81
-90.85
-80.90
-72.17
-64.46
-57.67
-51.73
-46.38
-41.28
-36.38
-32.00
-28.57
-26.09
-24.38
-23.11
-21.79
-19.93
-17.21
-13.99
-11.13
-9.60
-10.09
-13.37
-20.59
-31.61
-44.70
-56.23
-61.61
-57.26
-42.77
-21.63
-0.06
16.43
24.43
25.81
25.38
27.19
32.03
37.72
41.53
42.52
41.62
40.25
38.67
35.38
28.67
18.44
7.07
-2.02
-6.36
-5.92
-2.61
2.06
8.25
17.57
30.99
46.78
60.27
65.68
58.98
40.19
13.73
-13.89
-34.92
-45.30
-46.09
-41.75
-37.19
-35.46
-36.90
-39.67
-41.64
-42.45
-42.20
-42.19
-43.88
-48.12
-55.19
-65.30
-78.30
-93.63
-109.49
-122.13
-126.58
-118.32
-95.50
-60.31
-18.68
22.91
58.30
81.18
88.27
79.99
59.86
33.12
5.52
-18.03
-32.86
-36.58
-30.13
-17.30
-3.36
7.10
11.34
9.32
2.54
-4.85
-8.57
-5.76
4.64
22.22
45.66
72.92
101.98
122.26
125.31
109.85
82.50
51.86
23.58
-0.02
-18.60
-29.26
-32.92
-28.49
-15.08
6.12
31.39
55.72
75.08
82.66
76.27
57.11
30.82
4.08
-18.25
-34.47
-45.30
-51.93
-54.93
-53.05
-45.22
-30.24
-8.68
16.67
41.62
62.16
76.05
82.83
83.84
80.46
74.38
66.95
58.94
50.79
42.80
35.74
30.18
26.16
22.67
18.62
13.09
5.73
-3.16
-12.87
-21.46
-26.95
-28.41
-26.34
-22.11
-17.37
-13.51
-11.15
-10.29
-8.82
-3.80
6.57
22.06
40.58
58.53
71.52
75.59
63.52
34.24
-4.82
-41.99
-68.13
-80.72
-82.90
-80.07
-77.11
-77.97
-84.66
-95.40
-108.76
-123.32
-136.43
-144.28
-142.72
-123.25
-87.67
-44.01
-2.06
30.31
49.91
58.51
59.81
57.58
54.37
51.68
50.68
53.97
64.00
81.88
106.59
133.27
154.85
164.04
155.42
128.75
89.25
44.97
1.99
-32.93
-57.20
-72.12
-81.24
-88.35
-95.21
-101.25
-105.28
-107.04
-103.95
-96.97
-89.31
-84.00
-81.54
-79.28
-73.52
-62.20
-46.14
-28.26
-13.00
-3.43
-0.08
-0.74
-2.89
-4.65
-5.24
-4.63
-2.88
-0.51
2.26
5.59
9.69
14.46
18.75
21.62
22.71
22.56
21.93
21.67
22.29
23.75
25.29
25.90
24.99
22.62
19.48
16.23
13.25
10.43
7.39
3.70
-0.72
-5.45
-9.82
-13.24
-15.30
-15.71
-14.09
-10.05
-3.48
5.17
14.85
24.10
31.59
36.60
39.25
40.29
40.67
41.07
41.70
42.33
42.50
41.78
39.92
36.91
32.93
28.23
23.01
17.49
11.91
6.56
1.84
-1.96
-4.78
-6.95
-9.17
-12.21
-16.58
-22.34
-28.98
-35.78
-42.11
-47.69
-52.67
-57.42
-62.29
-67.40
-72.69
-77.88
-82.60
-86.41
-88.86
-89.64
-88.64
-86.00
-82.00
-76.88
-70.68
-63.37
-54.99
-45.87
-36.65
-28.05
-20.60
-14.38
-9.08
-4.19
0.67
5.61
10.50
15.23
19.86
24.64
29.87
35.63
41.67
47.43
52.33
56.02
58.46
59.96
60.85
61.32
61.32
60.62
58.99
56.34
52.77
48.46
43.66
38.58
33.42
28.40
23.77
19.76
16.51
14.04
12.24
10.94
9.88
8.79
7.44
5.71
3.69
1.68
0.15
-0.50
-0.11
1.25
3.30
5.78
8.56
11.69
15.28
19.33
23.67
27.93
31.69
34.64
36.68
37.93
38.65
39.12
39.48
39.68
39.52
38.77
37.28
35.09
32.38
29.45
26.55
23.83
21.24
18.61
15.76
12.53
8.86
4.82
0.50
-3.95
-8.38
-12.58
-16.31
-19.32
-21.45
-22.68
-23.22
-23.34
-23.32
-23.20
-22.74
-21.57
-19.47
-16.57
-13.31
-10.36
-8.18
-6.88
-6.13
-5.50
-4.64
-3.53
-2.39
-1.45
-0.72
0.05
1.18
2.81
4.71
6.38
7.26
7.11
6.08
4.63
3.28
2.35
1.85
1.56
1.22
0.74
0.19
-0.24
-0.46
-0.44
-0.27
-0.05
0.17
0.42
0.76
1.19
1.66
2.03
2.11
1.75
0.86
-0.54
-2.29
-4.15
-5.86
-7.24
-8.30
-9.15
-10.05
-11.22
-12.78
-14.72
-16.91
-19.18
-21.26
-22.87
-23.63
-23.21
-21.47
-18.58
-15.02
-11.43
-8.35
-5.95
-3.99
-2.02
0.29
2.97
5.69
8.00
9.61
10.59
11.28
12.09
13.20
14.49
15.61
16.25
16.34
16.13
16.05
16.45
17.50
19.08
20.92
22.74
24.36
25.78
27.16
28.76
30.88
33.73
37.35
41.52
45.83
49.74
52.86
55.18
57.15
59.55
63.16
68.43
75.28
83.23
91.52
99.39
106.35
112.30
117.74
123.85
132.39
145.02
162.39
183.09
203.30
217.62
220.88
210.27
186.55
153.68
117.09
81.39
48.84
19.23
-9.05
-37.88
-68.63
-102.27
-139.53
-180.40
-222.99
-262.79
-293.42
-309.16
-307.75
-291.68
-267.22
-241.33
-218.68
-200.43
-185.38
-172.25
-161.36
-154.54
-153.64
-159.12
-169.74
-183.48
-198.71
-214.20
-228.28
-237.82
-238.20
-224.64
-194.27
-147.69
-89.19
-26.19
32.46
78.21
104.51
108.48
91.83
60.65
23.92
-9.32
-33.17
-46.86
-54.65
-63.32
-78.29
-100.46
-125.38
-145.09
-151.79
-141.31
-114.38
-75.55
-30.45
16.72
63.76
109.30
151.03
184.89
206.23
212.20
203.62
185.21
163.73
145.08
132.21
124.58
119.37
113.47
105.13
94.49
83.02
72.50
64.08
57.99
53.71
50.37
47.22
43.77
39.75
35.04
29.66
23.80
17.92
12.70
8.98
7.58
9.17
14.08
22.13
32.42
43.25
52.32
57.21
56.21
48.88
36.26
20.59
4.50
-9.64
-20.20
-26.35
-28.03
-25.83
-20.92
-15.04
-10.07
-7.54
-8.08
-11.16
-15.37
-19.02
-20.84
-20.42
-18.16
-14.88
-11.46
-8.45
-6.15
-4.54
-3.55
-2.99
-2.60
-2.11
-1.29
-0.10
1.29
2.57
3.44
3.72
3.49
3.02
2.63
2.59
3.01
3.88
5.05
6.33
7.53
8.46
8.99
9.03
8.58
7.75
6.77
5.96
5.73
6.47
8.43
11.52
15.37
19.40
22.99
25.81
27.85
29.53
31.47
34.22
37.86
41.90
45.36
46.96
45.35
39.51
29.02
14.31
-3.26
-21.68
-38.51
-51.40
-58.85
-60.72
-58.24
-53.42
-48.11
-43.29
-39.07
-34.74
-29.27
-22.31
-14.79
-8.74
-6.60
-10.07
-19.30
-32.74
-46.66
-55.33
-52.61
-33.94
1.81
50.91
105.15
153.62
185.25
192.66
174.66
135.72
83.65
26.84
-28.52
-77.86
-114.39
-133.73
-136.62
-127.64
-112.03
-93.90
-75.98
-60.79
-50.64
-47.14
-50.63
-60.10
-70.61
-75.94
-70.56
-51.10
-18.36
23.48
68.81
112.03
148.79
175.71
190.25
186.41
162.02
118.76
62.49
1.97
-53.56
-92.65
-109.39
-106.98
-93.97
-77.54
-61.53
-47.04
-34.32
-23.95
-16.72
-13.44
-13.95
-16.61
-18.51
-17.69
-13.93
-8.56
-3.62
-0.92
-1.58
-5.30
-10.32
-13.91
-14.18
-10.93
-5.45
-0.08
2.52
-0.24
-9.52
-23.80
-38.81
-48.23
-46.10
-29.08
1.80
40.75
78.40
104.73
112.52
99.75
70.01
30.77
-9.20
-42.89
-66.72
-80.42
-85.47
-83.43
-75.47
-62.63
-46.59
-29.89
-15.36
-4.51
3.20
10.21
19.33
31.13
43.59
53.53
58.39
57.51
52.10
44.07
35.12
26.36
18.65
13.19
11.30
13.43
18.56
24.36
28.17
28.01
23.77
17.21
11.37
9.24
12.27
19.87
29.39
37.02
39.38
35.01
24.85
11.67
-1.25
-11.35
-17.24
-18.70
-16.67
-12.94
-10.39
-12.42
-21.43
-36.73
-53.51
-63.67
-59.26
-36.78
0.01
40.62
72.03
84.38
75.10
49.08
15.34
-17.61
-44.79
-65.03
-79.09
-86.81
-86.04
-73.81
-48.99
-14.49
22.44
52.54
68.39
67.70
54.59
37.58
25.79
24.85
34.83
50.97
66.56
76.29
77.78
72.06
62.56
52.96
45.29
39.23
32.89
24.20
12.09
-3.26
-20.68
-38.85
-56.91
-74.72
-92.53
-110.34
-127.39
-141.89
-151.38
-153.29
-146.04
-130.01
-107.70
-83.04
-60.11
-41.78
-29.15
-22.17
-20.90
-26.47
-40.54
-63.63
-93.11
-122.63
-143.79
-149.39
-136.53
-107.98
-70.82
-33.27
-1.49
22.14
38.66
50.79
61.07
70.76
79.97
88.20
94.92
99.69
102.08
101.64
98.05
91.18
81.25
68.93
55.24
41.45
28.91
19.03
13.04
11.65
14.89
21.96
31.33
41.04
49.49
55.98
60.82
64.67
67.72
69.28
67.99
62.53
52.46
38.97
24.73
13.02
6.17
4.47
6.29
8.90
9.81
7.64
2.91
-2.17
-4.72
-2.67
4.51
16.15
31.18
48.21
64.68
76.54
79.26
70.11
50.18
25.04
3.47
-6.41
-1.40
12.84
24.24
20.40
-1.59
-33.16
-61.53
-78.07
-81.88
-77.80
-72.25
-69.12
-68.28
-67.14
-63.99
-60.30
-59.68
-65.19
-77.24
-91.89
-102.42
-102.01
-86.77
-57.91
-21.84
12.50
35.69
43.81
38.45
24.41
7.14
-9.16
-21.69
-29.15
-30.98
-27.11
-17.45
-3.31
12.84
28.71
42.59
53.71
61.53
65.27
64.08
58.82
49.84
36.14
15.77
-13.31
-50.98
-94.08
-136.50
-170.54
-187.35
-182.74
-159.15
-120.59
-74.73
-28.39
14.28
52.39
87.64
125.61
170.17
220.62
271.75
315.65
344.83
353.89
341.10
293.67
215.07
124.27
43.98
-13.62
-49.67
-71.13
-84.19
-91.82
-94.79
-90.98
-80.93
-68.55
-58.72
-54.36
-55.00
-58.08
-60.84
-61.90
-59.36
-53.65
-47.24
-42.95
-42.01
-43.54
-45.64
-46.75
-46.50
-44.03
-39.69
-34.81
-30.76
-28.09
-26.36
-24.94
-23.67
-23.73
-25.53
-30.34
-39.58
-53.51
-70.02
-84.48
-91.04
-83.77
-62.11
-29.20
8.13
41.58
64.36
73.23
68.33
52.74
31.17
8.26
-11.84
-26.42
-34.29
-35.54
-31.34
-23.47
-13.79
-4.00
4.16
9.42
10.99
8.85
4.01
-1.87
-7.07
-10.34
-11.40
-11.11
-10.75
-11.59
-14.44
-19.21
-25.02
-30.55
-34.40
-35.57
-33.78
-29.27
-22.78
-15.29
-7.66
-0.55
5.59
10.55
14.24
16.77
18.51
20.01
21.65
23.35
24.44
23.89
20.99
16.00
10.41
6.44
6.14
10.27
17.90
26.78
34.34
38.77
39.60
37.56
33.94
29.76
25.41
20.81
15.75
10.35
5.11
0.74
-2.34
-4.17
-5.31
-6.58
-8.64
-11.79
-15.85
-20.41
-24.98
-29.22
-32.94
-35.98
-38.13
-39.05
-38.42
-36.01
-31.82
-25.99
-18.84
-10.78
-2.36
5.61
12.19
16.42
17.76
16.35
13.16
9.71
7.53
7.57
9.86
13.64
17.78
21.34
23.97
25.87
27.45
28.84
29.91
30.10
28.71
25.31
20.20
14.36
9.11
5.52
4.03
4.51
6.19
7.98
8.84
8.26
6.33
3.50
0.21
-3.17
-5.91
-7.51
-7.98
-7.84
-7.72
-8.06
-9.09
-10.81
-12.84
-13.46
-11.56
-7.86
-4.67
-4.20
-7.39
-13.87
-22.51
-31.72
-37.68
-37.88
-33.21
-27.19
-23.03
-21.88
-23.08
-25.34
-26.45
-20.44
-3.39
22.72
50.97
74.38
89.47
96.48
97.74
98.23
109.04
139.32
190.57
256.48
328.16
397.11
455.10
493.57
476.91
390.76
258.73
126.85
27.23
-33.98
-66.84
-86.07
-106.15
-132.82
-159.80
-177.98
-183.47
-178.85
-167.44
-151.21
-120.52
-79.51
-42.92
-24.13
-26.30
-43.84
-73.47
-114.34
-162.57
-214.54
-269.66
-325.48
-374.80
-405.93
-409.43
-383.30
-332.36
-266.17
-196.68
-135.50
-77.89
-25.80
18.45
55.10
85.24
108.13
121.32
122.55
111.68
92.86
72.09
57.17
53.46
61.15
76.39
93.55
106.37
109.33
98.15
70.58
30.05
-15.03
-53.84
-76.01
-75.01
-51.14
-12.55
27.20
53.75
58.88
42.62
11.47
-25.41
-60.33
-88.12
-105.19
-110.33
-103.58
-84.48
-53.01
-11.65
33.70
74.78
103.89
116.77
113.80
99.49
80.48
62.55
48.82
39.56
33.41
28.67
24.11
19.05
13.49
8.03
3.36
-0.13
-2.57
-4.63
-7.12
-10.43
-14.35
-17.95
-19.97
-19.59
-16.83
-12.60
-8.23
-4.87
-3.01
-2.40
-2.18
-1.35
0.74
4.16
8.39
12.64
16.27
18.99
20.83
21.99
22.68
22.98
22.82
22.13
20.95
19.50
18.05
16.84
15.99
15.49
15.18
14.77
13.92
12.33
9.84
6.50
2.53
-1.70
-5.85
-9.68
-13.06
-15.90
-18.10
-19.59
-20.32
-20.37
-19.99
-19.50
-19.14
-18.95
-18.79
-18.50
-18.01
-17.43
-16.83
-16.07
-14.73
-12.26
-8.32
-3.07
2.83
8.42
12.95
16.07
17.89
18.69
18.73
18.04
16.64
14.78
12.94
11.73
11.56
12.37
13.67
14.71
14.90
14.02
12.33
10.44
8.99
8.42
8.75
9.59
10.32
10.45
9.81
8.68
7.56
6.86
6.64
6.62
6.42
5.82
4.93
3.99
3.16
2.35
1.31
-0.17
-2.00
-3.90
-5.60
-7.07
-8.61
-10.52
-12.81
-15.02
-16.44
-16.56
-15.47
-13.91
-12.82
-12.84
-13.82
-14.86
-14.87
-13.35
-10.63
-7.60
-5.27
-4.17
-4.20
-4.74
-4.96
-4.38
-3.11
-1.77
-0.96
-0.95
-1.52
-2.23
-2.67
-2.42
-1.55
-0.64
-0.45
-1.38
-3.21
-5.32
-7.09
-8.32
-8.32
-7.07
-5.49
-5.03
-6.66
-10.37
-15.46
-21.01
-26.29
-28.97
-27.78
-23.70
-19.56
-18.04
-20.36
-26.16
-34.19
-42.99
-48.34
-47.67
-41.52
-32.74
-23.22
-12.22
2.79
24.29
53.82
95.98
153.28
223.54
299.67
372.33
432.41
472.33
487.50
452.88
361.85
233.93
104.87
1.84
-68.17
-111.91
-139.33
-157.54
-169.68
-172.75
-165.00
-149.44
-132.70
-120.59
-115.09
-114.88
-117.09
-119.23
-116.96
-108.30
-95.05
-81.68
-71.95
-66.94
-65.53
-65.85
-66.40
-64.62
-59.33
-51.47
-43.46
-37.23
-33.20
-30.87
-29.59
-29.06
-28.45
-27.13
-25.06
-22.52
-19.64
-16.35
-12.92
-10.12
-8.92
-9.65
-11.85
-14.61
-17.14
-19.12
-20.79
-22.65
-24.84
-26.29
-25.48
-21.15
-13.04
-2.37
9.29
21.00
32.97
46.07
60.04
71.68
74.82
63.06
33.82
-8.74
-52.57
-83.61
-91.72
-75.44
-42.57
-6.32
21.10
33.49
32.16
23.50
14.66
10.30
11.62
17.74
27.05
38.12
48.91
56.36
56.26
44.86
21.42
-10.02
-40.64
-59.65
-58.48
-35.01
4.64
47.95
80.86
92.81
82.14
55.42
23.34
-4.42
-22.88
-32.27
-35.77
-36.45
-35.37
-31.66
-24.61
-15.32
-6.78
-2.55
-5.29
-15.29
-30.23
-46.09
-58.28
-62.61
-56.79
-41.09
-18.31
7.11
30.94
50.37
64.42
73.47
77.89
76.97
69.20
53.44
30.31
3.46
-21.65
-39.88
-48.33
-47.54
-41.05
-33.55
-29.28
-31.12
-39.63
-53.51
-69.89
-84.43
-92.21
-89.24
-74.04
-47.39
-16.36
11.56
30.81
39.57
39.86
35.80
31.10
27.49
24.66
21.29
17.16
13.13
10.60
10.49
12.54
15.38
17.39
17.27
14.74
10.82
7.04
4.68
4.30
5.52
7.33
8.60
8.54
6.96
4.52
2.14
0.59
0.21
0.75
1.63
2.17
1.94
0.87
-0.69
-2.21
-3.27
-3.68
-3.54
-3.17
-2.92
-3.03
-3.59
-4.43
-5.35
-6.13
-6.59
-6.71
-6.54
-6.20
-5.85
-5.62
-5.57
-5.60
-5.47
-4.81
-3.21
-0.39
3.61
8.44
13.34
17.59
20.88
23.57
26.81
31.77
38.68
46.35
52.12
52.92
46.66
33.13
14.15
-7.15
-27.28
-43.08
-51.89
-51.65
-41.33
-21.78
3.65
29.30
48.82
57.41
53.76
40.49
22.69
5.69
-7.14
-14.90
-18.55
-19.59
-19.06
-17.21
-14.03
-10.00
-6.19
-4.00
-4.34
-6.94
-10.41
-12.94
-13.10
-10.40
-5.61
-0.23
3.74
4.97
3.34
-0.00
-3.16
-4.25
-2.23
2.11
6.22
6.04
-2.08
-20.31
-48.60
-84.65
-124.36
-162.38
-193.70
-210.32
-206.29
-178.97
-130.50
-67.76
-0.62
61.02
110.20
143.23
159.85
162.13
154.20
141.53
130.33
126.53
133.92
152.76
177.52
198.78
206.71
195.31
164.40
119.01
66.83
12.20
-36.57
-72.46
-93.30
-101.83
-102.08
-97.02
-88.46
-77.95
-67.28
-57.65
-50.59
-46.96
-46.27
-46.70
-46.20
-43.54
-38.77
-33.06
-27.64
-24.08
-23.36
-25.08
-27.57
-28.81
-27.50
-23.63
-18.46
-13.58
-10.80
-11.20
-14.35
-18.43
-21.28
-21.30
-18.17
-12.94
-7.36
-3.52
-3.35
-7.90
-17.03
-28.93
-40.30
-46.53
-43.48
-29.27
-5.69
21.88
46.55
62.46
67.33
63.32
55.43
48.92
47.19
50.91
57.59
63.67
65.50
60.36
47.34
27.77
4.93
-16.76
-32.87
-41.46
-43.10
-40.16
-35.54
-31.37
-28.62
-27.38
-27.18
-27.24
-26.75
-24.83
-20.31
-12.76
-2.72
8.24
17.94
24.38
26.39
23.96
18.44
11.95
6.66
4.02
4.25
6.42
8.93
10.34
9.90
7.89
5.20
2.67
0.85
-0.19
-0.52
-0.19
0.83
2.55
4.83
7.37
9.77
11.77
13.25
14.28
15.00
15.50
15.82
16.11
16.71
18.11
20.74
24.65
29.33
33.81
37.03
38.27
37.36
34.90
31.83
29.26
27.90
28.00
29.38
31.63
34.17
36.18
36.58
34.28
28.70
20.18
10.01
-0.05
-8.54
-14.91
-19.47
-22.95
-25.84
-28.13
-29.49
-29.76
-29.31
-28.97
-29.53
-31.27
-33.79
-36.30
-38.15
-39.23
-39.93
-40.81
-42.19
-43.95
-45.64
-46.91
-47.75
-48.54
-49.79
-51.80
-54.37
-56.84
-58.39
-58.37
-56.61
-53.41
-49.33
-44.87
-40.30
-35.62
-30.70
-25.46
-19.98
-14.45
-9.14
-4.30
-0.13
3.18
5.49
6.78
7.28
7.50
8.11
9.79
12.90
17.34
22.65
28.23
33.59
38.51
42.92
46.66
49.42
50.74
50.29
48.12
44.74
40.97
37.51
34.72
32.44
30.18
27.44
23.87
19.47
14.45
9.13
3.80
-1.39
-6.47
-11.65
-17.21
-23.33
-29.87
-36.24
-41.44
-44.36
-44.15
-40.52
-33.90
-25.19
-15.54
-5.96
2.79
10.28
16.33
20.92
24.17
26.25
27.37
27.76
27.60
27.04
26.23
25.33
24.45
23.64
22.75
21.60
19.98
17.89
15.54
13.29
11.47
10.13
9.11
7.98
6.35
3.88
0.49
-3.67
-8.19
-12.50
-15.98
-18.21
-19.09
-18.91
-18.21
-17.52
-17.14
-17.08
-17.14
-17.14
-17.07
-17.18
-17.73
-18.86
-20.46
-22.20
-23.65
-24.48
-24.55
-23.86
-22.57
-20.78
-18.54
-15.83
-12.62
-8.97
-5.02
-1.01
2.80
6.13
8.82
10.80
12.16
13.09
13.82
14.54
15.27
15.93
16.33
16.31
15.90
15.32
14.86
14.76
15.04
15.46
15.72
15.54
14.89
13.89
12.80
11.81
10.99
10.26
9.52
8.67
7.73
6.74
5.75
4.70
3.50
2.04
0.30
-1.62
-3.49
-5.11
-6.31
-7.06
-7.48
-7.74
-8.06
-8.66
-9.72
-11.34
-13.45
-15.72
-17.65
-18.62
-18.15
-16.04
-12.53
-8.15
-3.54
0.81
4.60
7.82
10.56
12.89
14.79
16.09
16.58
16.03
14.34
11.72
8.65
5.82
3.84
2.92
2.76
2.67
1.95
0.31
-2.03
-4.47
-6.43
-7.61
-8.16
-8.39
-8.62
-8.89
-9.09
-9.01
-8.54
-7.76
-6.85
-6.09
-5.69
-5.82
-6.47
-7.54
-8.87
-10.31
-11.79
-13.39
-15.20
-17.26
-19.52
-21.81
-23.99
-25.94
-27.47
-28.38
-28.33
-27.07
-24.53
-20.92
-16.68
-12.33
-8.22
-4.48
-1.08
2.15
5.23
8.15
10.74
12.85
14.38
15.29
15.63
15.47
14.92
14.09
13.11
12.09
11.15
10.35
9.75
9.39
9.27
9.37
9.57
9.76
9.76
9.42
8.68
7.57
6.22
4.83
3.55
2.45
1.50
0.62
-0.27
-1.18
-2.06
-2.79
-3.32
-3.65
-3.84
-4.00
-4.19
-4.42
-4.75
-5.24
-6.07
-7.41
-9.35
-11.76
-14.27
-16.33
-17.38
-17.07
-15.38
-12.64
-9.38
-6.17
-3.37
-1.04
0.98
2.98
5.16
7.47
9.70
11.51
12.68
13.20
13.31
13.36
13.63
14.24
15.08
15.92
16.50
16.67
16.45
15.93
15.22
14.41
13.51
12.51
11.48
10.50
9.74
9.27
9.03
8.86
8.49
7.69
6.31
4.37
2.01
-0.49
-2.85
-4.79
-6.13
-6.92
-7.45
-8.24
-9.84
-12.59
-16.41
-20.77
-24.87
-27.89
-29.28
-28.94
-27.15
-24.39
-21.14
-17.76
-14.40
-11.11
-7.85
-4.60
-1.40
1.67
4.47
6.82
8.59
9.68
10.16
10.23
10.20
10.36
10.87
11.68
12.56
13.23
13.45
13.15
12.46
11.61
10.83
10.18
9.64
9.04
8.24
7.20
6.02
4.91
4.05
3.55
3.30
3.05
2.44
1.26
-0.52
-2.65
-4.70
-6.30
-7.27
-7.72
-7.97
-8.42
-9.36
-10.84
-12.74
-14.77
-16.64
-18.02
-18.67
-18.37
-16.94
-14.37
-10.74
-6.35
-1.56
3.21
7.62
11.42
14.57
17.10
19.19
20.99
22.60
24.02
25.16
25.98
26.44
26.62
26.65
26.65
26.76
27.06
27.62
28.48
29.60
30.86
31.98
32.49
31.80
29.28
24.49
17.37
8.26
-2.14
-12.91
-23.20
-32.36
-40.00
-45.94
-50.03
-52.07
-51.89
-49.40
-44.88
-38.97
-32.63
-26.89
-22.56
-20.05
-19.32
-20.01
-21.55
-23.33
-24.81
-25.55
-25.32
-24.08
-22.00
-19.28
-16.13
-12.70
-9.03
-5.21
-1.41
2.14
5.22
7.73
9.69
11.21
12.39
13.18
13.42
13.09
12.33
11.49
10.95
10.95
11.46
12.17
12.64
12.50
11.71
10.60
9.57
8.80
8.11
7.05
5.25
2.66
-0.35
-3.02
-4.54
-4.58
-3.54
-2.31
-1.84
-2.66
-4.76
-7.98
-11.64
-14.72
-16.39
-16.39
-14.87
-12.18
-8.85
-5.60
-3.77
-3.71
-4.35
-4.12
-2.03
2.07
7.57
13.32
18.19
20.52
20.45
19.87
20.45
22.12
23.64
23.72
21.72
17.56
9.58
-3.01
-19.93
-40.49
-63.39
-85.24
-100.49
-103.52
-83.71
-42.87
5.07
45.91
74.01
89.63
93.55
84.67
61.39
26.77
-16.18
-58.41
-85.32
-86.04
-61.83
-24.24
12.04
36.38
46.09
44.00
36.82
30.62
27.32
24.96
21.12
15.43
9.70
6.39
6.07
8.27
11.84
14.76
15.07
12.22
7.35
2.58
-0.08
-0.18
1.87
5.02
7.71
8.54
7.07
4.02
0.75
-1.37
-1.82
-0.68
1.45
3.62
4.95
5.18
4.61
3.95
3.98
5.19
7.79
11.80
17.29
23.75
30.42
36.12
39.42
39.04
34.35
25.67
14.19
1.63
-10.30
-20.20
-27.17
-30.82
-31.22
-28.87
-24.60
-19.50
-14.60
-10.69
-8.02
-6.37
-5.10
-3.38
-0.40
4.42
11.03
18.67
25.98
31.26
32.93
30.03
22.60
11.80
-0.28
-11.26
-19.02
-22.44
-21.72
-18.31
-14.46
-12.33
-13.19
-16.97
-22.36
-27.35
-30.15
-29.89
-26.91
-22.37
-17.57
-13.39
-9.58
-5.74
-1.34
3.90
9.75
15.61
21.04
26.13
31.59
38.16
45.99
54.40
62.05
67.57
70.19
69.98
67.46
62.98
56.25
46.48
33.09
16.30
-2.84
-22.81
-42.23
-60.05
-75.21
-86.27
-91.39
-88.93
-78.58
-62.49
-45.18
-32.23
-28.07
-33.94
-47.15
-62.11
-72.67
-74.65
-67.35
-53.42
-37.40
-23.73
-15.10
-11.85
-12.38
-14.14
-14.78
-12.75
-7.70
-0.26
8.33
16.83
24.38
30.57
35.29
38.40
39.60
38.61
35.35
30.25
24.18
18.20
13.19
9.53
7.09
5.47
4.21
2.92
1.40
-0.29
-1.84
-2.97
-3.62
-3.96
-4.12
-4.34
-4.87
-5.91
-7.32
-8.72
-9.71
-10.14
-10.11
-9.46
-8.28
-7.12
-6.77
-7.60
-9.13
-10.27
-9.82
-6.85
-0.60
8.33
17.90
25.38
29.11
29.79
30.12
33.62
43.00
59.70
82.37
107.35
130.39
148.78
161.97
169.76
171.46
158.72
126.94
79.95
29.12
-14.55
-46.70
-69.22
-86.66
-102.60
-113.86
-112.40
-91.37
-50.25
3.62
58.03
101.09
122.06
115.45
83.72
36.09
-16.47
-66.07
-109.75
-148.08
-176.45
-189.77
-186.18
-168.08
-139.87
-106.49
-73.41
-45.74
-26.50
-15.66
-11.53
-11.96
-14.94
-18.68
-21.11
-19.60
-11.08
6.69
32.19
60.43
83.02
92.19
83.50
60.63
32.26
6.86
-11.30
-22.55
-29.30
-32.31
-29.62
-16.65
7.99
39.35
67.30
81.77
77.73
57.20
27.78
-1.17
-22.74
-34.88
-38.25
-37.09
-34.94
-32.69
-29.34
-23.86
-16.33
-8.06
-0.91
3.30
3.54
0.54
-3.54
-6.24
-6.30
-3.83
-0.34
2.14
2.04
-1.37
-7.64
-16.19
-26.35
-37.65
-48.76
-56.95
-58.49
-50.72
-34.06
-12.16
9.39
25.50
33.73
34.99
32.07
27.75
22.91
16.26
6.64
-5.43
-17.73
-27.65
-33.48
-35.16
-33.31
-28.47
-20.86
-8.84
10.13
37.21
70.70
106.71
137.01
154.25
154.02
135.70
105.22
73.01
49.11
38.50
39.31
43.78
42.13
26.40
-7.67
-56.32
-109.36
-155.21
-185.45
-196.48
-189.46
-168.26
-128.53
-77.94
-30.79
3.81
25.94
39.18
45.82
45.97
39.75
28.82
15.26
3.53
-1.40
2.47
12.65
23.88
30.60
29.78
21.95
9.61
-2.20
-8.02
-4.94
6.53
23.69
41.97
57.01
65.04
62.32
47.30
21.87
-8.49
-36.50
-52.59
-51.84
-36.36
-14.50
2.97
8.08
-0.68
-18.14
-35.43
-44.30
-41.37
-28.95
-13.24
-0.78
5.63
7.60
10.02
17.76
32.58
51.33
67.65
74.04
67.94
51.91
32.23
15.90
7.28
6.68
11.04
16.78
21.91
25.80
28.00
26.83
19.65
4.48
-17.33
-40.25
-55.96
-56.79
-39.50
-7.84
28.26
56.67
68.20
60.26
37.26
7.35
-19.51
-37.52
-45.94
-47.45
-45.35
-41.64
-36.56
-29.40
-20.28
-10.81
-3.97
-2.23
-6.08
-13.44
-20.65
-24.22
-22.26
-15.62
-7.19
-0.70
1.15
-2.19
-9.00
-16.26
-21.07
-21.94
-19.31
-15.13
-11.89
-11.48
-14.88
-21.96
-32.04
-43.63
-54.27
-60.61
-59.14
-47.75
-27.23
-1.56
23.18
40.86
48.33
46.27
38.29
28.92
21.54
17.26
15.35
14.30
12.93
10.93
8.70
6.89
5.91
5.99
7.03
8.86
11.60
15.75
21.58
28.30
33.50
33.87
26.90
12.78
-4.72
-19.56
-26.24
-22.55
-10.73
3.64
14.92
20.15
19.92
17.05
14.27
12.51
10.89
8.05
3.70
-0.75
-3.26
-2.46
1.52
6.94
11.35
12.91
11.09
6.93
2.49
-0.37
-0.55
2.25
7.81
15.43
23.57
29.66
30.22
22.32
4.99
-19.62
-46.57
-70.04
-85.81
-92.40
-91.58
-85.90
-76.74
-63.10
-43.62
-18.43
9.64
35.63
54.48
63.26
61.93
54.03
43.89
34.93
28.73
25.30
23.99
24.31
26.61
31.14
37.91
45.74
52.30
55.02
52.10
43.47
30.94
17.35
5.47
-2.92
-7.48
-8.97
-8.38
-6.47
-3.67
-0.27
3.36
6.79
9.75
11.85
12.45
10.67
5.55
-3.24
-14.82
-27.08
-37.37
-43.81
-46.18
-45.89
-44.96
-44.63
-44.81
-43.35
-38.38
-29.74
-19.93
-13.30
-13.98
-23.33
-38.69
-53.99
-62.44
-59.80
-46.15
-25.42
-2.82
17.75
35.18
50.36
64.21
76.21
84.06
85.19
78.32
64.60
47.34
30.77
18.49
12.39
12.47
17.09
23.74
29.67
32.65
31.41
25.86
16.91
5.96
-5.58
-16.99
-27.10
-35.56
-42.57
-48.60
-53.96
-58.57
-61.93
-63.20
-61.63
-56.71
-48.36
-36.88
-23.02
-8.27
4.77
12.76
12.53
2.22
-17.72
-44.62
-74.14
-101.32
-121.50
-130.92
-127.08
-109.11
-78.27
-38.04
6.13
48.12
82.84
107.62
122.85
131.40
137.16
143.41
151.61
160.92
168.77
171.97
168.08
156.26
137.50
114.04
88.54
63.26
39.67
18.65
0.82
-13.21
-23.15
-29.48
-33.68
-37.86
-43.74
-51.60
-59.80
-65.38
-65.60
-59.45
-48.38
-35.80
-25.58
-20.36
-20.68
-25.14
-31.32
-36.82
-39.94
-39.83
-36.38
-30.11
-22.08
-13.85
-7.11
-3.05
-1.79
-2.40
-3.45
-4.00
-4.59
-7.13
-14.06
-26.52
-42.63
-56.82
-61.12
-48.24
-15.31
33.67
88.09
134.00
158.99
156.58
128.31
82.85
32.88
-9.06
-33.99
-38.35
-24.13
2.51
33.27
60.00
76.58
79.91
69.89
48.77
20.17
-11.80
-42.98
-69.56
-88.73
-99.16
-101.43
-97.87
-91.83
-86.47
-83.83
-84.22
-86.42
-88.40
-88.21
-84.78
-78.33
-70.21
-62.41
-56.72
-53.99
-53.89
-55.08
-55.81
-54.65
-50.91
-44.68
-36.57
-27.41
-18.11
-9.63
-2.94
1.11
2.14
0.42
-3.11
-7.18
-10.66
-12.90
-13.83
-13.79
-13.27
-12.79
-12.76
-13.57
-15.49
-18.54
-22.32
-25.98
-28.49
-28.93
-26.96
-22.85
-17.34
-11.12
-4.63
2.06
8.89
15.49
21.16
25.18
27.28
27.82
27.51
26.82
25.58
23.22
19.37
14.61
10.55
9.19
11.75
17.98
26.14
33.89
39.35
41.70
41.22
38.70
34.91
30.35
25.34
20.28
15.81
12.74
11.78
13.27
16.93
21.89
26.91
30.80
32.83
32.92
31.53
29.29
26.68
23.79
20.50
16.68
12.37
7.76
3.03
-1.76
-6.70
-11.90
-17.33
-22.81
-28.09
-32.87
-36.86
-39.70
-40.97
-40.32
-37.60
-33.06
-27.30
-21.01
-14.72
-8.57
-2.47
3.74
10.05
16.19
21.80
26.59
30.51
33.70
36.30
38.37
39.78
40.39
40.12
39.09
37.55
35.74
33.74
31.54
29.14
26.63
24.23
22.12
20.35
18.87
17.53
16.31
15.33
14.64
14.04
12.98
10.66
6.38
-0.05
-8.01
-16.18
-23.05
-27.49
-29.24
-29.03
-28.10
-27.73
-28.75
-31.30
-34.86
-38.22
-39.65
-37.23
-29.57
-16.63
-0.35
15.66
27.27
31.59
28.34
20.07
10.96
4.95
4.12
8.13
14.92
22.05
27.81
31.56
33.42
33.58
32.05
28.72
23.73
17.80
12.24
8.46
7.36
8.84
11.88
14.98
16.89
17.10
16.01
14.53
13.48
13.09
12.96
12.31
10.43
7.15
2.88
-1.63
-5.77
-9.39
-12.79
-16.47
-20.88
-26.19
-32.18
-38.42
-44.44
-49.92
-54.67
-58.55
-61.31
-62.77
-62.80
-61.34
-58.45
-54.30
-49.26
-43.80
-38.38
-33.22
-28.71
-25.20
-22.78
-21.14
-19.73
-18.08
-16.07
-13.96
-11.95
-11.00
-12.16
-15.65
-20.43
-24.70
-26.81
-26.19
-23.57
-19.90
-17.43
-17.78
-20.64
-23.42
-22.15
-12.84
7.38
39.46
82.57
130.96
175.62
206.42
215.41
199.35
160.80
107.07
41.76
-23.14
-73.78
-101.01
-104.72
-90.71
-66.64
-40.44
-19.66
-9.98
-10.87
-20.69
-34.45
-45.51
-47.79
-38.10
-17.14
11.72
44.54
79.42
106.78
119.84
116.66
100.90
79.01
56.58
36.65
20.11
6.93
-4.14
-13.16
-19.86
-23.84
-25.05
-23.82
-20.72
-16.49
-12.31
-9.72
-10.49
-15.45
-23.75
-32.90
-39.51
-40.69
-35.33
-24.79
-12.62
-2.29
3.80
5.04
2.26
-3.09
-9.68
-16.68
-23.57
-30.72
-37.30
-42.23
-44.75
-44.92
-43.57
-41.93
-41.00
-41.09
-41.73
-41.72
-39.92
-35.75
-29.45
-21.86
-14.10
-7.04
-1.13
3.68
7.77
11.55
15.29
19.02
22.59
25.75
28.22
29.77
30.30
29.89
28.74
27.08
25.17
23.18
21.17
19.20
17.33
15.67
14.43
13.72
13.57
13.80
14.12
14.23
13.89
13.03
11.68
9.98
8.04
5.98
3.85
1.72
-0.34
-2.26
-4.03
-5.66
-7.21
-8.73
-10.21
-11.61
-12.86
-13.95
-14.94
-15.92
-16.94
-17.96
-18.80
-19.24
-19.06
-18.15
-16.49
-14.17
-11.34
-8.15
-4.77
-1.33
2.00
5.10
7.85
10.17
11.98
13.21
13.86
13.96
13.60
12.94
12.11
11.23
10.34
9.48
8.68
7.97
7.41
7.01
6.73
6.45
6.07
5.48
4.68
3.76
2.82
1.92
0.99
-0.11
-1.59
-3.56
-5.98
-8.69
-11.44
-14.03
-16.35
-18.35
-20.01
-21.26
-22.00
-22.09
-21.44
-20.00
-17.80
-14.96
-11.65
-8.09
-4.54
-1.22
1.72
4.27
6.56
8.73
10.94
13.23
15.52
17.68
19.56
21.07
22.17
22.85
23.14
23.12
22.91
22.64
22.45
22.45
22.66
23.02
23.43
23.79
24.01
24.04
23.86
23.52
23.06
22.51
21.90
21.17
20.23
19.01
17.45
15.57
13.45
11.21
9.00
6.93
5.06
3.42
1.98
0.69
-0.50
-1.63
-2.69
-3.67
-4.60
-5.52
-6.52
-7.70
-9.07
-10.58
-12.06
-13.32
-14.13
-14.39
-14.04
-13.18
-11.94
-10.45
-8.78
-6.91
-4.80
-2.43
0.14
2.78
5.30
7.55
9.43
10.96
12.20
13.20
14.04
14.71
15.22
15.56
15.83
16.19
16.84
17.95
19.51
21.26
22.79
23.65
23.58
22.70
21.49
20.61
20.66
21.80
23.71
25.72
27.08
27.30
26.43
24.97
23.59
22.87
23.00
23.74
24.26
23.13
18.30
7.50
-11.06
-37.67
-70.44
-105.21
-136.51
-159.14
-169.78
-167.83
-155.24
-135.46
-112.19
-88.35
-65.89
-45.90
-28.97
-15.32
-4.79
3.26
9.76
15.77
22.19
29.45
37.49
45.93
54.24
62.03
69.08
75.34
80.78
85.45
89.32
92.49
95.07
97.23
99.01
100.27
100.59
99.45
96.45
91.44
84.68
76.55
67.46
57.68
47.28
36.16
24.06
10.53
-5.08
-23.36
-44.49
-67.88
-92.02
-114.74
-133.73
-147.26
-154.48
-155.58
-151.37
-142.91
-131.03
-116.25
-98.85
-79.19
-58.08
-36.95
-17.74
-2.32
8.15
13.74
15.80
16.38
17.36
19.76
23.42
27.43
30.71
32.63
33.12
32.54
31.24
29.42
27.02
24.06
20.76
17.67
15.40
14.34
14.47
15.35
16.34
16.76
16.21
14.57
11.91
8.32
3.94
-1.13
-6.67
-12.29
-17.49
-21.80
-24.93
-26.86
-27.72
-27.72
-26.89
-25.21
-22.59
-19.10
-15.08
-11.16
-7.99
-6.06
-5.45
-5.82
-6.52
-6.85
-6.23
-4.41
-1.45
2.30
6.43
10.50
14.23
17.45
20.13
22.20
23.56
24.03
23.48
21.90
19.51
16.73
14.00
11.70
9.98
8.77
7.94
7.28
6.71
6.11
5.35
4.26
2.65
0.39
-2.50
-5.83
-9.29
-12.49
-15.09
-16.85
-17.72
-17.80
-17.24
-16.21
-14.90
-13.51
-12.30
-11.50
-11.36
-11.99
-13.40
-15.43
-17.87
-20.48
-22.99
-25.12
-26.54
-26.94
-26.12
-24.07
-21.02
-17.31
-13.35
-9.42
-5.68
-2.18
1.04
4.00
6.67
9.02
11.11
13.00
14.79
16.52
18.17
19.65
20.88
21.79
22.39
22.76
22.98
23.09
23.08
22.85
22.34
21.57
20.61
19.61
18.68
17.88
17.18
16.54
15.92
15.30
14.65
13.93
13.02
11.83
10.32
8.56
6.72
5.01
3.54
2.31
1.14
-0.16
-1.73
-3.58
-5.61
-7.60
-9.37
-10.77
-11.69
-12.09
-11.96
-11.33
-10.26
-8.88
-7.22
-5.34
-3.25
-1.00
1.31
3.54
5.56
7.33
8.88
10.27
11.48
12.43
12.96
12.97
12.45
11.52
10.33
9.06
7.83
6.75
5.93
5.46
5.37
5.56
5.86
6.02
5.88
5.36
4.51
3.49
2.45
1.51
0.76
0.21
-0.16
-0.44
-0.78
-1.35
-2.23
-3.46
-4.88
-6.26
-7.37
-7.98
-8.02
-7.52
-6.61
-5.44
-4.15
-2.81
-1.47
-0.12
1.25
2.63
3.99
5.24
6.28
6.99
7.34
7.36
7.17
6.87
6.55
6.22
5.82
5.34
4.79
4.29
3.94
3.79
3.82
3.89
3.86
3.66
3.28
2.83
2.45
2.24
2.22
2.27
2.22
1.84
1.03
-0.23
-1.74
-3.27
-4.55
-5.45
-5.99
-6.36
-6.81
-7.58
-8.80
-10.47
-12.48
-14.63
-16.64
-18.24
-19.16
-19.24
-18.51
-17.12
-15.35
-13.44
-11.53
-9.62
-7.63
-5.50
-3.21
-0.83
1.52
3.71
5.67
7.33
8.68
9.68
10.35
10.74
10.97
11.23
11.59
12.06
12.42
12.37
11.61
10.04
7.78
5.14
2.49
0.08
-2.01
-3.91
-5.73
-7.50
-9.08
-10.20
-10.59
-10.08
-8.77
-6.93
-5.03
-3.51
-2.70
-2.71
-3.52
-5.04
-7.18
-9.86
-12.79
-15.46
-17.13
-17.19
-15.37
-11.99
-7.73
-3.28
0.96
4.95
8.83
12.62
16.06
18.71
20.32
21.00
21.28
21.83
22.99
24.59
25.87
25.78
23.31
17.84
9.24
-2.08
-15.15
-28.47
-40.27
-48.88
-53.29
-53.51
-50.40
-45.14
-38.42
-29.95
-18.75
-4.09
13.51
31.97
48.17
59.36
64.48
64.58
62.20
59.91
59.06
59.32
59.25
57.32
52.74
45.82
37.55
29.05
20.98
13.49
6.28
-0.94
-8.23
-15.29
-21.53
-26.25
-28.99
-29.68
-28.79
-27.16
-25.72
-25.13
-25.52
-26.49
-27.38
-27.64
-27.02
-25.70
-24.06
-22.47
-21.10
-19.88
-18.61
-17.13
-15.41
-13.56
-11.75
-10.13
-8.73
-7.48
-6.27
-4.96
-3.49
-1.89
-0.34
0.89
1.55
1.47
0.70
-0.50
-1.75
-2.70
-3.14
-3.04
-2.57
-1.94
-1.34
-0.87
-0.56
-0.41
-0.43
-0.64
-1.05
-1.60
-2.22
-2.80
-3.26
-3.55
-3.68
-3.75
-3.87
-4.15
-4.61
-5.21
-5.80
-6.23
-6.37
-6.16
-5.64
-4.87
-3.93
-2.88
-1.74
-0.57
0.62
1.77
2.84
3.79
4.61
5.34
5.99
6.60
7.18
7.75
8.28
8.76
9.18
9.52
9.73
9.74
9.43
8.65
7.27
5.19
2.45
-0.74
-4.04
-6.96
-9.02
-9.89
-9.50
-8.09
-6.15
-4.28
-2.92
-2.23
-2.06
-2.09
-2.00
-1.67
-1.13
-0.55
-0.03
0.42
0.87
1.35
1.75
1.85
1.42
0.39
-1.08
-2.60
-3.71
-4.09
-3.58
-2.30
-0.50
1.52
3.44
4.98
5.93
6.13
5.58
4.46
3.10
1.85
0.98
0.52
0.25
-0.13
-0.84
-1.84
-2.87
-3.58
-3.77
-3.55
-3.26
-3.35
-4.02
-5.12
-6.26
-6.99
-7.15
-6.90
-6.67
-6.87
-7.67
-8.91
-10.21
-11.15
-11.43
-10.99
-9.90
-8.36
-6.57
-4.74
-3.04
-1.65
-0.69
-0.23
-0.25
-0.61
-1.10
-1.56
-1.89
-2.10
-2.33
-2.74
-3.35
-4.09
-4.74
-5.08
-5.03
-4.66
-4.15
-3.62
-3.12
-2.53
-1.70
-0.56
0.78
2.11
3.19
3.85
4.12
4.14
4.12
4.23
4.54
5.06
5.71
6.46
7.25
8.04
8.71
9.10
9.04
8.42
7.25
5.75
4.22
2.99
2.32
2.24
2.55
2.91
2.92
2.29
1.02
-0.57
-1.99
-2.72
-2.51
-1.49
-0.08
1.16
1.82
1.77
1.14
0.21
-0.84
-1.96
-3.21
-4.64
-6.18
-7.63
-8.74
-9.32
-9.36
-8.92
-8.13
-7.04
-5.71
-4.16
-2.43
-0.60
1.26
3.12
4.96
6.73
8.34
9.62
10.43
10.74
10.62
10.28
9.93
9.68
9.52
9.34
8.99
8.40
7.63
6.83
6.20
5.86
5.82
5.92
5.93
5.61
4.83
3.61
2.18
0.80
-0.22
-0.71
-0.66
-0.23
0.28
0.57
0.42
-0.27
-1.39
-2.78
-4.28
-5.81
-7.32
-8.78
-10.07
-11.00
-11.43
-11.38
-11.04
-10.70
-10.63
-10.88
-11.27
-11.51
-11.33
-10.65
-9.56
-8.29
-7.09
-6.06
-5.20
-4.39
-3.51
-2.49
-1.34
-0.15
0.94
1.81
2.42
2.76
2.88
2.86
2.75
2.64
2.65
2.88
3.41
4.23
5.17
6.03
6.57
6.65
6.23
5.44
4.43
3.42
2.52
1.86
1.44
1.26
1.25
1.31
1.34
1.25
0.96
0.40
-0.42
-1.46
-2.55
-3.50
-4.09
-4.21
-3.90
-3.31
-2.67
-2.13
-1.73
-1.39
-0.95
-0.33
0.48
1.29
1.87
1.97
1.42
0.25
-1.41
-3.29
-5.13
-6.67
-7.75
-8.29
-8.31
-7.92
-7.30
-6.63
-5.99
-5.37
-4.64
-3.66
-2.40
-0.93
0.60
2.01
3.23
4.28
5.21
6.00
6.52
6.59
6.10
5.09
3.80
2.46
1.29
0.30
-0.62
-1.60
-2.69
-3.78
-4.66
-5.10
-5.02
-4.52
-3.84
-3.27
-3.01
-3.13
-3.51
-3.96
-4.31
-4.40
-4.17
-3.64
-2.83
-1.81
-0.68
0.45
1.46
2.24
2.77
3.13
3.42
3.73
4.09
4.41
4.56
4.41
3.87
3.05
2.13
1.36
0.91
0.84
1.03
1.32
1.55
1.66
1.67
1.64
1.60
1.53
1.36
1.08
0.72
0.35
0.04
-0.20
-0.39
-0.57
-0.73
-0.86
-0.94
-1.03
-1.24
-1.65
-2.26
-2.96
-3.58
-3.97
-4.09
-3.98
-3.70
-3.29
-2.75
-2.02
-1.08
0.01
1.18
2.32
3.38
4.38
5.34
6.26
7.07
7.68
8.06
8.22
8.27
8.30
8.41
8.59
8.80
8.97
9.05
9.01
8.87
8.66
8.41
8.16
7.90
7.66
7.42
7.17
6.88
6.57
6.23
5.86
5.44
4.92
4.27
3.48
2.62
1.74
0.92
0.18
-0.50
-1.11
-1.69
-2.25
-2.81
-3.45
-4.20
-5.12
-6.12
-7.10
-7.89
-8.36
-8.48
-8.26
-7.74
-6.98
-5.98
-4.75
-3.35
-1.83
-0.29
1.19
2.54
3.73
4.78
5.70
6.53
7.27
7.90
8.39
8.69
8.78
8.68
8.43
8.11
7.80
7.55
7.36
7.16
6.86
6.38
5.67
4.75
3.70
2.62
1.60
0.69
-0.14
-0.93
-1.70
-2.47
-3.22
-3.92
-4.56
-5.13
-5.67
-6.20
-6.74
-7.25
-7.68
-7.97
-8.14
-8.22
-8.31
-8.49
-8.81
-9.23
-9.63
-9.91
-9.93
-9.65
-9.03
-8.14
-7.04
-5.82
-4.57
-3.35
-2.22
-1.20
-0.31
0.46
1.08
1.56
1.94
2.28
2.67
3.17
3.75
4.35
4.87
5.23
5.38
5.35
5.17
4.92
4.62
4.28
3.83
3.20
2.35
1.34
0.29
-0.64
-1.31
-1.69
-1.88
-2.06
-2.38
-2.89
-3.46
-3.97
-4.28
-4.41
-4.50
-4.70
-5.14
-5.82
-6.64
-7.47
-8.23
-8.89
-9.43
-9.82
-9.98
-9.84
-9.35
-8.57
-7.63
-6.66
-5.76
-4.90
-4.00
-2.93
-1.66
-0.25
1.19
2.53
3.72
4.78
5.76
6.66
7.42
7.93
8.10
7.96
7.61
7.25
7.03
7.01
7.11
7.22
7.22
7.09
6.86
6.59
6.34
6.13
5.92
5.66
5.31
4.86
4.29
3.65
2.98
2.32
1.68
1.08
0.49
-0.09
-0.70
-1.34
-1.95
-2.51
-3.00
-3.46
-3.95
-4.57
-5.36
-6.26
-7.14
-7.78
-7.99
-7.68
-6.87
-5.69
-4.38
-3.15
-2.16
-1.45
-0.92
-0.42
0.23
1.09
2.14
3.25
4.31
5.25
6.06
6.78
7.39
7.87
8.13
8.17
8.02
7.75
7.43
7.12
6.81
6.49
6.15
5.79
5.40
4.93
4.32
3.55
2.65
1.71
0.82
0.01
-0.72
-1.47
-2.30
-3.23
-4.23
-5.22
-6.14
-7.01
-7.90
-8.90
-10.04
-11.26
-12.41
-13.34
-13.96
-14.24
-14.24
-14.01
-13.59
-12.96
-12.06
-10.85
-9.30
-7.46
-5.47
-3.49
-1.68
-0.17
1.01
1.93
2.67
3.29
3.79
4.15
4.32
4.37
4.44
4.70
5.27
6.14
7.17
8.13
8.84
9.18
9.14
8.82
8.35
7.86
7.43
7.06
6.68
6.16
5.32
4.03
2.26
0.19
-1.86
-3.51
-4.49
-4.77
-4.60
-4.34
-4.32
-4.66
-5.20
-5.70
-5.96
-5.98
-5.96
-6.18
-6.86
-8.01
-9.47
-10.96
-12.18
-12.92
-13.09
-12.72
-11.88
-10.70
-9.27
-7.70
-6.10
-4.61
-3.32
-2.32
-1.55
-0.87
-0.09
0.94
2.20
3.52
4.68
5.50
5.94
6.11
6.15
6.16
6.21
6.28
6.32
6.34
6.33
6.28
6.16
5.95
5.62
5.21
4.76
4.34
3.94
3.54
3.11
2.66
2.20
1.76
1.36
1.02
0.70
0.36
-0.04
-0.50
-1.07
-1.79
-2.65
-3.55
-4.32
-4.79
-4.92
-4.78
-4.48
-4.25
-4.23
-4.44
-4.64
-4.44
-3.49
-1.69
0.83
3.76
6.54
8.66
10.03
11.24
13.51
18.13
25.86
36.63
49.56
62.80
74.06
81.29
83.35
80.26
72.91
62.58
50.73
38.78
27.48
16.94
6.75
-3.70
-15.35
-29.72
-48.85
-74.55
-103.71
-130.08
-146.48
-149.10
-139.01
-120.45
-98.27
-76.57
-57.96
-43.42
-33.14
-26.68
-23.33
-21.97
-21.19
-19.88
-17.58
-14.31
-10.49
-7.45
-7.11
-11.20
-19.44
-29.29
-35.29
-31.78
-15.21
13.79
49.80
84.58
109.20
118.93
115.03
102.88
88.52
76.08
66.89
60.31
55.56
52.49
51.46
52.03
52.22
49.13
40.62
26.93
9.96
-6.63
-19.30
-25.94
-26.75
-23.77
-19.78
-17.09
-16.76
-18.65
-21.71
-24.63
-26.27
-26.06
-24.13
-21.14
-18.00
-15.32
-13.28
-11.57
-9.75
-7.46
-4.75
-1.92
0.63
2.58
3.59
3.31
1.36
-2.50
-7.87
-13.78
-18.81
-21.47
-20.85
-16.98
-10.88
-4.06
2.01
6.39
8.72
9.10
7.81
5.19
1.64
-2.23
-5.67
-7.87
-8.32
-7.00
-4.42
-1.42
1.14
2.61
2.79
1.94
0.70
-0.15
0.05
1.61
4.38
7.86
11.41
14.47
16.74
18.15
18.88
19.25
19.67
20.57
22.19
24.40
26.68
28.21
28.22
26.29
22.61
17.86
12.90
8.41
4.60
1.19
-2.42
-6.82
-12.34
-18.89
-25.97
-32.84
-38.82
-43.50
-46.78
-48.92
-50.25
-50.99
-51.15
-50.56
-48.98
-46.32
-42.60
-38.00
-32.74
-27.03
-21.10
-15.28
-9.97
-5.63
-2.61
-0.95
-0.34
-0.19
0.15
1.09
2.63
4.35
5.73
6.39
6.37
6.15
6.31
7.23
8.87
10.77
12.30
13.05
12.99
12.49
12.03
11.89
11.94
11.74
10.81
9.01
6.58
4.10
2.13
0.94
0.36
-0.07
-0.86
-2.22
-4.03
-5.84
-7.22
-7.89
-7.92
-7.60
-7.33
-7.36
-7.75
-8.26
-8.57
-8.33
-7.38
-5.76
-3.65
-1.30
1.06
3.33
5.43
7.32
8.93
10.21
11.12
11.65
11.87
11.84
11.62
11.26
10.80
10.34
9.97
9.77
9.73
9.78
9.79
9.71
9.54
9.34
9.15
8.97
8.73
8.34
7.77
7.00
6.09
5.11
4.11
3.21
2.45
1.92
1.59
1.37
1.10
0.67
0.03
-0.79
-1.69
-2.62
-3.59
-4.63
-5.76
-6.85
-7.68
-8.01
-7.68
-6.74
-5.48
-4.23
-3.32
-2.86
-2.73
-2.67
-2.38
-1.62
-0.33
1.35
3.12
4.64
5.62
5.90
5.49
4.59
3.50
2.52
1.89
1.71
1.98
2.57
3.30
3.99
4.50
4.75
4.71
4.38
3.72
2.69
1.24
-0.61
-2.72
-4.82
-6.68
-8.08
-8.94
-9.33
-9.39
-9.31
-9.25
-9.36
-9.74
-10.47
-11.54
-12.79
-13.90
-14.56
-14.55
-13.93
-13.00
-12.20
-11.82
-11.85
-11.93
-11.54
-10.28
-8.14
-5.51
-2.99
-1.01
0.35
1.35
2.37
3.59
4.89
5.89
6.29
6.20
6.12
6.75
8.59
11.61
15.14
18.23
20.04
20.27
19.29
17.86
16.73
16.24
16.23
16.20
15.74
14.74
13.42
12.06
10.75
9.33
7.54
5.31
2.91
0.78
-0.70
-1.57
-2.24
-3.32
-5.18
-7.78
-10.73
-13.54
-15.90
-17.82
-19.47
-20.98
-22.27
-23.01
-22.84
-21.57
-19.32
-16.48
-13.60
-11.12
-9.20
-7.71
-6.30
-4.65
-2.62
-0.38
1.72
3.33
4.26
4.60
4.69
4.93
5.65
6.93
8.60
10.31
11.72
12.62
12.99
12.98
12.82
12.70
12.70
12.75
12.72
12.48
11.97
11.20
10.25
9.26
8.32
7.51
6.88
6.42
6.15
6.08
6.23
6.60
7.08
7.44
7.38
6.60
4.93
2.46
-0.45
-3.23
-5.29
-6.25
-6.04
-4.97
-3.58
-2.32
-1.36
-0.47
0.84
3.07
6.42
10.67
15.28
19.70
23.68
27.37
31.26
35.89
41.52
48.01
54.89
61.61
67.80
73.47
78.94
84.61
90.76
97.39
104.21
110.80
116.77
121.92
126.35
130.42
134.73
139.83
145.96
152.77
159.07
162.89
161.70
152.84
134.12
104.45
64.41
16.62
-34.43
-83.18
-124.41
-154.80
-173.82
-183.59
-187.69
-189.52
-191.02
-192.25
-192.06
-189.20
-183.19
-174.56
-164.54
-154.35
-144.79
-136.10
-128.14
-120.49
-112.60
-103.90
-94.07
-83.30
-72.50
-62.94
-55.69
-51.02
-48.02
-44.85
-39.49
-30.54
-17.77
-2.31
13.24
24.92
28.17
19.34
-2.22
-32.37
-62.26
-81.10
-80.61
-59.19
-23.12
15.92
46.10
60.45
59.15
48.02
34.51
23.78
16.99
12.30
7.28
1.10
-5.07
-9.10
-9.50
-6.53
-1.96
1.99
3.90
3.71
2.49
1.58
1.63
2.30
2.49
1.10
-2.37
-7.55
-13.31
-18.30
-21.30
-21.69
-19.50
-15.35
-10.16
-4.78
0.37
5.58
11.60
19.22
28.76
39.70
50.74
60.15
66.32
68.23
65.76
59.68
51.46
42.76
35.00
29.01
24.96
22.57
21.41
21.10
21.40
22.15
23.15
24.18
25.06
25.73
26.21
26.43
26.25
25.33
23.41
20.50
16.97
13.39
10.33
8.06
6.48
5.30
4.19
2.98
1.75
0.68
-0.03
-0.37
-0.45
-0.49
-0.67
-0.99
-1.29
-1.27
-0.68
0.61
2.46
4.60
6.70
8.58
10.19
11.65
13.11
14.64
16.14
17.38
18.12
18.24
17.82
17.10
16.42
16.00
15.82
15.69
15.30
14.49
13.33
12.09
11.18
10.83
11.03
11.45
11.65
11.23
10.08
8.33
6.31
4.36
2.71
1.41
0.36
-0.56
-1.47
-2.40
-3.30
-4.14
-4.85
-5.43
-5.94
-6.52
-7.33
-8.47
-9.94
-11.60
-13.19
-14.36
-14.80
-14.31
-12.91
-10.86
-8.61
-6.62
-5.25
-4.60
-4.43
-4.33
-3.86
-2.72
-0.90
1.37
3.74
5.84
7.39
8.19
8.15
7.35
5.99
4.43
3.03
2.04
1.53
1.36
1.29
1.07
0.57
-0.29
-1.46
-2.85
-4.27
-5.48
-6.24
-6.46
-6.25
-5.91
-5.79
-6.09
-6.76
-7.54
-8.13
-8.40
-8.47
-8.62
-9.07
-9.89
-10.93
-11.98
-12.87
-13.57
-14.11
-14.48
-14.63
-14.43
-13.86
-12.98
-11.95
-10.90
-9.86
-8.78
-7.54
-6.11
-4.54
-2.93
-1.35
0.20
1.78
3.36
4.85
6.10
6.95
7.40
7.57
7.72
8.09
8.79
9.79
10.94
12.07
13.08
13.91
14.59
15.18
15.86
16.92
18.75
21.69
25.85
30.95
36.37
41.29
45.05
47.36
48.38
48.55
48.30
47.83
47.01
45.48
42.86
38.93
33.78
27.75
21.39
15.26
9.89
5.65
2.84
1.56
1.80
3.36
5.96
9.25
12.97
16.90
20.88
24.62
27.70
29.66
30.24
29.60
28.50
28.05
29.30
32.67
37.60
42.68
46.05
46.18
42.40
35.10
25.43
14.77
4.22
-5.65
-14.68
-22.79
-29.68
-34.85
-37.85
-38.69
-37.96
-36.75
-36.27
-37.44
-40.70
-46.05
-53.17
-61.60
-70.79
-80.11
-88.88
-96.48
-102.52
-106.88
-109.62
-110.78
-110.28
-107.96
-103.76
-97.96
-91.18
-84.16
-77.42
-71.07
-64.86
-58.50
-51.93
-45.48
-39.61
-34.67
-30.70
-27.53
-25.00
-23.22
-22.56
-23.38
-25.73
-29.29
-33.52
-37.98
-42.50
-47.16
-51.98
-56.63
-60.33
-62.27
-62.19
-60.73
-59.20
-58.86
-60.21
-62.72
-65.12
-66.03
-64.63
-60.92
-55.55
-49.33
-42.67
-35.75
-28.71
-21.69
-14.73
-7.52
0.42
9.57
20.01
31.91
44.76
57.45
68.58
77.12
82.66
85.40
85.93
85.03
84.62
85.84
88.35
90.55
90.75
88.31
83.90
79.10
75.65
76.63
83.22
94.17
106.48
117.72
127.46
137.10
148.58
163.21
183.44
209.35
238.12
264.53
283.33
290.76
284.72
264.62
217.20
140.96
48.30
-39.81
-107.30
-149.82
-172.41
-183.45
-190.08
-195.76
-197.38
-191.84
-176.21
-151.16
-119.76
-85.75
-52.31
-21.81
1.78
16.25
19.92
11.99
-6.60
-31.25
-54.08
-66.89
-65.38
-51.65
-31.78
-14.11
-5.38
-8.40
-20.61
-37.48
-54.14
-67.14
-74.95
-76.49
-71.43
-60.25
-44.59
-27.08
-10.94
1.02
7.17
7.41
3.55
-1.91
-6.85
-10.28
-12.54
-14.61
-17.34
-21.05
-25.33
-29.15
-31.38
-31.29
-28.88
-24.76
-19.92
-15.30
-11.60
-9.22
-8.24
-8.53
-9.75
-11.43
-13.06
-14.15
-14.36
-13.53
-11.72
-9.08
-5.86
-2.30
1.41
5.06
8.46
11.45
13.93
15.90
17.46
18.76
19.98
21.19
22.39
23.49
24.36
24.92
25.13
25.05
24.71
24.16
23.40
22.43
21.28
20.00
18.69
17.44
16.30
15.25
14.22
13.13
11.89
10.49
8.98
7.46
6.08
4.94
4.06
3.36
2.67
1.77
0.52
-1.07
-2.80
-4.37
-5.47
-5.92
-5.78
-5.30
-4.82
-4.55
-4.53
-4.60
-4.49
-4.02
-3.14
-1.97
-0.69
0.58
1.80
3.01
4.31
5.71
7.15
8.52
9.65
10.43
10.80
10.81
10.56
10.21
9.88
9.59
9.27
8.79
8.05
7.09
6.03
5.05
4.27
3.72
3.32
2.96
2.53
2.01
1.40
0.72
0.03
-0.64
-1.26
-1.83
-2.42
-3.09
-3.92
-4.89
-5.86
-6.67
-7.19
-7.44
-7.56
-7.80
-8.30
-9.04
-9.87
-10.54
-10.87
-10.79
-10.39
-9.83
-9.19
-8.50
-7.67
-6.58
-5.16
-3.46
-1.68
-0.03
1.26
2.13
2.63
2.92
3.16
3.42
3.66
3.79
3.75
3.53
3.18
2.77
2.34
1.95
1.64
1.43
1.31
1.27
1.23
1.14
0.98
0.80
0.66
0.59
0.59
0.56
0.43
0.12
-0.39
-1.09
-1.94
-2.86
-3.79
-4.67
-5.48
-6.24
-7.05
-7.92
-8.81
-9.57
-10.00
-9.95
-9.33
-8.20
-6.67
-4.87
-2.92
-0.94
0.94
2.59
3.93
4.95
5.72
6.36
6.94
7.50
7.96
8.25
8.29
8.11
7.79
7.42
7.07
6.76
6.46
6.13
5.81
5.54
5.34
5.19
5.01
4.68
4.12
3.37
2.52
1.73
1.10
0.64
0.25
-0.18
-0.73
-1.39
-2.06
-2.64
-3.08
-3.42
-3.79
-4.27
-4.90
-5.61
-6.25
-6.67
-6.77
-6.51
-5.93
-5.09
-4.04
-2.82
-1.45
0.04
1.66
3.42
5.33
7.36
9.41
11.35
12.97
14.12
14.75
14.96
14.91
14.77
14.63
14.46
14.22
13.86
13.42
12.95
12.51
12.08
11.61
11.04
10.32
9.48
8.56
7.60
6.67
5.81
5.04
4.34
3.61
2.66
1.37
-0.26
-2.04
-3.64
-4.71
-5.03
-4.68
-3.92
-3.16
-2.76
-2.92
-3.61
-4.60
-5.51
-5.93
-5.60
-4.47
-2.72
-0.72
1.16
2.70
3.95
5.25
7.06
9.80
13.67
18.59
24.28
30.34
36.43
42.31
47.85
53.05
57.96
62.68
67.21
71.40
74.91
77.24
77.88
76.54
73.37
68.96
64.16
59.83
56.51
54.19
52.36
50.13
46.57
41.03
33.29
23.63
12.63
1.05
-10.34
-20.92
-30.21
-37.87
-43.73
-47.76
-50.08
-51.02
-51.03
-50.61
-50.25
-50.37
-51.23
-52.96
-55.56
-58.89
-62.72
-66.74
-70.65
-74.15
-77.04
-79.23
-80.76
-81.71
-82.15
-82.09
-81.43
-79.98
-77.60
-74.17
-69.73
-64.39
-58.31
-51.68
-44.66
-37.50
-30.54
-24.16
-18.69
-14.25
-10.68
-7.60
-4.58
-1.27
2.45
6.46
10.59
14.69
18.68
22.60
26.41
30.04
33.36
36.25
38.68
40.71
42.44
43.96
45.35
46.68
47.96
49.23
50.52
51.78
52.82
53.24
52.47
49.97
45.39
38.69
30.04
19.66
7.59
-6.30
-22.16
-39.88
-58.85
-77.97
-95.87
-111.21
-122.94
-130.35
-133.07
-131.10
-124.86
-115.26
-103.65
-91.54
-80.32
-70.92
-63.77
-58.84
-55.71
-53.62
-51.35
-47.29
-39.81
-27.86
-11.54
7.75
27.68
45.90
60.87
72.21
80.48
86.40
90.34
92.10
91.29
87.82
82.26
75.63
68.95
62.78
57.09
51.55
45.85
40.05
34.54
29.84
26.30
23.98
22.62
21.82
21.10
19.97
17.99
14.88
10.62
5.50
0.10
-4.94
-9.11
-12.15
-14.06
-14.93
-14.82
-13.69
-11.50
-8.22
-4.02
0.81
5.87
10.78
15.29
19.23
22.54
25.21
27.30
28.87
30.03
30.88
31.44
31.67
31.38
30.31
28.13
24.52
19.25
12.24
3.61
-6.27
-16.78
-27.02
-35.99
-42.76
-46.69
-47.67
-46.10
-42.83
-38.89
-35.21
-32.41
-30.62
-29.57
-28.62
-27.05
-24.26
-19.99
-14.46
-8.20
-1.99
3.48
7.72
10.58
12.19
12.94
13.37
14.02
15.34
17.47
20.23
23.15
25.68
27.43
28.28
28.32
27.68
26.36
24.16
20.91
16.60
11.49
6.00
0.57
-4.40
-8.59
-11.66
-13.29
-13.30
-11.85
-9.49
-6.93
-4.83
-3.52
-3.02
-3.19
-3.95
-5.26
-7.00
-8.86
-10.24
-10.55
-9.46
-7.21
-4.47
-2.09
-0.67
-0.39
-1.02
-2.16
-3.46
-4.69
-5.70
-6.33
-6.37
-5.65
-4.09
-1.85
0.70
3.08
4.88
5.86
6.03
5.58
4.79
3.94
3.21
2.67
2.32
2.02
1.62
0.93
-0.16
-1.59
-3.12
-4.35
-4.88
-4.47
-3.15
-1.34
0.38
1.42
1.46
0.56
-0.84
-2.13
-2.80
-2.62
-1.82
-0.92
-0.54
-1.07
-2.51
-4.41
-6.13
-7.20
-7.49
-7.29
-7.10
-7.30
-7.95
-8.76
-9.31
-9.35
-8.91
-8.27
-7.76
-7.53
-7.49
-7.43
-7.12
-6.56
-5.87
-5.30
-5.02
-5.03
-5.17
-5.22
-4.91
-4.06
-2.59
-0.51
2.01
4.67
7.09
8.89
9.85
9.97
9.41
8.44
7.27
6.06
4.90
3.88
3.11
2.69
2.63
2.80
2.92
2.73
2.06
0.95
-0.38
-1.71
-2.92
-4.10
-5.45
-7.13
-9.15
-11.28
-13.17
-14.52
-15.24
-15.47
-15.50
-15.57
-15.70
-15.76
-15.56
-14.95
-13.98
-12.74
-11.35
-9.80
-8.03
-5.99
-3.71
-1.30
1.07
3.26
5.21
6.88
8.24
9.22
9.74
9.80
9.49
8.98
8.50
8.24
8.28
8.55
8.90
9.10
8.96
8.43
7.57
6.56
5.59
4.78
4.13
3.55
2.97
2.36
1.75
1.15
0.57
-0.05
-0.77
-1.61
-2.56
-3.59
-4.72
-5.94
-7.24
-8.50
-9.53
-10.11
-10.14
-9.68
-8.93
-8.11
-7.35
-6.67
-5.96
-5.13
-4.12
-2.97
-1.69
-0.34
1.10
2.60
4.06
5.39
6.49
7.29
7.81
8.12
8.29
8.40
8.50
8.59
8.67
8.74
8.80
8.83
8.84
8.81
8.75
8.65
8.51
8.32
8.05
7.67
7.16
6.53
5.82
5.15
4.56
4.07
3.58
2.92
1.99
0.76
-0.59
-1.82
-2.65
-3.01
-3.00
-2.94
-3.18
-3.92
-5.13
-6.56
-7.80
-8.52
-8.50
-7.76
-6.45
-4.83
-3.11
-1.44
0.10
1.55
2.90
4.16
5.24
6.04
6.46
6.52
6.34
6.10
5.98
5.97
5.93
5.67
5.09
4.29
3.51
3.02
2.92
3.10
3.32
3.35
3.11
2.69
2.25
1.87
1.55
1.20
0.73
0.16
-0.40
-0.83
-1.06
-1.10
-1.03
-0.93
-0.85
-0.82
-0.90
-1.15
-1.64
-2.37
-3.26
-4.14
-4.77
-4.98
-4.67
-3.87
-2.73
-1.45
-0.18
1.01
2.14
3.25
4.37
5.51
6.62
7.68
8.65
9.49
10.15
10.53
10.59
10.33
9.86
9.40
9.10
9.00
8.93
8.60
7.81
6.55
5.12
3.96
3.45
3.75
4.65
5.72
6.49
6.71
6.40
5.89
5.57
5.68
6.24
7.06
7.93
8.80
9.73
10.89
12.28
13.62
14.42
14.19
12.77
10.47
7.97
5.95
4.75
4.24
3.87
3.11
1.71
-0.22
-2.30
-4.18
-5.68
-6.78
-7.48
-7.62
-6.92
-5.15
-2.50
0.34
2.27
2.34
0.20
-3.54
-7.53
-10.29
-10.94
-9.67
-7.66
-6.43
-7.06
-9.57
-12.95
-15.74
-16.86
-16.21
-14.71
-13.81
-14.67
-17.55
-21.64
-25.40
-27.24
-26.10
-21.72
-14.50
-5.40
4.12
11.91
15.25
11.70
0.31
-17.14
-36.02
-50.30
-55.02
-48.50
-33.26
-14.71
1.37
11.33
14.72
13.59
10.77
8.22
6.49
5.16
3.83
2.72
2.57
4.16
7.62
12.20
16.57
19.34
19.63
17.44
13.64
9.51
6.32
4.80
4.90
5.94
6.95
7.15
6.27
4.62
2.84
1.49
0.74
0.38
-0.05
-0.95
-2.42
-4.24
-6.01
-7.33
-8.01
-8.04
-7.64
-7.06
-6.58
-6.45
-6.80
-7.68
-9.02
-10.62
-12.26
-13.68
-14.64
-14.99
-14.73
-13.92
-12.74
-11.36
-9.89
-8.34
-6.61
-4.61
-2.26
0.37
3.09
5.58
7.50
8.54
8.57
7.68
6.22
4.72
3.71
3.53
4.21
5.46
6.81
7.85
8.36
8.37
8.08
7.72
7.42
7.19
6.94
6.61
6.19
5.79
5.52
5.45
5.54
5.61
5.44
4.81
3.72
2.32
0.94
-0.13
-0.74
-0.96
-1.05
-1.35
-2.05
-3.18
-4.61
-6.15
-7.66
-9.03
-10.13
-10.80
-10.82
-10.02
-8.40
-6.15
-3.62
-1.20
0.87
2.47
3.67
4.59
5.34
6.00
6.60
7.16
7.66
8.08
8.33
8.33
8.04
7.50
6.85
6.34
6.17
6.44
7.05
7.71
8.03
7.70
6.52
4.58
2.20
-0.16
-2.00
-2.98
-3.02
-2.35
-1.41
-0.71
-0.66
-1.43
-2.88
-4.64
-6.24
-7.29
-7.61
-7.24
-6.47
-5.69
-5.27
-5.37
-5.90
-6.51
-6.74
-6.24
-4.90
-2.91
-0.68
1.38
3.03
4.28
5.26
6.17
7.06
7.84
8.41
8.74
8.97
9.30
9.86
10.59
11.25
11.57
11.40
10.82
10.08
9.46
9.10
8.95
8.82
8.48
7.82
6.85
5.62
4.26
2.89
1.65
0.71
0.21
0.15
0.39
0.65
0.59
-0.04
-1.26
-2.82
-4.31
-5.25
-5.33
-4.48
-2.96
-1.29
-0.04
0.32
-0.30
-1.59
-2.92
-3.65
-3.41
-2.30
-0.86
0.19
0.35
-0.46
-1.79
-2.95
-3.37
-2.92
-1.94
-1.10
-0.98
-1.77
-3.24
-4.77
-5.78
-5.98
-5.50
-4.85
-4.56
-4.96
-6.01
-7.42
-8.82
-10.00
-10.92
-11.72
-12.49
-13.27
-13.99
-14.60
-15.10
-15.55
-15.99
-16.40
-16.67
-16.70
-16.44
-15.97
-15.43
-14.98
-14.75
-14.76
-14.93
-15.04
-14.80
-13.94
-12.30
-9.97
-7.26
-4.58
-2.22
-0.17
1.90
4.45
7.87
12.25
17.35
22.73
27.94
32.61
36.45
39.20
40.63
40.67
39.46
37.41
35.11
33.08
31.57
30.61
30.00
29.57
29.23
28.97
28.77
28.51
27.95
26.91
25.29
23.17
20.77
18.38
16.31
14.78
13.85
13.32
12.74
11.54
9.24
5.77
1.59
-2.40
-5.24
-6.34
-5.68
-3.86
-1.74
-0.04
0.90
1.12
0.91
0.54
0.12
-0.34
-0.85
-1.31
-1.55
-1.39
-0.72
0.46
1.99
3.62
5.09
6.15
6.71
6.87
6.88
7.00
7.34
7.77
7.88
7.26
5.63
3.07
-0.02
-3.06
-5.51
-7.07
-7.77
-7.88
-7.78
-7.86
-8.39
-9.50
-11.13
-13.06
-14.95
-16.45
-17.27
-17.34
-16.82
-16.07
-15.47
-15.31
-15.66
-16.41
-17.33
-18.21
-18.87
-19.25
-19.33
-19.05
-18.37
-17.27
-15.78
-14.01
-12.10
-10.20
-8.45
-6.87
-5.42
-3.95
-2.29
-0.37
1.79
3.98
5.95
7.44
8.33
8.64
8.51
8.13
7.64
7.10
6.43
5.50
4.21
2.57
0.79
-0.76
-1.57
-1.23
0.42
3.12
6.24
8.96
10.58
10.73
9.56
7.61
5.55
3.96
3.07
2.69
2.31
1.35
-0.61
-3.62
-7.28
-10.92
-13.88
-15.70
-16.32
-16.02
-15.21
-14.23
-13.12
-11.71
-9.76
-7.15
-4.10
-1.08
1.26
2.25
1.39
-1.58
-6.56
-13.13
-20.54
-27.92
-34.48
-39.70
-43.35
-45.40
-45.85
-44.61
-41.43
-36.13
-28.73
-19.62
-9.53
0.68
10.22
18.53
25.39
30.76
34.74
37.45
38.93
39.18
38.24
36.20
33.31
29.86
26.17
22.51
19.07
16.02
13.47
11.44
9.81
8.35
6.79
5.00
3.14
1.58
0.82
1.14
2.38
3.85
4.54
3.40
-0.20
-6.15
-13.59
-21.02
-26.71
-29.32
-28.29
-24.11
-18.16
-12.14
-7.40
-4.50
-3.09
-2.30
-1.30
0.21
1.94
3.29
3.82
3.58
3.10
3.01
3.68
4.94
6.21
6.84
6.46
5.21
3.59
2.16
1.30
1.04
1.15
1.31
1.33
1.19
1.03
0.94
0.94
0.90
0.64
0.01
-1.05
-2.45
-4.00
-5.48
-6.56
-6.96
-6.50
-5.18
-3.26
-1.19
0.58
1.77
2.37
2.65
2.94
3.49
4.31
5.24
6.06
6.62
6.88
6.92
6.82
6.65
6.44
6.20
5.96
5.77
5.61
5.46
5.25
4.93
4.50
3.97
3.39
2.77
2.14
1.50
0.90
0.33
-0.30
-1.16
-2.46
-4.28
-6.47
-8.62
-10.22
-10.83
-10.29
-8.83
-6.93
-5.18
-4.03
-3.64
-3.94
-4.65
-5.46
-6.11
-6.47
-6.51
-6.27
-5.75
-4.96
-3.90
-2.62
-1.24
0.08
1.25
2.29
3.39
4.83
6.80
9.25
11.82
13.97
15.22
15.37
14.63
13.58
12.91
13.03
13.89
14.99
15.65
15.35
13.99
11.91
9.76
8.18
7.48
7.53
7.81
7.68
6.69
4.69
1.95
-0.90
-3.11
-4.14
-3.94
-2.99
-2.02
-1.82
-2.97
-5.49
-8.59
-10.98
-11.58
-10.11
-7.28
-4.50
-3.15
-4.30
-7.84
-12.21
-15.00
-14.33
-9.79
-2.40
5.88
13.00
16.62
15.12
8.70
-0.18
-7.16
-7.01
4.94
30.57
67.18
106.37
136.83
148.90
138.01
105.57
57.52
1.58
-54.66
-100.30
-127.15
-134.64
-128.05
-113.12
-93.24
-70.67
-47.85
-27.79
-13.20
-5.90
-5.53
-8.83
-11.36
-9.53
-2.59
7.66
18.04
25.17
26.51
20.77
10.15
-1.45
-9.42
-10.21
-1.53
16.60
41.01
66.29
86.26
96.27
94.44
82.26
62.33
37.49
9.43
-21.82
-55.63
-90.31
-123.37
-153.20
-174.39
-186.27
-191.53
-194.60
-199.68
-206.54
-211.01
-207.09
-189.85
-156.84
-110.80
-58.20
-2.98
44.53
75.22
86.76
84.86
82.11
88.06
105.93
134.02
167.26
195.14
209.54
204.96
179.56
129.01
62.05
-1.52
-41.30
-49.59
-34.61
-11.77
4.88
8.33
-0.87
-15.09
-29.70
-43.03
-54.81
-64.90
-71.27
-71.44
-63.76
-48.07
-23.85
8.01
46.52
90.69
137.59
181.48
214.01
227.06
216.59
185.39
140.93
92.77
48.78
13.10
-13.11
-29.94
-37.19
-34.34
-21.39
-2.33
15.67
25.95
25.65
15.72
-0.86
-20.49
-39.39
-54.31
-63.73
-66.98
-64.37
-57.60
-49.36
-42.45
-38.68
-39.20
-42.80
-48.38
-54.39
-59.22
-62.10
-63.30
-63.66
-63.87
-63.74
-59.80
-51.58
-39.75
-26.38
-14.56
-7.21
-5.35
-7.41
-10.00
-9.86
-5.98
0.84
8.91
16.87
24.42
32.28
41.21
50.96
59.80
65.32
65.33
59.57
50.04
40.04
32.69
29.51
29.86
31.56
32.32
31.18
29.29
28.69
30.48
33.69
35.74
34.15
27.88
18.07
7.04
-2.13
-7.03
-7.46
-5.37
-3.86
-4.49
-8.55
-16.36
-28.22
-42.69
-57.01
-68.54
-75.76
-78.49
-77.84
-76.27
-76.78
-82.88
-95.00
-109.91
-122.44
-127.21
-120.10
-99.26
-65.85
-17.68
36.38
82.22
110.97
122.60
121.75
112.96
99.08
81.41
60.65
36.58
10.86
-13.04
-31.68
-42.70
-45.32
-40.47
-30.82
-19.93
-11.69
-7.89
-6.41
-4.98
-2.53
0.55
3.22
4.50
4.22
2.61
0.87
0.61
2.35
5.49
8.77
10.97
11.29
9.55
5.93
1.49
-2.03
-3.29
-1.54
2.95
9.01
15.06
19.70
22.23
22.96
22.95
23.16
24.14
25.88
28.03
30.27
32.39
34.27
35.70
36.31
35.60
33.26
29.33
24.21
18.70
13.61
9.61
7.00
5.61
4.86
4.02
2.41
-0.31
-3.99
-8.11
-11.95
-14.93
-16.79
-17.63
-17.76
-17.59
-17.52
-17.88
-19.00
-20.96
-23.58
-26.27
-28.18
-28.54
-26.98
-23.78
-19.70
-15.70
-12.53
-10.48
-9.35
-8.60
-7.67
-6.13
-3.82
-0.81
2.65
6.23
9.59
12.42
14.47
15.57
15.72
15.02
13.68
11.95
10.00
7.87
5.43
2.54
-0.82
-4.38
-7.66
-10.07
-11.21
-11.00
-9.74
-7.98
-6.31
-5.17
-4.71
-4.76
-4.90
-4.59
-3.36
-0.94
2.62
6.96
11.45
15.38
18.12
19.35
19.04
17.46
15.00
12.05
8.87
5.71
2.88
0.78
-0.12
0.48
2.53
5.50
8.52
10.64
11.22
10.10
7.60
4.38
1.12
-1.61
-3.46
-4.24
-3.89
-2.47
-0.14
2.76
5.75
8.34
10.16
11.07
11.16
10.67
9.82
8.73
7.43
5.90
4.19
2.35
0.44
-1.60
-3.92
-6.77
-10.41
-15.06
-20.68
-26.98
-33.35
-39.01
-43.16
-45.19
-45.01
-43.33
-41.45
-40.74
-41.94
-44.74
-47.88
-49.57
-48.21
-43.17
-35.20
-26.15
-18.01
-12.04
-8.28
-5.67
-2.55
2.74
10.98
21.49
32.35
41.14
45.95
46.00
41.73
34.01
24.47
15.94
11.12
10.65
12.84
14.94
14.56
10.42
2.77
-6.20
-12.47
-11.23
1.08
24.53
54.21
81.21
95.89
92.48
72.08
42.07
12.36
-9.42
-20.81
-24.23
-24.14
-23.85
-23.78
-22.17
-17.40
-9.84
-2.06
2.82
3.03
-0.87
-6.42
-10.51
-10.89
-7.29
-1.31
4.42
7.66
7.57
4.97
1.70
-0.28
0.06
2.42
5.39
7.21
6.55
2.99
-2.74
-9.50
-16.24
-22.36
-27.83
-32.81
-37.51
-42.17
-47.12
-52.71
-58.84
-64.32
-66.73
-63.19
-51.85
-33.56
-12.09
7.47
21.26
28.54
31.81
34.78
39.58
45.57
49.54
48.36
41.46
31.37
22.16
16.71
14.99
14.37
12.70
9.74
7.86
10.44
19.24
32.45
44.98
50.81
46.09
31.94
12.78
-6.21
-21.96
-34.72
-47.11
-61.89
-80.16
-101.18
-118.41
-126.60
-123.33
-109.40
-87.74
-61.37
-32.26
0.13
30.79
53.87
66.31
68.47
62.82
52.50
40.97
30.88
23.64
19.30
17.98
20.26
25.18
31.91
39.41
46.56
51.83
53.79
51.76
46.49
39.33
31.67
25.04
18.76
13.47
10.34
9.13
11.11
17.30
26.51
35.24
40.06
39.18
33.23
24.65
15.88
8.26
1.32
-6.35
-17.21
-32.08
-50.16
-69.47
-87.38
-101.39
-109.80
-112.36
-110.18
-105.23
-99.23
-91.00
-80.32
-66.38
-47.92
-24.13
3.89
32.92
58.65
77.70
89.09
94.27
96.34
97.83
99.08
97.86
91.02
76.72
55.95
32.30
10.14
-7.04
-18.21
-24.75
-29.35
-34.14
-39.60
-44.44
-46.73
-45.29
-40.20
-32.59
-24.04
-15.73
-8.11
-1.08
5.49
11.35
15.73
17.67
16.23
10.66
0.67
-13.18
-29.10
-44.18
-55.05
-59.21
-56.08
-47.42
-36.52
-26.68
-19.78
-15.79
-13.39
-11.03
-7.75
-3.39
1.93
8.27
15.99
25.13
34.81
43.08
47.54
46.49
39.68
28.56
15.45
2.50
-9.04
-18.88
-27.15
-33.75
-38.12
-39.71
-38.55
-35.61
-32.44
-30.37
-29.72
-29.71
-29.02
-26.65
-22.53
-17.26
-11.63
-6.05
-0.62
4.56
9.01
11.93
12.69
11.42
9.03
6.86
5.85
6.12
7.11
8.18
9.10
10.13
11.56
13.16
14.19
13.75
11.54
8.19
5.13
3.72
4.65
7.40
10.69
13.11
14.03
13.87
14.01
16.10
21.27
29.74
40.63
52.35
63.13
71.63
77.29
80.44
82.01
83.04
84.22
85.49
86.12
84.99
81.25
74.73
66.12
56.68
47.62
39.74
33.33
28.55
25.80
25.77
29.04
35.44
43.81
52.17
58.49
61.40
60.56
56.46
50.04
42.55
35.63
31.61
33.26
42.83
60.49
83.34
105.56
120.02
120.89
105.54
75.10
33.33
-14.96
-65.08
-112.48
-152.24
-178.84
-187.32
-175.32
-144.94
-103.07
-59.51
-23.84
-2.26
3.94
-2.22
-15.39
-30.24
-43.12
-52.55
-58.78
-62.94
-66.09
-68.81
-70.96
-71.97
-71.18
-68.15
-62.87
-55.72
-47.53
-39.61
-33.83
-32.54
-37.85
-50.62
-69.34
-89.80
-105.93
-111.80
-103.86
-82.45
-51.75
-18.10
12.13
34.49
46.93
49.44
42.96
28.94
9.34
-12.88
-33.68
-48.71
-54.58
-50.17
-36.92
-18.29
1.75
20.05
34.87
45.87
53.36
57.81
59.54
58.94
56.56
53.11
49.25
45.27
41.18
36.87
32.49
28.47
25.22
22.56
19.46
14.14
4.89
-8.96
-26.27
-44.17
-58.97
-67.55
-68.45
-62.34
-51.40
-38.30
-25.02
-12.36
-0.02
12.66
26.07
39.86
52.99
64.18
72.38
77.10
78.48
77.15
73.90
69.64
65.22
61.45
58.91
57.83
57.88
58.26
58.02
56.49
53.62
49.96
46.42
43.80
42.56
42.69
43.86
45.58
47.30
48.41
48.32
46.58
43.03
37.89
31.63
24.71
17.32
9.22
-0.07
-10.95
-23.40
-36.80
-50.05
-61.89
-71.24
-77.44
-80.30
-79.98
-76.89
-71.61
-64.93
-57.77
-51.11
-45.73
-42.01
-39.90
-38.88
-38.30
-37.64
-36.71
-35.69
-34.97
-34.91
-35.59
-36.71
-37.69
-37.94
-37.16
-35.51
-33.53
-31.92
-31.18
-31.35
-32.06
-32.73
-32.86
-32.40
-31.74
-31.65
-33.00
-36.42
-42.02
-49.19
-56.59
-62.50
-65.42
-64.70
-60.95
-55.81
-51.40
-49.42
-50.44
-53.55
-56.79
-58.17
-56.51
-51.91
-45.55
-39.00
-33.68
-30.34
-28.98
-29.14
-30.30
-31.82
-32.83
-32.26
-29.59
-26.35
-26.21
-33.52
-51.07
-77.98
-108.77
-134.64
-146.48
-138.05
-108.59
-61.68
-2.39
63.91
131.32
192.71
240.21
267.11
270.33
250.53
212.50
164.47
115.21
71.54
37.87
16.87
9.61
14.67
25.35
31.74
25.74
3.89
-32.06
-76.66
-123.58
-168.19
-197.29
-201.40
-180.22
-139.44
-84.90
-21.21
44.63
102.20
141.43
157.89
156.69
145.46
134.37
131.21
137.53
148.81
158.11
160.86
157.51
151.60
143.62
136.47
131.35
126.24
116.74
98.42
68.85
28.67
-19.79
-72.38
-121.65
-158.53
-174.84
-166.30
-135.02
-89.93
-44.31
-12.08
-2.86
-17.77
-50.08
-88.95
-124.15
-149.53
-163.66
-167.45
-162.77
-151.62
-135.78
-117.26
-98.26
-80.69
-65.37
-51.83
-37.83
-21.65
-4.07
11.67
21.94
25.13
22.24
16.21
10.24
8.00
12.22
23.95
42.88
68.80
101.74
140.57
182.40
213.46
220.90
202.25
167.21
128.57
95.30
71.09
55.22
44.52
35.21
26.07
18.42
14.23
13.95
16.65
20.82
22.56
18.00
4.79
-15.77
-39.94
-64.55
-88.78
-112.12
-132.70
-147.05
-150.80
-141.02
-117.63
-84.17
-45.51
-11.02
12.32
23.39
26.44
27.85
32.12
39.75
47.98
51.59
45.95
31.41
13.51
0.14
-2.14
9.15
32.14
62.71
94.62
121.31
138.46
144.39
138.78
121.77
93.75
51.69
2.27
-42.40
-73.15
-87.85
-89.15
-81.26
-68.51
-55.00
-43.94
-36.60
-33.92
-36.48
-43.52
-52.18
-59.14
-60.20
-53.01
-37.95
-17.97
0.99
12.21
11.41
-0.59
-18.56
-35.49
-46.03
-48.24
-43.26
-34.48
-23.48
-12.09
-0.79
10.68
21.89
30.80
34.43
30.51
18.61
0.66
-19.79
-38.27
-50.64
-54.74
-50.98
-41.85
-30.58
-20.22
-13.26
-11.56
-15.71
-24.09
-33.79
-41.50
-44.57
-41.30
-31.19
-15.32
3.56
21.95
37.79
50.14
59.45
66.96
74.85
85.81
101.93
123.49
141.62
147.90
139.57
121.80
102.05
85.51
73.86
65.89
58.97
51.08
44.83
41.82
43.48
48.68
53.78
54.15
46.44
30.13
7.69
-15.98
-36.13
-49.70
-57.18
-60.71
-61.01
-56.05
-42.33
-18.15
14.04
46.68
70.13
76.80
65.45
41.80
15.30
-6.15
-20.05
-29.02
-37.87
-49.52
-62.92
-73.46
-76.08
-68.59
-53.14
-34.82
-18.34
-5.43
5.60
18.12
34.66
54.67
74.02
86.21
85.05
67.76
36.89
-0.57
-35.46
-59.63
-68.91
-64.01
-49.63
-32.48
-17.93
-8.05
-3.03
-1.90
-3.37
-6.81
-12.58
-21.62
-35.84
-55.45
-77.73
-99.96
-119.72
-134.83
-144.15
-147.55
-145.29
-139.13
-129.45
-114.75
-97.37
-83.03
-77.84
-85.88
-106.98
-136.26
-167.95
-194.63
-207.95
-206.10
-191.99
-169.27
-140.72
-107.61
-57.05
10.61
72.99
125.29
168.39
198.80
213.47
211.97
197.41
176.09
153.32
134.33
124.36
122.23
122.95
122.45
119.49
114.92
110.14
103.55
91.89
75.64
55.69
34.04
14.46
0.93
-4.37
-1.99
4.17
9.74
13.08
13.07
9.47
2.93
-3.23
-6.53
-5.96
-2.70
1.14
4.43
5.94
4.20
-1.01
-8.60
-17.54
-27.52
-36.48
-43.62
-48.28
-50.47
-51.71
-53.07
-54.53
-55.63
-55.91
-55.38
-55.08
-56.30
-54.40
-48.37
-40.36
-32.83
-26.03
-18.21
-7.62
5.90
21.29
36.79
49.78
58.81
64.79
68.93
72.26
75.16
77.17
77.52
75.50
70.14
61.61
51.23
40.26
30.56
23.39
19.05
17.16
17.17
18.22
20.14
23.25
27.72
33.19
38.64
42.79
44.79
44.38
41.66
37.11
31.35
24.85
18.01
11.11
4.39
-1.90
-7.47
-12.19
-15.91
-18.56
-20.09
-20.58
-20.30
-19.74
-19.49
-20.02
-21.58
-24.04
-26.98
-29.74
-31.72
-32.70
-33.07
-33.68
-35.55
-39.36
-45.09
-51.89
-58.37
-63.16
-65.44
-65.25
-63.36
-60.89
-58.87
-57.86
-57.73
-57.82
-57.24
-55.15
-51.19
-45.61
-39.25
-33.28
-28.78
-26.25
-25.15
-23.64
-18.89
-7.80
11.67
39.19
71.39
102.36
125.37
135.18
129.97
111.87
85.90
57.98
32.96
13.53
0.50
-6.42
-7.82
-4.38
2.87
12.26
21.61
28.78
32.39
32.26
29.30
24.92
20.32
16.11
12.31
8.64
4.87
1.07
-2.54
-5.76
-8.62
-11.34
-14.10
-16.78
-18.89
-19.78
-19.11
-17.11
-14.68
-12.96
-12.85
-14.59
-17.72
-21.34
-24.34
-25.68
-24.41
-19.91
-12.18
-2.23
8.05
16.37
21.11
22.06
20.65
19.20
19.74
22.77
26.70
28.30
23.76
10.29
-12.78
-43.47
-77.43
-108.94
-132.17
-142.42
-137.05
-115.96
-81.53
-38.29
7.98
51.51
88.03
115.88
136.19
151.82
165.57
178.54
189.75
196.93
198.22
193.44
184.35
173.74
164.07
156.59
151.28
147.37
143.96
140.35
135.91
130.03
122.04
111.49
98.23
82.51
64.93
46.46
28.42
12.43
0.09
-7.57
-10.58
-10.17
-8.40
-7.41
-8.65
-12.53
-18.52
-25.65
-33.08
-40.42
-47.83
-55.78
-64.75
-74.92
-86.03
-97.56
-108.90
-119.67
-129.96
-140.28
-151.43
-164.03
-178.36
-193.99
-209.84
-223.95
-233.64
-235.78
-227.52
-207.47
-176.67
-139.02
-100.42
-67.05
-43.34
-30.65
-27.12
-28.82
-31.53
-32.13
-29.23
-22.92
-14.10
-3.85
6.81
16.91
25.48
31.64
34.81
34.92
32.54
28.67
24.53
21.12
18.94
17.88
17.24
16.12
13.79
10.08
5.53
1.18
-1.85
-2.88
-1.89
0.46
3.20
5.45
6.75
7.12
6.90
6.43
5.87
5.03
3.52
0.91
-3.06
-8.36
-14.70
-21.62
-28.61
-35.22
-41.14
-46.28
-50.67
-54.46
-57.65
-60.08
-61.35
-61.08
-59.13
-55.85
-52.04
-48.59
-46.18
-44.95
-44.65
-44.91
-45.57
-46.81
-48.96
-52.23
-56.55
-61.68
-67.53
-74.29
-82.24
-91.08
-99.41
-104.68
-103.86
-94.69
-76.89
-52.58
-25.80
-1.02
18.21
30.27
35.42
35.09
30.93
24.29
16.26
7.91
0.41
-5.46
-9.97
-14.88
-22.97
-36.47
-55.41
-76.61
-94.46
-103.07
-98.88
-82.17
-56.78
-28.18
-1.10
22.01
41.19
57.91
73.85
89.99
106.37
122.24
136.19
146.45
151.27
149.67
142.18
131.11
120.02
112.63
111.56
117.54
129.41
144.59
159.87
171.95
177.90
175.64
164.48
145.57
121.81
97.10
74.95
57.22
43.51
31.76
19.54
5.35
-10.62
-26.91
-41.67
-53.76
-63.02
-69.91
-74.82
-77.57
-77.65
-74.87
-69.89
-64.30
-59.96
-58.13
-58.88
-61.19
-63.58
-64.90
-64.80
-63.55
-61.53
-58.80
-54.89
-49.19
-41.45
-32.22
-22.81
-14.96
-10.14
-8.97
-10.88
-14.15
-16.48
-15.88
-11.67
-5.00
1.47
4.65
2.46
-5.04
-15.58
-25.73
-32.49
-34.80
-33.95
-32.90
-34.81
-41.33
-51.53
-61.69
-66.24
-59.01
-35.20
6.70
63.49
126.88
184.70
223.82
234.24
212.90
165.64
106.11
51.58
17.03
10.05
28.48
61.91
96.26
119.22
124.33
111.94
87.30
57.35
27.83
2.12
-18.38
-32.94
-40.66
-40.82
-33.78
-21.78
-8.74
0.98
4.47
1.58
-5.09
-11.44
-13.85
-10.79
-3.35
5.51
12.45
15.26
13.58
8.83
3.29
-0.90
-2.54
-1.66
0.79
3.44
5.14
5.28
3.96
1.79
-0.57
-2.55
-4.00
-5.08
-6.17
-7.55
-9.37
-11.50
-13.71
-15.73
-17.38
-18.61
-19.51
-20.25
-21.05
-22.13
-23.64
-25.63
-27.94
-30.24
-32.06
-32.98
-32.71
-31.15
-28.38
-24.59
-19.92
-14.48
-8.38
-1.84
4.77
10.87
15.89
19.44
21.52
22.50
22.97
23.46
24.22
25.12
25.82
25.99
25.53
24.62
23.63
22.80
22.14
21.38
20.13
18.08
15.17
11.62
7.74
3.90
0.31
-2.91
-5.77
-8.37
-10.92
-13.72
-17.09
-21.20
-25.88
-30.63
-34.77
-37.81
-39.81
-41.44
-43.68
-47.40
-52.80
-59.33
-65.87
-71.31
-74.88
-76.05
-74.37
-69.32
-60.59
-48.34
-33.27
-16.26
2.18
22.30
44.85
70.27
97.71
124.51
146.82
161.22
165.98
161.61
150.23
134.47
116.32
96.77
75.58
52.39
27.89
4.04
-16.38
-30.63
-36.63
-34.08
-24.55
-12.34
-2.44
1.97
0.91
-2.87
-5.69
-4.59
0.37
6.23
6.59
-4.66
-29.76
-65.92
-106.71
-144.70
-172.79
-186.44
-183.06
-164.51
-135.37
-101.13
-67.91
-42.03
-29.21
-31.98
-49.74
-64.23
-58.42
-28.78
12.63
50.69
77.00
87.01
88.60
88.94
94.02
105.10
120.04
139.43
161.04
181.00
194.68
199.19
192.80
176.22
149.68
113.61
69.94
22.40
-23.60
-62.41
-88.99
-101.34
-99.91
-88.44
-71.84
-54.14
-37.90
-24.30
-14.22
-8.33
-7.93
-13.76
-26.24
-44.70
-67.16
-90.95
-113.12
-131.20
-143.03
-147.23
-142.80
-129.56
-108.17
-80.06
-47.52
-13.25
19.94
49.61
73.92
92.26
105.46
115.87
126.92
142.03
163.48
191.16
222.10
251.16
272.55
281.75
276.91
259.07
231.19
196.84
159.14
120.78
84.30
52.57
28.27
12.99
6.36
5.90
7.83
8.44
5.21
-2.87
-15.82
-33.20
-54.38
-78.27
-103.00
-125.96
-144.37
-156.17
-160.57
-158.16
-150.44
-139.27
-126.42
-113.35
-101.24
-90.98
-83.22
-78.27
-75.97
-75.73
-76.69
-77.83
-78.35
-77.79
-76.18
-73.98
-71.97
-70.81
-70.85
-72.10
-74.29
-77.04
-79.82
-82.14
-83.61
-84.17
-84.03
-83.64
-83.68
-84.77
-87.25
-91.06
-95.79
-100.95
-106.50
-112.48
-119.00
-126.20
-134.31
-143.59
-154.19
-165.98
-178.28
-190.27
-200.00
-204.52
-201.17
-188.94
-168.93
-143.86
-117.12
-91.62
-70.26
-53.61
-39.90
-26.88
-13.57
-0.42
11.62
22.03
31.29
38.64
44.96
52.43
62.37
73.59
83.20
88.51
88.33
83.25
72.43
57.11
40.48
25.27
12.02
0.02
-10.75
-18.99
-6.49
30.09
76.68
115.78
139.82
149.82
150.11
145.03
137.32
128.50
114.94
95.33
72.82
53.01
40.43
36.76
40.59
48.49
55.28
54.64
44.64
28.89
13.66
3.76
0.50
2.06
5.07
6.60
4.41
-0.80
-5.98
-8.22
-6.60
-2.21
3.01
7.30
9.62
9.08
5.96
1.37
-3.49
-8.09
-12.56
-17.38
-22.92
-29.24
-36.11
-42.64
-47.63
-50.21
-50.44
-49.33
-48.46
-49.38
-53.07
-59.59
-67.94
-76.34
-82.60
-84.54
-80.46
-69.51
-51.93
-29.04
-2.97
23.72
48.68
70.07
86.84
98.65
105.65
108.15
106.65
101.93
95.25
88.40
83.34
81.55
83.37
87.82
92.88
96.34
96.80
94.17
89.65
84.98
81.57
79.81
79.03
77.98
75.60
71.65
66.79
62.15
58.60
56.26
54.38
51.81
47.64
41.69
34.41
26.40
17.90
8.61
-1.90
-13.52
-25.17
-35.05
-41.38
-43.21
-40.86
-35.66
-29.21
-22.62
-16.26
-10.02
-3.79
2.13
7.11
10.52
12.16
12.37
11.85
11.28
11.04
11.12
11.25
11.05
10.13
8.24
5.25
1.22
-3.55
-8.66
-13.74
-18.64
-23.22
-27.57
-31.81
-35.98
-39.90
-43.39
-46.49
-49.66
-53.63
-58.97
-66.04
-74.68
-83.95
-92.14
-97.15
-97.13
-91.19
-79.59
-63.21
-43.67
-22.97
-3.15
14.19
27.85
37.19
42.44
45.13
48.85
56.70
69.74
86.80
105.66
124.09
140.55
154.04
163.96
171.63
176.67
176.98
171.06
160.71
150.73
146.23
149.57
159.83
177.03
198.53
219.80
236.85
248.26
253.95
253.20
244.06
226.21
206.81
192.92
187.54
189.35
195.14
201.30
204.97
205.01
171.60
97.45
0.16
-93.72
-170.02
-228.29
-271.70
-298.80
-312.94
-315.74
-305.38
-285.00
-263.11
-248.24
-243.69
-246.56
-250.10
-247.57
-233.64
-203.50
-158.13
-109.07
-71.24
-51.96
-48.48
-53.03
-59.22
-63.58
-63.58
-59.96
-55.57
-52.11
-48.57
-43.30
-35.46
-27.60
-22.82
-21.93
-25.04
-31.92
-40.88
-48.60
-52.18
-50.21
-43.32
-33.13
-20.58
-8.00
0.21
0.78
-6.62
-20.30
-35.97
-47.73
-48.83
-32.77
1.73
48.39
95.39
130.67
144.32
133.81
103.55
55.01
0.59
-42.82
-67.07
-77.27
-82.68
-91.13
-102.85
-113.56
-117.62
-110.80
-90.87
-60.49
-25.85
8.33
37.07
59.85
78.36
95.91
117.83
143.77
172.09
190.67
206.28
211.92
204.42
182.70
148.12
96.62
37.25
-14.22
-47.86
-63.13
-68.05
-68.05
-65.13
-59.05
-49.00
-34.97
-20.14
-9.78
-6.26
-10.20
-17.83
-24.51
-28.00
-27.02
-21.73
-14.67
-9.81
-9.36
-14.42
-23.15
-32.83
-41.33
-46.61
-46.80
-41.65
-32.85
-22.75
-14.38
-9.98
-7.57
-7.03
-7.60
-7.83
-6.62
-3.74
0.57
5.78
11.77
18.69
26.11
33.71
40.86
46.50
49.49
49.11
45.47
39.37
31.93
23.86
15.91
8.65
2.43
-2.56
-6.32
-8.98
-10.81
-12.14
-13.63
-15.64
-18.29
-21.54
-25.08
-28.49
-31.25
-32.88
-33.03
-31.77
-29.38
-26.39
-23.55
-21.54
-20.87
-21.64
-23.45
-25.49
-26.76
-26.23
-23.21
-17.52
-9.61
-0.48
8.52
16.10
21.36
24.00
24.38
23.22
21.33
19.32
17.48
15.80
14.03
11.76
8.52
3.90
-2.24
-9.56
-17.12
-23.53
-27.35
-27.68
-24.52
-18.91
-12.57
-7.45
-5.01
-5.90
-9.80
-15.64
-22.04
-27.68
-31.70
-33.72
-33.80
-32.23
-29.38
-25.55
-20.99
-15.94
-10.64
-5.42
-0.65
3.32
6.19
7.91
8.65
8.91
9.35
10.63
13.15
16.96
21.64
26.41
30.40
32.83
33.33
32.02
29.44
26.39
23.76
22.11
21.44
21.17
20.13
16.88
10.16
-0.34
-13.78
-28.19
-41.30
-51.37
-57.60
-60.17
-59.71
-56.87
-51.93
-45.16
-37.14
-29.32
-23.75
-22.09
-24.91
-31.24
-39.09
-46.29
-51.43
-54.15
-55.55
-57.37
-60.71
-65.45
-70.58
-74.91
-77.71
-79.12
-79.53
-80.45
-83.58
-89.27
-96.33
-103.03
-108.32
-112.59
-117.38
-123.33
-131.00
-139.29
-144.20
-140.15
-122.59
-89.97
-43.64
13.36
78.14
145.39
207.30
255.55
282.99
285.54
263.79
223.71
168.54
113.49
75.61
59.58
57.45
58.62
57.02
51.81
45.17
40.01
39.42
42.41
46.47
49.14
48.45
43.27
32.97
18.04
0.62
-15.26
-27.39
-36.36
-40.09
-37.86
-30.29
-19.34
-7.41
3.81
14.05
22.17
25.98
23.78
14.89
0.31
-17.49
-34.94
-47.77
-51.83
-45.45
-29.81
-7.58
17.75
42.89
65.18
81.15
86.74
83.87
79.72
79.49
83.39
87.98
89.71
87.17
81.86
77.71
79.03
88.42
105.13
125.92
145.25
157.40
157.82
144.94
121.34
92.80
66.25
46.70
35.84
31.84
30.75
28.06
19.73
7.77
-7.33
-25.09
-45.00
-65.93
-85.80
-102.05
-112.90
-118.26
-119.76
-120.82
-124.63
-133.07
-145.97
-161.12
-175.16
-184.78
-187.65
-182.83
-171.42
-155.41
-137.25
-119.08
-102.27
-87.16
-73.38
-60.16
-46.68
-32.78
-18.51
-4.30
9.12
20.69
29.37
34.36
35.40
33.00
28.13
22.22
16.68
12.60
10.62
10.92
13.46
18.01
24.17
31.22
38.27
44.26
48.33
49.94
48.98
45.71
40.60
34.33
27.70
21.69
17.19
14.86
14.71
16.04
17.59
17.94
16.10
11.74
5.36
-1.99
-8.96
-14.28
-17.08
-17.10
-14.71
-10.86
-6.72
-3.30
-1.14
-0.07
0.58
1.63
3.64
6.62
10.10
13.31
15.61
16.67
16.52
15.37
13.50
11.05
8.15
4.95
1.74
-1.09
-3.20
-4.46
-5.05
-5.29
-5.48
-5.68
-5.71
-5.27
-4.17
-2.50
-0.67
0.74
1.16
0.25
-2.03
-5.40
-9.35
-13.26
-16.53
-18.66
-19.43
-18.84
-17.22
-15.13
-13.28
-12.38
-12.93
-15.02
-18.14
-21.22
-22.94
-22.20
-18.56
-12.52
-5.39
1.26
6.09
8.50
8.56
6.84
3.98
0.51
-3.17
-6.72
-9.74
-11.92
-13.16
-13.72
-14.11
-14.94
-16.62
-19.25
-22.59
-26.29
-30.07
-33.82
-37.66
-41.69
-45.80
-49.53
-52.07
-52.67
-50.90
-47.06
-42.05
-37.04
-32.91
-29.81
-27.16
-24.01
-19.56
-13.44
-5.79
3.11
12.91
23.21
33.33
42.24
48.79
52.15
52.28
49.99
46.63
43.47
41.22
40.02
39.78
40.54
42.67
46.63
52.56
59.90
67.49
73.86
77.84
78.84
76.97
72.80
67.06
60.38
53.29
46.34
40.32
36.35
35.66
39.33
47.73
60.37
75.85
92.15
107.07
118.59
125.09
125.37
118.70
104.80
83.95
57.11
26.02
-7.12
-39.81
-69.77
-95.29
-115.34
-129.65
-138.55
-142.83
-143.45
-141.32
-137.00
-130.66
-122.21
-111.63
-99.30
-86.15
-73.51
-62.63
-54.17
-47.97
-43.11
-38.48
-33.31
-27.37
-20.89
-14.17
-7.14
0.68
9.96
21.10
33.91
47.51
60.48
71.42
79.17
83.23
83.61
80.68
75.03
67.32
58.22
48.49
38.91
30.15
22.69
16.71
12.00
8.13
4.56
0.86
-3.21
-7.57
-11.99
-16.22
-20.09
-23.69
-27.31
-31.45
-36.51
-42.68
-49.68
-56.67
-62.37
-65.28
-64.17
-58.49
-48.62
-35.80
-21.71
-7.96
4.39
14.98
23.97
31.62
38.02
42.88
45.76
46.31
44.62
41.27
37.16
33.15
29.67
26.73
23.89
20.78
17.25
13.58
10.22
7.43
5.00
2.25
-1.65
-7.21
-14.29
-21.98
-28.96
-34.02
-36.51
-36.62
-35.34
-33.98
-33.80
-35.44
-38.77
-43.00
-46.99
-49.79
-50.98
-50.81
-50.08
-50.00
-51.81
-56.52
-64.29
-73.97
-82.67
-86.16
-80.13
-61.82
-31.60
6.78
47.30
83.73
111.67
129.32
137.18
136.70
129.37
116.42
99.30
80.13
61.59
46.07
34.65
26.71
20.31
13.30
4.36
-6.38
-17.64
-27.64
-34.86
-38.55
-38.77
-36.35
-32.44
-28.31
-24.86
-22.53
-21.17
-20.24
-19.11
-17.42
-15.16
-12.58
-10.00
-7.60
-5.39
-3.33
-1.48
-0.01
0.81
0.80
-0.12
-1.93
-4.59
-8.10
-12.28
-16.61
-20.14
-21.61
-19.91
-14.53
-5.88
4.86
16.15
26.65
35.63
42.94
48.79
53.30
56.29
57.28
55.89
52.16
46.78
40.93
35.83
32.22
30.05
28.62
26.93
24.27
20.55
16.22
12.00
8.39
5.43
2.71
-0.30
-3.99
-8.39
-13.19
-17.94
-22.24
-25.93
-29.05
-31.78
-34.29
-36.65
-38.78
-40.49
-41.68
-42.33
-42.62
-42.81
-43.16
-43.78
-44.64
-45.64
-46.64
-47.66
-48.70
-49.69
-50.23
-49.61
-46.89
-41.38
-32.95
-22.20
-10.36
1.19
11.41
19.87
26.84
32.92
38.65
44.06
48.76
52.06
53.45
52.85
50.67
47.60
44.25
40.92
37.57
33.96
29.98
25.79
21.77
18.30
15.59
13.53
11.82
10.06
8.00
5.52
2.73
-0.19
-3.04
-5.64
-7.94
-10.02
-12.01
-14.01
-15.96
-17.60
-18.64
-18.91
-18.53
-17.94
-17.70
-18.32
-20.05
-22.87
-26.58
-30.91
-35.45
-39.63
-42.65
-43.67
-41.99
-37.47
-30.55
-22.14
-13.22
-4.47
3.80
11.53
18.61
24.68
29.13
31.28
30.75
27.70
22.96
17.66
12.99
9.79
8.33
8.33
9.11
9.87
9.99
9.23
7.60
5.21
2.18
-1.30
-4.99
-8.58
-11.67
-13.82
-14.61
-14.07
-12.86
-11.95
-12.26
-14.28
-18.11
-23.45
-29.61
-35.58
-40.79
-45.48
-50.14
-55.07
-60.27
-65.56
-70.81
-75.75
-79.77
-82.71
-85.21
-87.93
-90.96
-93.67
-94.99
-93.57
-87.62
-74.86
-54.05
-25.88
7.70
44.32
81.63
117.38
146.86
161.93
159.62
144.83
124.76
104.31
85.74
69.75
56.27
44.98
35.84
29.51
26.05
24.28
22.66
20.22
16.71
12.44
8.02
4.11
1.60
0.61
0.14
-1.05
-3.56
-7.13
-11.04
-14.33
-16.44
-17.10
-16.82
-16.77
-17.94
-20.42
-23.28
-25.12
-24.43
-20.61
-14.07
-6.08
1.78
8.32
13.34
17.47
21.68
27.14
34.42
43.93
55.79
69.18
81.64
88.86
85.80
67.05
34.78
-4.32
-40.87
-66.34
-76.54
-72.87
-60.10
-43.71
-27.65
-13.10
-0.31
10.12
16.44
16.27
8.49
-5.48
-21.67
-35.00
-41.21
-39.49
-32.39
-24.32
-19.37
-19.61
-24.96
-34.47
-47.70
-64.98
-87.06
-113.56
-142.11
-169.06
-190.30
-202.54
-205.13
-199.40
-187.07
-169.04
-145.05
-114.82
-79.59
-42.44
-7.25
22.89
47.05
66.27
82.34
96.28
108.12
116.97
122.24
124.65
126.13
128.94
134.47
142.65
152.30
162.89
174.11
186.11
199.09
212.67
225.31
234.47
237.45
232.57
221.22
205.93
189.72
175.19
164.09
156.82
152.51
149.49
145.89
141.46
134.96
124.31
107.52
84.06
55.46
24.99
-3.43
-35.70
-71.43
-107.03
-138.83
-165.66
-187.86
-205.45
-217.56
-223.84
-224.77
-219.94
-210.72
-199.92
-190.60
-184.81
-183.10
-184.21
-186.13
-186.26
-181.36
-170.42
-154.68
-136.66
-118.57
-101.51
-85.81
-71.85
-60.49
-52.27
-47.85
-47.00
-48.18
-48.93
-47.15
-41.96
-33.77
-23.25
-10.27
5.28
22.73
39.91
53.73
61.85
64.47
64.96
68.51
79.35
98.00
120.52
140.37
151.54
151.29
140.89
124.47
106.88
91.78
80.83
74.03
70.47
69.10
69.05
69.68
70.64
71.67
72.48
72.39
70.32
64.92
55.21
41.02
23.20
3.18
-17.67
-38.45
-58.55
-76.93
-91.55
-99.42
-97.63
-84.77
-62.22
-34.24
-6.71
14.84
27.18
30.15
26.18
18.72
10.78
4.08
-0.84
-3.97
-5.23
-4.30
-1.07
3.87
9.10
12.84
13.78
11.74
7.81
3.72
1.04
0.54
1.99
4.61
7.55
10.37
13.03
15.69
18.42
20.99
23.01
24.08
24.01
22.95
21.23
19.20
17.05
14.69
11.88
8.40
4.19
-0.56
-5.61
-10.81
-16.25
-22.17
-28.67
-35.58
-42.39
-48.43
-53.10
-56.03
-57.05
-56.14
-53.37
-48.92
-43.12
-36.47
-29.47
-22.53
-15.91
-9.76
-4.19
0.69
4.84
8.32
11.27
13.79
15.87
17.41
18.48
19.50
21.12
23.83
27.63
31.92
35.75
38.30
39.20
38.65
37.30
35.74
34.16
32.31
29.83
26.57
22.75
18.82
15.26
12.54
10.74
9.41
7.77
5.13
1.28
-3.45
-8.38
-12.77
-15.51
-16.27
-16.06
-16.98
-21.07
-29.08
-40.08
-51.70
-60.90
-63.71
-58.00
-45.04
-29.21
-15.71
-8.15
-7.47
-11.99
-18.13
-19.22
-9.75
11.97
43.04
77.96
110.97
137.14
153.01
157.55
155.73
154.93
161.39
177.72
202.91
232.99
261.59
281.46
269.47
214.17
125.40
29.74
-49.35
-103.82
-137.80
-159.02
-173.01
-181.50
-181.15
-169.74
-149.82
-128.34
-112.45
-105.78
-107.82
-115.30
-123.44
-125.32
-115.83
-94.47
-65.97
-37.83
-17.16
-7.38
-8.25
-15.78
-22.56
-22.17
-12.67
2.58
17.41
26.40
27.19
20.74
10.40
0.66
-5.24
-6.35
-3.66
1.17
6.78
12.22
16.47
18.35
17.05
12.13
4.28
-4.91
-12.95
-17.28
-16.45
-10.84
-2.53
5.56
10.82
11.87
8.94
3.59
-2.17
-6.61
-8.96
-9.42
-8.72
-7.67
-6.73
-5.98
-5.36
-4.98
-5.26
-6.70
-9.60
-13.72
-18.43
-22.91
-26.71
-29.87
-32.91
-36.39
-40.36
-44.17
-46.60
-46.39
-42.87
-36.29
-27.71
-18.53
-10.00
-2.74
3.22
8.28
12.90
17.34
21.50
25.00
27.36
28.21
27.52
25.67
23.40
21.52
20.68
20.99
22.06
22.98
22.58
19.80
14.10
5.92
-2.93
-9.43
-9.93
-1.35
17.54
45.22
77.39
108.02
130.88
141.29
137.08
118.79
89.00
51.54
10.83
-28.43
-61.54
-84.30
-93.92
-90.08
-75.58
-55.95
-37.98
-27.63
-28.09
-38.86
-56.10
-74.12
-87.31
-91.64
-85.52
-69.87
-47.52
-22.29
1.93
21.98
35.98
43.42
44.88
41.66
35.35
27.71
20.58
15.88
15.29
19.79
29.14
41.74
55.06
66.37
73.66
76.03
73.74
67.62
58.64
47.57
35.05
21.75
8.55
-3.61
-13.98
-22.20
-28.40
-33.06
-36.79
-40.15
-43.50
-47.02
-50.68
-54.32
-57.63
-60.26
-61.89
-62.30
-61.47
-59.58
-57.01
-54.12
-51.18
-48.19
-44.95
-41.07
-36.28
-30.52
-24.14
-17.79
-12.27
-8.20
-5.88
-5.13
-5.38
-5.87
-5.98
-5.39
-4.15
-2.52
-0.76
1.03
2.84
4.59
5.98
6.52
5.74
3.62
0.69
-2.02
-3.48
-3.07
-0.85
2.46
5.80
8.17
8.84
7.45
4.10
-0.79
-6.47
-12.03
-16.72
-20.11
-22.28
-23.67
-24.76
-25.82
-26.75
-27.21
-26.88
-25.69
-23.89
-22.01
-20.68
-20.39
-21.37
-23.46
-26.12
-28.53
-29.84
-29.36
-26.86
-22.62
-17.37
-12.14
-7.96
-5.63
-5.60
-7.83
-11.88
-17.06
-22.63
-28.00
-32.87
-37.14
-40.74
-43.36
-44.33
-42.64
-37.27
-27.61
-13.81
3.02
21.09
38.29
52.72
63.10
68.87
70.10
67.26
61.01
52.05
41.16
29.18
17.02
5.57
-4.46
-12.72
-19.23
-24.33
-28.42
-31.76
-34.31
-35.84
-36.03
-34.78
-32.27
-29.04
-25.76
-23.01
-21.05
-19.85
-19.16
-18.77
-18.69
-19.17
-20.52
-22.86
-25.94
-29.13
-31.72
-33.21
-33.55
-33.05
-32.03
-30.59
-28.49
-25.38
-21.09
-15.82
-10.03
-4.10
1.93
8.44
15.95
24.65
34.16
43.44
51.21
56.39
58.51
57.85
55.31
51.96
48.70
45.93
43.45
40.65
36.87
31.77
25.50
18.60
11.70
5.28
-0.49
-5.59
-9.79
-12.64
-13.47
-11.84
-7.82
-2.16
4.03
9.74
14.45
18.29
21.71
25.08
28.47
31.64
34.29
36.27
37.74
38.92
40.00
40.96
41.60
41.77
41.49
40.89
40.08
38.98
37.34
35.00
32.13
29.23
27.00
25.90
25.89
26.41
26.61
25.80
23.63
20.12
15.54
10.17
4.35
-1.50
-6.79
-10.93
-13.53
-14.64
-14.77
-14.69
-15.15
-16.60
-19.06
-22.13
-25.14
-27.39
-28.30
-27.61
-25.38
-22.01
-18.01
-13.82
-9.62
-5.32
-0.69
4.44
9.92
15.33
20.08
23.67
25.89
26.88
27.03
26.80
26.55
26.42
26.45
26.59
26.72
26.71
26.45
25.89
25.17
24.59
24.55
25.32
26.82
28.57
29.87
30.14
29.20
27.35
25.19
23.27
21.79
20.50
18.94
16.87
14.41
12.12
10.55
9.90
9.81
9.52
8.19
5.45
1.66
-2.09
-4.48
-4.60
-2.07
2.89
9.64
17.32
25.02
31.75
36.32
37.27
32.84
22.04
5.31
-15.15
-36.19
-54.86
-69.63
-80.67
-89.14
-96.27
-101.85
-104.49
-102.75
-96.68
-88.19
-80.00
-73.62
-65.97
-53.70
-35.01
-11.80
11.20
28.75
37.83
38.89
35.23
31.02
28.69
28.45
28.88
28.47
26.49
23.40
20.37
18.60
18.79
20.74
23.90
27.65
31.18
33.15
31.67
25.06
12.76
-3.76
-21.46
-36.61
-46.41
-49.52
-46.52
-39.43
-30.63
-21.94
-14.29
-8.18
-3.91
-1.72
-1.49
-2.65
-4.30
-5.47
-5.52
-4.16
-1.79
0.92
3.28
5.07
6.41
7.44
8.12
8.24
7.70
6.43
4.61
2.75
1.60
1.90
3.64
6.12
8.15
8.83
7.67
4.67
0.31
-4.12
-6.71
-5.56
0.81
12.45
27.41
41.36
48.74
43.30
22.62
-8.41
-39.57
-61.27
-69.82
-67.55
-60.00
-52.36
-47.65
-46.45
-48.15
-51.98
-56.18
-58.67
-55.33
-42.55
-19.16
12.64
47.81
80.49
102.98
111.57
107.18
93.15
72.78
48.52
22.48
-2.69
-23.91
-38.93
-47.04
-49.12
-47.23
-43.65
-40.02
-36.86
-33.95
-30.94
-27.86
-24.78
-22.01
-19.93
-18.89
-18.95
-19.80
-21.12
-22.43
-23.47
-23.97
-23.97
-23.80
-23.91
-24.58
-25.81
-27.26
-28.28
-28.08
-25.83
-20.97
-13.58
-4.31
5.77
15.54
24.22
31.48
37.37
42.19
46.13
49.22
51.39
52.68
53.27
53.46
53.44
53.12
52.21
50.46
47.89
44.88
41.95
39.45
37.45
35.68
33.64
30.83
26.93
21.88
15.95
9.62
3.49
-1.76
-5.70
-8.50
-11.00
-14.39
-19.60
-26.66
-34.51
-41.30
-44.71
-43.37
-37.78
-30.57
-25.41
-25.62
-32.31
-44.07
-57.43
-67.40
-69.90
-63.86
-51.83
-38.54
-29.22
-26.88
-31.95
-42.30
-52.58
-55.96
-46.46
-20.61
21.74
75.95
133.68
183.15
212.77
217.41
200.61
172.63
146.00
130.61
129.48
139.97
155.46
161.24
148.96
122.48
94.86
76.71
73.20
73.63
67.67
49.88
20.31
-18.17
-59.55
-99.10
-134.95
-167.11
-196.62
-222.76
-244.25
-259.42
-265.29
-258.82
-239.08
-207.99
-169.33
-127.85
-86.78
-48.39
-14.19
15.45
40.38
59.46
70.72
72.50
64.17
47.24
24.22
-2.19
-29.14
-53.90
-74.27
-88.53
-95.31
-93.91
-84.32
-67.78
-46.56
-23.25
0.03
21.65
40.29
54.60
63.06
64.54
58.93
47.77
34.15
21.86
13.88
11.32
13.10
16.70
19.48
19.73
17.14
12.39
6.48
0.12
-6.27
-12.33
-17.39
-20.43
-20.46
-17.06
-10.87
-3.53
2.65
5.54
3.94
-1.95
-10.63
-19.82
-27.26
-31.43
-31.86
-29.19
-24.75
-20.07
-16.35
-14.16
-13.42
-13.56
-13.80
-13.41
-11.88
-8.92
-4.51
1.18
7.83
14.90
21.77
27.73
32.17
34.71
35.42
34.80
33.64
32.79
32.83
33.88
35.57
37.34
38.68
39.33
39.32
38.83
38.00
36.84
35.29
33.34
31.00
28.32
25.17
21.30
16.45
10.64
4.36
-1.45
-5.71
-7.63
-6.99
-4.23
-0.17
4.30
8.52
12.06
14.72
16.33
16.71
15.74
13.48
10.19
6.24
2.00
-2.29
-6.52
-10.62
-14.42
-17.57
-19.59
-20.02
-18.63
-15.50
-11.07
-5.93
-0.62
4.47
9.19
13.51
17.41
20.80
23.56
25.57
26.86
27.57
27.96
28.19
28.27
28.01
27.13
25.38
22.72
19.32
15.52
11.72
8.24
5.30
2.96
1.20
-0.09
-1.01
-1.66
-2.13
-2.47
-2.77
-3.06
-3.38
-3.77
-4.22
-4.69
-5.12
-5.43
-5.52
-5.33
-4.84
-4.10
-3.27
-2.52
-2.06
-2.02
-2.40
-3.12
-4.01
-4.89
-5.62
-6.12
-6.33
-6.24
-5.80
-5.05
-4.02
-2.79
-1.44
-0.03
1.45
3.04
4.84
6.87
9.11
11.40
13.51
15.19
16.22
16.38
15.56
13.74
10.98
7.52
3.79
0.29
-2.54
-4.50
-5.73
-6.70
-7.96
-9.90
-12.49
-15.19
-17.23
-17.91
-16.90
-14.45
-11.17
-7.82
-5.00
-3.00
-1.78
-1.05
-0.45
0.36
1.66
3.59
6.09
8.85
11.40
13.21
13.87
13.27
11.60
9.30
6.97
5.16
4.35
4.70
6.11
8.15
10.20
11.59
11.85
10.76
8.45
5.28
1.72
-1.81
-4.98
-7.65
-9.79
-11.47
-12.81
-13.89
-14.72
-15.24
-15.30
-14.72
-13.41
-11.50
-9.33
-7.46
-6.49
-6.87
-8.67
-11.53
-14.79
-17.65
-19.51
-20.09
-19.51
-18.10
-16.19
-14.02
-11.70
-9.29
-6.89
-4.70
-2.92
-1.69
-1.06
-0.94
-1.19
-1.68
-2.24
-2.74
-3.07
-3.17
-3.05
-2.80
-2.48
-2.09
-1.47
-0.42
1.19
3.26
5.41
7.22
8.36
8.78
8.74
8.69
9.06
10.12
11.91
14.22
16.74
19.04
20.53
20.56
18.54
14.15
7.51
-0.76
-9.59
-17.60
-23.28
-25.52
-23.70
-17.65
-7.58
5.81
21.47
38.19
54.80
70.47
84.24
95.26
103.01
107.46
108.87
107.75
104.88
101.42
98.94
98.39
100.26
105.03
113.26
124.99
139.21
153.61
164.78
169.15
162.86
143.35
110.58
67.28
17.66
-33.96
-84.20
-132.11
-171.99
-197.71
-207.15
-203.11
-190.53
-173.88
-156.26
-139.49
-124.38
-110.79
-98.94
-89.19
-81.47
-75.15
-69.50
-64.08
-58.70
-53.36
-47.79
-42.30
-37.42
-33.36
-29.88
-26.62
-23.41
-20.28
-17.26
-14.24
-11.36
-8.89
-6.89
-5.20
-3.59
-2.05
-0.66
0.49
1.46
2.27
2.97
3.65
4.50
5.57
6.66
7.42
7.49
6.70
5.08
2.79
0.17
-2.69
-5.61
-8.83
-12.90
-18.41
-25.72
-34.52
-43.63
-51.10
-54.81
-53.30
-46.52
-35.91
-23.83
-12.48
-3.05
4.32
9.89
13.46
14.15
10.80
3.01
-7.99
-19.58
-28.51
-32.80
-32.50
-28.95
-23.36
-15.82
-5.87
5.96
16.63
21.50
16.04
-0.86
-25.01
-48.02
-61.10
-59.27
-43.71
-20.76
2.36
20.59
32.82
41.09
48.02
54.50
59.53
61.73
56.91
45.75
31.58
18.58
9.59
4.84
2.35
-0.45
-4.89
-10.34
-14.04
-13.52
-7.97
1.40
12.07
21.71
29.22
35.00
40.14
45.83
51.90
57.04
59.78
59.60
57.71
56.71
59.38
67.36
80.66
97.21
113.58
125.90
130.69
125.72
110.62
87.23
59.43
32.33
10.62
-2.93
-8.15
-6.99
-2.19
4.18
11.28
19.20
27.97
36.80
44.19
48.66
49.61
47.57
43.83
39.70
35.88
32.29
28.35
23.46
17.35
10.16
2.17
-6.38
-15.39
-24.68
-34.07
-42.89
-50.08
-54.70
-56.50
-55.87
-53.57
-50.26
-46.33
-42.13
-37.73
-33.00
-27.83
-22.29
-16.54
-10.74
-5.05
0.24
4.13
6.09
6.45
5.86
4.60
2.48
-0.80
-5.23
-10.25
-16.55
-23.49
-28.95
-31.12
-30.13
-27.60
-25.35
-24.41
-24.82
-29.61
-39.11
-49.84
-57.59
-60.84
-60.64
-59.11
-58.22
-59.06
-67.49
-84.46
-104.27
-119.73
-128.36
-132.67
-137.49
-147.60
-166.26
-202.40
-257.92
-324.49
-389.24
-441.93
-476.32
-489.05
-479.81
-403.19
-256.84
-86.11
57.39
154.83
213.46
247.12
266.09
275.41
277.51
267.12
245.00
220.04
203.13
199.20
206.92
220.83
234.42
241.37
231.59
202.03
159.07
114.23
76.71
51.19
39.38
38.33
42.95
43.32
37.71
29.36
22.89
19.41
17.05
11.72
1.03
-13.52
-29.62
-43.88
-53.91
-55.43
-49.70
-41.06
-36.70
-42.28
-59.11
-84.95
-114.52
-141.19
-158.29
-161.81
-140.23
-94.35
-38.55
9.85
42.20
59.64
67.51
71.11
72.94
73.43
70.20
62.30
51.82
42.52
37.36
37.02
40.32
44.83
48.23
47.76
42.76
35.21
28.35
24.59
24.51
27.21
30.86
33.69
33.77
30.59
25.50
20.62
17.60
16.97
18.49
21.52
25.30
28.34
29.05
26.05
18.49
6.49
-8.70
-24.60
-38.41
-48.05
-53.03
-54.20
-52.86
-50.37
-46.83
-42.10
-36.12
-29.25
-22.25
-15.95
-10.81
-6.71
-3.18
0.30
3.94
7.51
10.58
12.70
13.70
13.71
13.16
12.51
12.21
12.39
12.96
13.64
14.11
14.05
13.18
11.39
8.80
5.72
2.55
-0.35
-2.78
-4.74
-6.41
-8.03
-9.77
-11.60
-13.36
-14.85
-15.97
-16.78
-17.41
-18.07
-18.86
-19.74
-20.55
-21.10
-21.26
-21.00
-20.61
-20.34
-20.35
-20.72
-21.35
-22.05
-22.54
-22.51
-21.62
-19.64
-16.48
-12.25
-7.31
-2.16
2.68
6.80
10.03
12.38
13.98
15.01
15.65
16.06
16.37
16.69
17.10
17.57
17.94
18.01
17.59
16.59
15.05
13.15
11.09
9.05
7.11
5.28
3.48
1.66
-0.17
-1.93
-3.44
-4.50
-4.93
-4.71
-3.99
-3.10
-2.41
-2.25
-2.79
-3.96
-5.50
-7.03
-8.24
-9.03
-9.52
-10.03
-10.82
-12.03
-13.51
-14.90
-15.77
-15.75
-14.63
-12.34
-8.95
-4.63
0.32
5.54
10.56
14.96
18.49
21.04
22.73
23.75
24.27
24.42
24.31
24.02
23.62
23.18
22.62
21.83
20.65
19.05
17.10
15.01
13.02
11.27
9.85
8.70
7.80
7.12
6.63
6.27
5.89
5.31
4.37
3.03
1.33
-0.56
-2.55
-4.60
-6.74
-9.00
-11.36
-13.69
-15.79
-17.54
-18.87
-19.81
-20.35
-20.41
-19.84
-18.42
-16.09
-12.96
-9.29
-5.38
-1.48
2.22
5.56
8.34
10.31
11.29
11.30
10.60
9.63
8.82
8.38
8.29
8.33
8.31
8.18
8.05
8.05
8.25
8.55
8.75
8.66
8.18
7.39
6.39
5.35
4.33
3.31
2.20
0.88
-0.65
-2.40
-4.23
-6.07
-7.87
-9.66
-11.48
-13.38
-15.38
-17.48
-19.63
-21.76
-23.72
-25.27
-26.12
-25.96
-24.63
-22.17
-18.81
-14.93
-10.87
-6.84
-2.88
1.03
4.91
8.72
12.32
15.57
18.35
20.59
22.24
23.32
23.91
24.13
24.12
24.05
23.96
23.82
23.51
22.87
21.84
20.44
18.80
17.11
15.53
14.14
12.93
11.80
10.59
9.15
7.42
5.39
3.20
1.03
-0.91
-2.55
-3.92
-5.20
-6.67
-8.52
-10.86
-13.57
-16.42
-19.12
-21.36
-22.94
-23.73
-23.64
-22.64
-20.74
-17.97
-14.43
-10.28
-5.77
-1.20
3.14
6.97
10.15
12.66
14.59
16.10
17.30
18.24
18.86
19.06
18.79
18.10
17.18
16.31
15.72
15.54
15.70
16.00
16.17
16.00
15.42
14.48
13.36
12.22
11.15
10.20
9.28
8.31
7.18
5.85
4.31
2.67
1.07
-0.35
-1.52
-2.52
-3.55
-4.87
-6.65
-8.93
-11.54
-14.14
-16.34
-17.80
-18.30
-17.78
-16.27
-13.91
-10.86
-7.24
-3.25
0.95
5.14
9.12
12.67
15.65
17.96
19.62
20.71
21.34
21.62
21.57
21.20
20.51
19.53
18.35
17.07
15.78
14.50
13.25
12.06
10.97
10.01
9.18
8.38
7.47
6.34
5.00
3.57
2.25
1.15
0.25
-0.63
-1.74
-3.25
-5.18
-7.34
-9.41
-11.09
-12.23
-12.84
-13.09
-13.19
-13.31
-13.46
-13.57
-13.52
-13.23
-12.72
-12.11
-11.62
-11.54
-12.34
-14.48
-18.22
-23.26
-28.64
-32.77
-34.08
-31.56
-25.36
-16.72
-7.47
0.69
6.86
11.13
14.22
17.00
19.89
22.80
25.34
27.12
28.05
28.42
28.54
28.62
28.57
28.07
26.84
24.81
22.20
19.34
16.48
13.61
10.53
7.06
3.15
-0.97
-4.91
-8.31
-11.02
-13.05
-14.59
-15.82
-16.87
-17.83
-18.78
-19.85
-21.20
-22.98
-25.21
-27.75
-30.25
-32.23
-33.17
-32.68
-30.60
-27.06
-22.41
-17.12
-11.65
-6.30
-1.21
3.57
8.00
11.95
15.25
17.73
19.34
20.15
20.39
20.34
20.19
20.08
20.04
20.01
19.97
19.90
19.79
19.68
19.52
19.26
18.75
17.83
16.36
14.29
11.80
9.20
6.85
4.97
3.54
2.23
0.60
-1.67
-4.59
-7.83
-10.85
-13.15
-14.51
-15.09
-15.26
-15.54
-16.32
-17.80
-19.94
-22.57
-25.38
-28.00
-30.10
-31.35
-31.54
-30.55
-28.37
-25.05
-20.76
-15.72
-10.21
-4.60
0.78
5.63
9.73
12.99
15.40
17.03
17.98
18.39
18.37
18.05
17.50
16.76
15.89
14.95
14.08
13.42
13.06
12.94
12.87
12.59
11.89
10.75
9.33
7.93
6.80
6.02
5.42
4.64
3.29
1.14
-1.78
-5.11
-8.35
-11.01
-12.77
-13.61
-13.79
-13.74
-13.89
-14.51
-15.72
-17.43
-19.47
-21.55
-23.38
-24.66
-25.11
-24.53
-22.86
-20.13
-16.54
-12.35
-7.83
-3.26
1.20
5.45
9.43
13.08
16.27
18.87
20.70
21.70
21.92
21.54
20.79
19.89
18.93
17.94
16.91
15.84
14.77
13.73
12.74
11.74
10.71
9.65
8.58
7.53
6.47
5.34
4.08
2.72
1.35
0.17
-0.70
-1.30
-1.85
-2.71
-4.17
-6.36
-9.11
-12.07
-14.82
-17.07
-18.74
-19.98
-21.01
-22.01
-23.05
-24.05
-24.83
-25.18
-24.87
-23.78
-21.87
-19.17
-15.73
-11.63
-6.97
-1.90
3.36
8.50
13.13
16.81
19.28
20.50
20.74
20.43
20.04
19.87
20.03
20.22
19.94
18.86
17.10
15.20
13.86
13.59
14.42
15.93
17.14
16.89
14.62
10.80
6.66
3.66
2.70
3.83
6.30
8.47
8.56
5.75
0.77
-4.61
-8.56
-10.02
-8.81
-5.02
0.79
7.75
14.80
20.47
22.56
18.81
8.52
-7.32
-22.32
-28.20
-21.72
-7.90
4.10
7.11
-0.22
-13.72
-26.79
-34.21
-35.02
-32.10
-29.20
-28.19
-28.60
-28.75
-27.33
-24.32
-20.51
-17.29
-15.70
-15.78
-16.50
-16.66
-15.75
-14.14
-12.72
-12.09
-12.36
-13.23
-13.93
-13.58
-11.79
-8.95
-6.15
-4.84
-6.32
-11.25
-18.96
-26.93
-30.99
-27.05
-12.53
11.34
39.22
63.12
75.40
72.00
54.28
28.41
2.68
-15.94
-24.34
-23.58
-17.26
-9.24
-1.90
3.97
8.44
11.53
12.79
11.53
7.53
1.74
-4.12
-8.30
-10.10
-10.18
-9.83
-10.03
-10.83
-11.33
-10.19
-6.54
-0.60
6.13
11.34
13.44
12.15
8.33
3.36
-1.43
-5.33
-7.96
-9.15
-9.52
-9.37
-8.73
-7.48
-5.55
-2.56
2.31
10.25
22.36
37.06
51.29
62.53
70.39
76.04
80.83
85.07
87.43
87.29
81.38
68.84
51.60
33.52
18.65
9.75
7.48
10.48
17.47
25.76
33.05
37.58
38.18
34.16
25.56
13.36
-0.64
-14.05
-24.97
-31.51
-32.53
-28.19
-20.22
-11.55
-5.42
-4.15
-8.23
-16.42
-25.87
-33.52
-37.49
-37.62
-35.07
-31.45
-28.03
-25.39
-23.78
-23.06
-23.04
-23.52
-24.35
-25.43
-26.77
-28.44
-30.45
-32.68
-34.70
-35.99
-36.23
-35.55
-34.60
-34.09
-34.42
-35.41
-36.52
-37.16
-37.00
-36.05
-34.55
-32.93
-31.42
-29.84
-27.61
-24.04
-18.66
-11.60
-3.56
4.32
10.63
14.37
15.50
14.93
13.98
13.89
15.16
17.67
20.74
22.77
22.30
18.93
13.56
7.74
3.16
0.73
0.92
3.47
6.10
6.31
3.10
-2.35
-7.81
-10.85
-10.62
-6.93
-0.58
4.78
5.61
1.17
-5.96
-11.98
-13.41
-9.62
-1.12
10.61
20.73
24.47
19.72
7.15
-12.35
-37.93
-69.78
-104.94
-119.64
-94.57
-30.59
51.52
129.20
185.17
223.56
249.20
266.65
279.16
284.14
278.15
260.40
234.36
205.62
180.23
160.80
148.20
141.26
135.12
124.72
107.85
85.95
61.89
38.62
16.57
-4.47
-24.85
-46.01
-68.50
-90.94
-110.51
-125.04
-133.86
-138.60
-140.81
-141.08
-139.76
-136.98
-133.18
-129.41
-127.42
-128.72
-134.13
-142.85
-153.03
-163.11
-172.32
-180.71
-188.67
-196.74
-205.03
-213.19
-220.18
-224.41
-223.70
-215.68
-198.42
-171.41
-136.31
-96.64
-56.98
-21.72
6.01
25.11
36.46
42.28
45.10
46.55
47.53
48.44
49.17
49.20
47.79
44.41
38.95
31.95
23.47
14.68
7.81
4.92
6.58
11.61
17.87
23.13
25.72
22.61
13.05
-0.83
-15.71
-29.43
-41.44
-52.06
-61.75
-70.70
-82.12
-96.52
-110.66
-120.09
-122.73
-119.46
-112.91
-106.26
-102.74
-109.78
-130.87
-162.99
-198.72
-230.48
-252.25
-260.03
-252.40
-202.83
-110.84
-3.70
86.06
144.61
175.92
189.89
194.68
194.99
192.33
182.52
164.66
143.36
125.41
114.77
111.53
113.35
118.20
123.70
124.86
120.09
112.40
106.71
106.19
111.52
121.78
136.06
152.29
165.35
171.11
168.09
157.06
139.82
119.07
93.81
67.69
45.18
28.61
18.96
15.91
17.72
21.48
23.99
23.08
18.78
11.70
1.93
-10.19
-24.02
-38.48
-52.21
-63.87
-72.18
-75.73
-74.34
-69.48
-63.01
-56.66
-51.64
-48.38
-46.98
-47.12
-47.83
-48.28
-48.35
-47.33
-43.92
-36.51
-24.11
-8.47
6.01
14.60
17.42
13.82
3.95
-10.71
-29.47
-49.57
-68.19
-83.14
-92.89
-96.58
-94.37
-86.41
-73.17
-55.93
-36.62
-17.82
-1.57
11.35
21.42
29.16
35.02
38.92
40.22
38.58
34.11
27.68
20.60
13.87
7.54
1.31
-5.05
-11.43
-17.23
-21.95
-25.30
-27.29
-28.11
-28.07
-27.28
-25.70
-23.32
-20.14
-16.31
-11.89
-6.95
-1.53
4.17
9.85
15.20
20.00
24.23
27.84
30.77
32.83
33.82
33.71
32.80
31.67
30.97
31.12
32.10
33.44
34.47
34.62
33.65
31.70
29.17
26.45
23.89
21.67
19.89
18.64
17.96
17.77
17.80
17.63
16.80
15.12
12.74
10.24
8.30
7.43
7.60
8.15
7.97
5.81
0.92
-6.62
-15.69
-24.33
-30.41
-32.27
-29.38
-22.48
-13.28
-3.70
4.78
11.61
17.22
22.53
28.50
35.62
43.70
51.69
57.60
58.84
52.96
38.84
17.86
-5.74
-25.74
-36.06
-33.13
-17.39
6.88
33.28
55.82
70.77
77.23
76.39
70.35
61.12
50.36
39.60
30.31
23.69
20.16
19.11
19.00
18.08
15.11
9.95
3.55
-2.61
-7.15
-9.42
-9.69
-9.01
-8.83
-10.53
-14.92
-21.91
-30.52
-39.09
-45.75
-49.10
-48.66
-45.02
-39.57
-33.89
-29.12
-25.59
-22.78
-19.69
-15.46
-9.79
-3.16
3.26
8.05
10.04
8.93
5.67
2.43
2.08
7.22
19.16
37.17
58.47
78.97
94.53
102.08
100.35
89.95
73.09
52.91
32.93
16.37
5.42
0.79
1.49
5.17
9.05
10.92
9.89
6.47
2.04
-2.03
-4.97
-6.85
-8.32
-10.13
-12.83
-16.55
-21.05
-25.82
-30.23
-33.65
-35.60
-35.86
-34.53
-31.96
-28.69
-25.24
-22.00
-19.13
-16.61
-14.28
-12.02
-9.82
-7.89
-6.54
-6.09
-6.62
-7.89
-9.34
-10.28
-10.20
-9.11
-7.66
-6.99
-8.33
-12.45
-19.14
-26.85
-32.77
-33.56
-26.33
-9.94
14.18
42.04
68.06
86.77
94.47
90.19
75.73
54.84
32.02
11.42
-3.87
-12.21
-13.53
-9.27
-2.04
5.00
9.09
8.67
3.85
-3.84
-12.06
-18.54
-21.84
-21.61
-18.51
-13.68
-8.35
-3.46
0.47
3.33
5.44
7.19
8.87
10.45
11.67
12.08
11.30
9.21
6.02
2.40
-1.04
-4.05
-6.84
-9.80
-13.19
-16.85
-20.20
-22.41
-22.28
-19.38
-14.50
-9.40
-5.97
-5.36
-7.41
-10.58
-12.34
-9.04
1.50
18.82
39.78
60.04
75.50
83.33
82.48
73.84
61.59
50.37
43.73
43.57
50.46
63.80
81.51
100.39
117.09
131.31
143.50
153.69
161.06
164.59
163.46
156.96
144.62
114.00
62.17
-1.95
-62.57
-108.26
-136.64
-151.24
-157.11
-158.12
-156.31
-150.34
-139.36
-124.67
-109.42
-96.63
-87.79
-82.74
-80.33
-78.97
-75.69
-68.84
-58.88
-47.96
-38.26
-30.95
-26.23
-23.67
-22.54
-21.14
-18.37
-14.30
-10.00
-6.87
-5.56
-6.37
-9.33
-14.16
-19.76
-25.06
-29.30
-32.28
-34.05
-34.86
-35.18
-35.57
-36.59
-38.51
-41.60
-45.74
-50.17
-53.18
-52.43
-45.90
-32.84
-14.49
6.22
25.48
40.24
49.17
52.92
53.32
52.26
50.74
48.66
46.32
43.42
39.75
35.43
30.95
27.05
24.42
23.50
24.33
26.59
29.45
31.89
32.87
31.55
27.44
20.44
10.81
-0.49
-11.88
-21.75
-28.88
-32.84
-34.06
-33.64
-32.92
-33.38
-35.46
-38.36
-40.78
-41.58
-40.26
-36.96
-32.39
-27.54
-24.28
-23.39
-24.15
-25.27
-25.98
-26.24
-26.58
-27.78
-30.53
-36.61
-46.11
-57.06
-67.10
-75.12
-81.37
-86.80
-92.52
-99.34
-109.77
-124.35
-140.78
-155.39
-164.86
-166.68
-159.30
-142.77
-106.93
-55.38
-3.41
34.74
55.60
63.55
64.24
61.08
54.92
46.17
33.77
19.43
7.62
2.99
6.57
16.27
28.39
39.11
46.71
49.75
49.52
49.77
54.61
66.49
86.04
112.68
139.54
160.69
169.37
161.45
137.64
103.43
67.12
37.05
18.63
12.33
14.76
19.47
20.84
16.56
7.62
-3.31
-13.68
-22.17
-28.77
-33.26
-35.15
-32.87
-23.95
-6.65
18.75
49.41
80.48
106.44
122.97
127.11
117.30
93.02
54.92
5.73
-48.89
-100.41
-139.07
-156.61
-149.37
-119.71
-75.19
-26.10
17.55
48.26
61.98
58.05
38.90
9.52
-23.25
-51.90
-70.05
-74.28
-65.09
-46.50
-24.33
-4.21
10.27
18.14
20.72
20.55
20.27
21.82
26.06
32.64
40.11
46.38
49.29
47.32
40.11
28.62
14.84
1.09
-10.62
-18.96
-23.51
-24.61
-22.98
-19.59
-15.46
-11.73
-9.50
-9.57
-12.08
-16.57
-22.30
-28.47
-34.29
-39.06
-42.16
-43.22
-42.40
-40.35
-38.45
-38.53
-41.84
-48.17
-55.67
-61.59
-63.52
-60.49
-52.54
-41.34
-29.47
-18.97
-10.18
-2.11
6.61
16.46
26.51
36.14
43.69
46.51
42.57
32.38
19.02
7.17
0.81
1.99
12.40
30.28
49.63
63.40
67.54
62.34
52.63
45.20
46.82
64.64
99.98
145.33
188.03
216.38
223.34
208.41
175.92
115.62
35.16
-39.89
-84.45
-92.42
-73.44
-47.49
-28.94
-25.16
-35.55
-56.10
-75.16
-82.56
-74.35
-53.23
-26.36
0.38
24.08
46.47
73.99
110.16
148.71
175.85
179.07
155.05
113.79
71.86
43.76
36.19
44.31
53.28
47.33
19.16
-32.56
-92.54
-139.71
-162.36
-163.83
-155.22
-145.68
-137.00
-124.44
-102.84
-71.07
-35.56
-7.37
4.76
-0.27
-16.65
-36.09
-52.32
-63.63
-71.22
-77.19
-82.00
-83.19
-76.35
-58.73
-31.74
-0.54
27.25
45.43
51.88
48.19
38.09
25.93
15.09
7.12
2.73
2.14
5.50
11.99
18.89
21.83
16.42
0.46
-25.25
-55.28
-81.13
-94.07
-88.85
-66.23
-32.75
2.24
30.00
45.01
48.07
43.86
37.65
32.68
29.16
25.41
19.82
12.49
5.20
0.70
0.43
3.88
8.95
12.93
14.09
12.29
8.39
3.35
-2.36
-8.85
-15.80
-21.66
-23.84
-20.18
-10.68
1.59
11.77
15.35
10.51
-0.63
-12.92
-20.71
-20.55
-12.67
-0.59
10.95
18.30
20.22
17.99
14.20
11.03
9.20
7.89
5.78
2.12
-2.56
-6.74
-8.64
-7.45
-3.93
-0.01
2.16
1.41
-1.91
-6.17
-9.43
-10.35
-8.86
-5.97
-3.10
-1.31
-0.80
-1.10
-1.53
-1.71
-1.92
-3.03
-6.08
-11.71
-20.15
-30.51
-41.26
-50.95
-58.70
-64.37
-68.42
-71.48
-74.02
-76.09
-77.23
-76.63
-73.26
-66.24
-55.26
-40.99
-25.14
-9.97
2.55
11.58
17.63
22.10
26.44
31.41
36.86
41.99
46.04
48.73
50.28
51.09
51.30
50.74
49.15
46.46
42.97
39.27
35.98
33.36
31.17
28.71
25.12
19.77
12.63
4.22
-4.43
-12.25
-18.42
-22.53
-24.63
-25.05
-24.23
-22.62
-20.61
-18.52
-16.62
-15.10
-13.97
-13.09
-12.18
-10.88
-8.88
-6.02
-2.29
2.12
6.81
11.20
14.65
16.55
16.50
14.47
10.83
6.28
1.66
-2.32
-5.32
-7.39
-8.83
-9.87
-10.49
-10.40
-9.10
-6.28
-1.95
3.45
9.18
14.49
18.76
21.52
22.35
20.88
16.86
10.48
2.46
-5.89
-13.13
-18.05
-20.04
-19.17
-15.93
-10.78
-4.00
4.18
13.25
22.14
29.48
34.26
36.50
37.43
38.79
41.76
46.03
49.64
49.88
44.74
34.08
19.91
5.52
-6.02
-13.17
-16.46
-17.87
-19.51
-22.26
-25.11
-25.54
-20.67
-8.55
11.06
36.72
65.99
96.10
124.24
147.51
162.96
168.31
163.05
149.34
131.72
115.52
104.54
99.32
97.31
94.60
88.34
78.30
66.53
55.74
47.28
40.29
32.43
21.59
7.36
-8.58
-23.59
-35.58
-44.24
-51.05
-58.42
-68.35
-81.41
-96.59
-111.79
-124.78
-134.04
-139.21
-141.03
-140.82
-139.93
-139.12
-138.29
-136.57
-132.82
-126.16
-116.37
-103.96
-89.83
-74.85
-59.65
-44.63
-30.29
-17.35
-6.74
0.77
4.98
6.54
6.72
6.91
8.11
10.54
13.72
16.84
19.21
20.56
21.00
20.83
20.17
18.75
15.92
10.90
3.13
-7.44
-20.33
-34.67
-49.57
-64.29
-78.43
-91.82
-104.45
-116.40
-127.95
-139.56
-151.87
-165.46
-180.34
-195.56
-208.97
-217.47
-217.83
-207.54
-185.64
-152.85
-111.33
-64.07
-14.28
34.88
80.52
120.05
151.54
174.04
187.92
194.73
196.73
196.01
193.86
190.59
185.94
179.70
172.15
164.15
156.79
150.81
146.15
141.95
136.90
129.90
120.50
108.94
95.96
82.37
68.74
55.42
42.76
31.29
21.69
14.62
10.45
9.12
10.09
12.57
15.71
18.79
21.08
21.68
19.27
12.34
-0.33
-18.81
-41.28
-63.98
-82.12
-91.66
-91.03
-81.68
-67.12
-51.12
-36.21
-23.37
-12.95
-5.53
-2.57
-5.63
-14.97
-28.56
-42.27
-51.34
-52.13
-43.30
-25.33
-0.48
27.81
55.41
78.27
93.48
99.98
98.94
93.14
86.60
82.38
81.25
81.59
80.65
76.14
67.19
55.06
42.38
33.10
30.14
34.16
43.71
56.34
69.77
82.08
91.97
89.93
68.30
26.15
-27.73
-79.65
-118.42
-139.20
-143.27
-135.38
-118.03
-90.03
-49.69
2.25
60.61
116.43
159.52
176.86
162.02
117.09
52.25
-19.48
-87.33
-146.04
-191.88
-220.69
-231.39
-226.31
-208.97
-181.96
-148.22
-112.54
-80.83
-57.70
-45.24
-42.83
-47.30
-54.42
-59.76
-59.52
-50.36
-29.82
2.13
40.42
77.23
102.86
108.17
91.55
59.38
22.50
-8.98
-29.93
-41.46
-47.93
-51.99
-51.25
-39.65
-13.01
26.04
66.99
96.04
102.67
85.21
52.13
18.23
-2.70
-5.14
6.35
20.66
26.79
19.34
0.43
-22.65
-41.18
-49.41
-46.93
-37.59
-26.80
-18.88
-15.76
-16.67
-19.54
-22.21
-23.35
-23.15
-22.37
-21.32
-19.70
-17.38
-15.13
-14.70
-17.07
-21.66
-25.88
-25.79
-18.18
-2.43
18.86
41.05
57.92
66.72
68.19
65.12
60.61
56.98
55.53
56.45
58.57
58.58
53.52
39.79
15.90
-15.71
-49.17
-77.31
-94.66
-97.60
-90.12
-78.71
-68.56
-61.21
-53.79
-41.55
-21.62
4.62
33.93
61.68
85.21
103.88
117.08
124.45
125.04
117.34
101.09
79.08
56.59
39.87
32.78
33.43
37.83
41.95
42.46
37.10
24.61
3.69
-27.49
-68.72
-119.36
-173.72
-221.69
-252.66
-259.20
-239.35
-197.26
-141.56
-72.57
-4.54
46.35
75.21
89.55
100.21
112.96
125.91
131.95
123.32
94.18
47.06
-7.94
-58.20
-93.21
-107.66
-102.38
-83.42
-59.36
-39.66
-30.16
-28.70
-31.31
-33.99
-33.22
-26.20
-11.87
8.33
29.55
46.26
52.82
46.86
29.81
5.98
-19.02
-40.89
-57.77
-70.10
-78.39
-82.96
-82.33
-76.22
-66.23
-55.17
-46.52
-42.85
-44.52
-49.04
-52.07
-49.46
-39.44
-23.46
-5.12
10.93
21.07
24.28
22.43
19.32
19.44
26.53
39.93
59.18
82.86
108.32
131.45
146.99
149.85
137.01
108.92
70.00
27.81
-9.97
-37.84
-53.62
-58.28
-54.63
-46.02
-35.73
-26.93
-22.22
-23.93
-33.30
-49.93
-71.67
-95.12
-116.29
-131.53
-138.08
-134.19
-119.62
-95.64
-64.77
-30.34
4.31
36.24
63.05
82.77
93.92
95.74
88.95
76.23
61.97
51.00
46.85
50.42
59.73
71.00
80.27
84.78
83.67
77.72
68.58
58.02
47.50
38.08
30.38
24.59
20.48
17.48
14.86
11.93
8.30
3.98
-0.62
-4.78
-7.71
-8.89
-8.28
-6.46
-4.55
-3.74
-4.92
-8.20
-12.96
-17.98
-21.94
-23.90
-23.62
-21.67
-19.13
-17.15
-16.49
-17.28
-19.04
-21.04
-22.59
-23.26
-22.83
-21.22
-18.33
-14.15
-8.88
-3.08
2.38
6.66
9.37
10.75
11.62
12.97
15.45
19.06
23.14
26.69
28.84
29.15
27.74
25.13
22.04
19.04
16.52
14.65
13.42
12.71
12.36
12.21
12.09
11.90
11.60
11.23
10.90
10.78
11.03
11.88
13.53
16.07
19.40
23.13
26.63
29.17
30.10
29.17
26.61
23.08
19.41
16.38
14.41
13.55
13.48
13.72
13.86
13.67
13.11
12.30
11.35
10.27
8.95
7.28
5.26
3.06
1.03
-0.42
-1.04
-0.76
0.23
1.67
3.32
5.05
6.82
8.64
10.47
12.14
13.38
13.88
13.44
12.11
10.23
8.33
6.98
6.51
6.85
7.56
8.03
7.78
6.73
5.23
3.96
3.60
4.54
6.69
9.55
12.41
14.69
16.16
17.10
18.15
20.04
23.34
28.12
33.90
39.70
44.23
46.20
44.74
39.82
32.32
23.75
15.80
9.67
5.54
2.22
-2.63
-11.72
-26.95
-48.49
-74.22
-100.06
-121.12
-133.53
-135.93
-130.08
-120.08
-110.26
-103.50
-100.32
-99.34
-98.48
-96.25
-92.21
-86.60
-79.40
-69.25
-54.41
-34.01
-9.01
17.98
43.72
65.46
81.72
92.47
99.92
106.31
112.64
118.30
122.06
123.20
121.96
119.24
116.06
114.84
116.80
121.10
125.26
127.04
126.06
123.78
122.03
121.58
124.39
131.31
142.00
155.00
168.78
181.82
192.19
196.62
175.63
119.39
34.51
-58.55
-140.20
-200.94
-239.80
-258.60
-258.58
-238.85
-197.49
-137.18
-66.18
3.82
60.10
89.21
86.75
60.78
27.55
3.35
-5.48
-1.26
4.95
4.52
-5.06
-20.39
-36.35
-50.53
-62.00
-72.41
-83.93
-97.43
-110.38
-117.92
-115.11
-100.50
-77.82
-54.22
-37.74
-33.51
-42.40
-60.58
-81.60
-98.59
-106.98
-105.36
-94.78
-77.59
-56.41
-34.40
-15.19
-2.73
0.38
-5.55
-16.66
-26.93
-31.04
-27.10
-17.75
-8.34
-3.83
-5.90
-12.36
-18.76
-21.16
-17.89
-9.59
1.75
14.34
26.63
36.81
42.67
42.08
34.11
20.15
3.83
-10.25
-17.88
-16.90
-8.01
5.52
19.00
27.37
26.58
15.55
-3.99
-26.73
-45.98
-56.85
-57.79
-50.10
-37.12
-22.29
-9.37
-1.16
1.37
-0.28
-2.47
-0.19
11.85
35.48
70.99
113.17
153.50
183.39
197.38
193.97
174.34
141.88
100.43
54.73
8.06
-36.44
-75.99
-102.91
-113.78
-112.79
-108.60
-115.96
-138.49
-174.31
-216.57
-255.65
-282.56
-283.16
-253.16
-195.95
-120.29
-36.39
43.79
109.07
148.39
152.19
123.17
76.98
34.54
11.22
12.06
30.85
55.86
76.17
86.51
88.14
84.44
78.42
72.04
68.23
68.81
75.99
90.44
109.58
127.21
133.70
120.06
83.45
30.28
-25.84
-68.62
-85.54
-72.35
-34.32
17.37
65.14
92.72
91.32
62.08
14.74
-37.05
-80.79
-108.85
-119.87
-117.58
-106.78
-91.22
-73.14
-54.08
-36.16
-22.12
-14.25
-13.11
-17.23
-23.04
-26.55
-25.38
-19.69
-11.87
-5.16
-1.88
-2.49
-5.71
-9.07
-10.26
-8.23
-3.48
2.38
7.51
10.81
12.22
12.54
13.01
14.65
17.75
21.87
26.04
29.22
30.74
30.37
28.32
25.05
21.08
16.77
12.29
7.63
2.70
-2.43
-7.50
-11.94
-15.14
-16.68
-16.56
-15.29
-13.68
-12.52
-12.25
-12.85
-13.86
-14.68
-14.76
-13.73
-11.39
-7.69
-2.76
3.07
9.26
15.15
20.25
24.39
27.78
30.82
33.76
36.51
38.53
39.17
38.07
35.50
32.38
29.93
29.11
30.08
32.04
33.41
32.39
27.79
19.43
8.39
-3.44
-13.97
-21.61
-25.66
-26.35
-24.59
-21.53
-18.23
-15.48
-13.74
-13.21
-13.87
-15.48
-17.47
-19.03
-19.25
-17.50
-13.65
-8.24
-2.32
2.89
6.52
8.29
8.58
8.14
7.64
7.40
7.35
7.13
6.42
5.11
3.33
1.40
-0.35
-1.70
-2.56
-2.99
-3.11
-3.02
-2.71
-1.99
-0.59
1.78
5.14
9.14
13.06
16.08
17.61
17.60
16.59
15.46
15.05
15.74
17.31
19.02
19.89
19.08
16.15
11.16
4.61
-2.68
-9.82
-15.99
-20.62
-23.48
-24.65
-24.46
-23.33
-21.61
-19.45
-16.88
-13.89
-10.55
-7.14
-4.16
-2.15
-1.59
-2.64
-5.14
-8.67
-12.68
-16.61
-20.00
-22.47
-23.68
-23.36
-21.38
-17.78
-12.92
-7.39
-1.89
3.00
6.98
10.06
12.45
14.30
15.57
15.97
15.18
13.08
9.97
6.46
3.33
1.13
0.05
-0.09
0.33
0.97
1.63
2.23
2.71
2.96
2.83
2.24
1.28
0.20
-0.64
-0.98
-0.74
-0.09
0.62
1.01
0.86
0.17
-0.88
-2.03
-3.14
-4.19
-5.22
-6.24
-7.11
-7.65
-7.76
-7.54
-7.24
-7.13
-7.33
-7.70
-7.99
-7.99
-7.79
-7.66
-7.93
-8.71
-9.80
-10.78
-11.19
-10.82
-9.71
-8.21
-6.72
-5.58
-4.96
-4.86
-5.16
-5.67
-6.20
-6.54
-6.50
-5.96
-4.88
-3.37
-1.60
0.23
1.94
3.45
4.75
5.82
6.65
7.19
7.36
7.19
6.79
6.33
6.00
5.98
6.35
7.10
8.09
9.12
9.95
10.40
10.45
10.14
9.66
9.20
8.88
8.71
8.63
8.57
8.44
8.26
7.94
7.41
6.57
5.41
4.10
2.92
2.16
1.90
1.98
2.11
2.08
1.91
1.92
2.59
4.20
6.73
9.65
12.28
13.97
14.42
13.72
12.21
10.32
8.39
6.67
5.31
4.38
3.87
3.63
3.42
2.98
2.17
1.01
-0.31
-1.52
-2.43
-3.03
-3.41
-3.73
-4.05
-4.34
-4.57
-4.70
-4.79
-4.96
-5.39
-6.27
-7.74
-9.85
-12.55
-15.66
-18.93
-22.11
-24.99
-27.53
-29.85
-32.11
-34.40
-36.49
-37.83
-37.71
-35.50
-30.92
-24.15
-15.76
-6.52
2.81
11.58
19.27
25.50
29.94
32.42
32.94
31.65
28.83
24.76
19.78
14.32
8.89
4.07
0.33
-2.12
-3.35
-3.56
-2.94
-1.52
0.68
3.56
6.74
9.71
11.89
12.98
12.95
12.02
10.46
8.45
6.08
3.44
0.64
-2.10
-4.61
-6.79
-8.66
-10.26
-11.66
-12.84
-13.79
-14.52
-15.03
-15.26
-15.04
-14.12
-12.24
-9.37
-5.76
-1.92
1.53
4.05
5.37
5.50
4.67
3.20
1.37
-0.65
-2.80
-5.05
-7.30
-9.33
-10.89
-11.73
-11.71
-10.79
-8.99
-6.33
-2.86
1.28
5.77
10.09
13.68
16.10
17.25
17.40
16.96
16.24
15.28
13.85
11.67
8.71
5.26
1.88
-0.85
-2.57
-3.29
-3.30
-2.94
-2.49
-2.01
-1.44
-0.73
0.06
0.71
0.95
0.60
-0.39
-1.91
-3.77
-5.86
-8.19
-10.75
-13.53
-16.30
-18.72
-20.43
-21.24
-21.16
-20.42
-19.35
-18.18
-17.07
-16.05
-15.12
-14.29
-13.56
-12.89
-12.20
-11.40
-10.42
-9.31
-8.18
-7.22
-6.50
-5.89
-4.94
-3.00
0.50
5.78
12.39
19.29
25.18
29.02
30.45
29.79
27.74
24.93
21.59
17.70
13.28
8.69
4.72
2.21
1.59
2.68
4.73
6.88
8.52
9.52
10.02
10.21
10.07
9.33
7.70
4.97
1.17
-3.50
-8.66
-13.81
-18.36
-21.67
-23.28
-23.05
-21.26
-18.51
-15.48
-12.64
-10.15
-7.87
-5.65
-3.43
-1.37
0.26
1.30
1.68
1.51
0.95
0.15
-0.75
-1.61
-2.23
-2.45
-2.18
-1.54
-0.76
-0.15
0.14
0.16
0.11
0.22
0.50
0.74
0.55
-0.36
-2.06
-4.33
-6.73
-8.85
-10.49
-11.71
-12.72
-13.77
-14.99
-16.40
-17.95
-19.57
-21.22
-22.90
-24.64
-26.40
-28.17
-29.91
-31.55
-33.09
-34.50
-35.69
-36.48
-36.54
-35.46
-32.85
-28.32
-21.68
-12.92
-2.21
10.06
23.27
36.64
49.20
59.98
68.22
73.46
75.66
75.15
72.37
67.76
61.69
54.45
46.35
37.85
29.53
22.02
15.86
11.27
8.21
6.33
5.22
4.50
3.92
3.44
3.07
2.87
2.86
3.01
3.28
3.67
4.25
5.10
6.37
8.05
10.01
11.86
13.05
13.00
11.27
7.59
1.97
-5.41
-14.17
-23.64
-32.91
-40.88
-46.48
-48.97
-48.22
-44.65
-39.00
-32.03
-24.36
-16.43
-8.68
-1.64
4.16
8.31
10.76
11.78
11.84
11.40
10.69
9.77
8.62
7.38
6.27
5.59
5.46
5.75
6.13
6.14
5.48
4.08
2.15
0.07
-1.73
-2.98
-3.59
-3.57
-3.02
-2.00
-0.61
1.02
2.70
4.18
5.32
6.03
6.40
6.43
6.10
5.22
3.61
1.22
-1.78
-5.02
-8.16
-10.94
-13.25
-14.95
-15.83
-15.52
-13.75
-10.49
-6.13
-1.35
3.14
6.85
9.62
11.51
12.65
13.09
12.88
12.16
11.18
10.26
9.62
9.30
9.21
9.21
9.25
9.38
9.63
9.89
9.98
9.65
8.83
7.66
6.44
5.47
4.90
4.68
4.66
4.70
4.72
4.70
4.59
4.27
3.60
2.52
1.13
-0.31
-1.43
-1.90
-1.58
-0.63
0.54
1.40
1.49
0.62
-1.07
-3.13
-4.95
-5.99
-5.99
-5.10
-3.81
-2.78
-2.55
-3.36
-5.12
-7.52
