1.593696872000000000e+09
-2.999999999999999889e-02
5.059999999999999609e+00
1.791000000000000014e+01
7.934000000000000341e+01
2.282500000000000000e+02
-4.869800000000000182e+02
-7.610000000000000320e+00
1.504000000000000057e+02
2.903999999999999915e+01
6.406999999999999318e+01
3.087000000000000099e+01
-5.061999999999999744e+01
-1.289000000000000057e+01
2.899999999999999911e+00
9.750000000000000000e+00
2.100000000000000000e+01
-1.167999999999999972e+01
-5.200000000000000178e+00
5.300000000000000266e-01
4.879999999999999893e+00
-3.585999999999999943e+01
1.443999999999999950e+01
-1.340000000000000080e+00
-4.080000000000000071e+00
-1.072000000000000064e+01
-1.299000000000000021e+01
-3.870000000000000107e+00
7.040000000000000036e+00
-4.500000000000000000e+00
-1.469999999999999973e+00
6.899999999999999467e-01
1.260000000000000009e+00
-1.427999999999999936e+01
-1.219999999999999973e+00
-7.632999999999999829e+01
1.053400000000000034e+02
-5.067000000000000171e+01
2.399999999999999911e+00
1.230000000000000071e+01
-6.129999999999999893e+00
-2.299999999999999822e+00
-9.381000000000000227e+01
5.225999999999999801e+01
-1.708999999999999986e+01
-3.058999999999999986e+01
-1.660000000000000142e+01
-3.499999999999999778e-01
-5.490000000000000213e+00
2.325000000000000000e+01
3.750000000000000000e+00
-4.099999999999999645e+00
1.615500000000000114e+02
-7.345000000000000284e+01
-1.473199999999999932e+02
-1.206800000000000068e+02
2.505699999999999932e+02
8.425000000000000000e+01
7.029000000000000625e+01
1.611800000000000068e+02
2.819999999999999840e+00
-1.052500000000000000e+02
-7.309999999999999432e+01
3.395000000000000284e+01
-1.639000000000000057e+01
3.012999999999999901e+01
-1.305000000000000071e+01
-1.324799999999999898e+02
-9.050000000000000711e+00
3.800999999999999801e+01
7.176999999999999602e+01
1.921899999999999977e+02
2.154699999999999989e+02
-1.228199999999999932e+02
-2.760400000000000205e+02
-1.980000000000000071e+01
-3.071000000000000085e+01
-4.000000000000000083e-02
-3.281000000000000227e+01
1.129599999999999937e+02
-1.437199999999999989e+02
1.210999999999999943e+02
-7.015999999999999659e+01
-1.387299999999999898e+02
5.461999999999999744e+01
-3.578999999999999915e+01
-4.249000000000000199e+01
-3.493999999999999773e+01
6.790000000000000568e+01
-1.857999999999999829e+01
-7.459999999999999964e+00
-3.607000000000000028e+01
3.556000000000000227e+01
-3.169999999999999929e+01
-6.060000000000000142e+01
-4.100000000000000000e+01
-1.388000000000000078e+01
-1.169999999999999929e+01
-3.453000000000000114e+01
-1.399000000000000021e+01
-3.520000000000000284e+01
-2.478999999999999915e+01
2.471000000000000085e+01
7.410000000000000142e+00
5.835000000000000142e+01
3.307000000000000028e+01
-6.498000000000000398e+01
7.190000000000000391e+00
1.291399999999999864e+02
-4.499599999999999795e+02
2.476999999999999886e+02
-1.565999999999999943e+02
-5.478000000000000114e+01
4.281000000000000227e+01
-4.850999999999999801e+01
9.276000000000000512e+01
-3.931000000000000227e+01
7.219999999999999751e+00
-7.548999999999999488e+01
2.692000000000000171e+01
5.278000000000000114e+01
-5.309000000000000341e+01
-3.303000000000000114e+01
1.061999999999999922e+01
-3.596999999999999886e+01
1.026999999999999957e+01
-5.419999999999999929e+00
1.400000000000000133e-01
-4.719999999999999751e+00
1.698000000000000043e+01
-2.407000000000000028e+01
2.901000000000000156e+01
4.153999999999999915e+01
1.271000000000000085e+01
-4.892999999999999972e+01
3.140000000000000124e+00
7.570000000000000284e+00
2.025000000000000000e+01
-1.870000000000000107e+00
3.150000000000000000e+01
1.298000000000000043e+01
1.808999999999999986e+01
1.214099999999999966e+02
5.192000000000000171e+01
-2.333700000000000045e+02
2.800000000000000000e+01
2.733999999999999986e+01
6.589999999999999858e+00
-1.964000000000000057e+01
-5.409000000000000341e+01
8.710000000000000853e+00
1.550000000000000044e+00
6.139999999999999680e+00
1.405000000000000071e+01
1.530000000000000027e+00
-2.064999999999999858e+01
7.660000000000000142e+00
1.284999999999999964e+01
-1.117999999999999972e+01
1.055000000000000071e+01
3.370000000000000107e+00
-2.729999999999999982e+00
-1.133999999999999986e+01
1.199999999999999956e-01
5.910000000000000142e+00
-1.386999999999999922e+01
5.849999999999999645e+00
1.669999999999999929e+00
-2.108999999999999986e+01
4.929999999999999716e+00
1.113000000000000078e+01
-1.040000000000000036e+01
-1.255000000000000071e+01
2.014999999999999858e+01
-8.419999999999999929e+00
-2.139000000000000057e+01
2.957000000000000028e+01
1.832999999999999829e+01
1.036700000000000017e+02
-2.076299999999999955e+02
-2.983000000000000114e+02
7.818999999999999773e+01
7.137000000000000455e+01
2.817999999999999972e+01
-1.067500000000000000e+02
3.133999999999999986e+01
6.478000000000000114e+01
3.452000000000000313e+01
-8.765000000000000568e+01
-2.857000000000000028e+01
-6.160999999999999943e+01
3.867000000000000171e+01
5.897999999999999687e+01
-4.388000000000000256e+01
8.826999999999999602e+01
-8.570000000000000284e+00
-3.292000000000000171e+01
-5.492999999999999972e+01
4.279999999999999716e+01
-1.350999999999999979e+01
-8.071999999999999886e+01
3.030999999999999872e+01
1.287500000000000000e+02
-8.400000000000000000e+01
-5.100000000000000089e-01
2.262000000000000099e+01
5.169999999999999929e+00
2.823000000000000043e+01
-4.768999999999999773e+01
-6.336999999999999744e+01
3.563000000000000256e+01
3.857999999999999829e+01
-5.000000000000000000e-01
3.911999999999999744e+01
4.820000000000000284e+00
-1.657000000000000028e+01
6.379999999999999893e+00
-5.000000000000000278e-02
-9.150000000000000355e+00
-5.950000000000000178e+00
1.612999999999999901e+01
4.974000000000000199e+01
1.450200000000000102e+02
-1.022699999999999960e+02
-1.545399999999999920e+02
7.820999999999999375e+01
-1.413100000000000023e+02
1.245799999999999983e+02
2.380000000000000071e+01
4.500000000000000000e+00
-1.816000000000000014e+01
3.490000000000000213e+00
5.730000000000000426e+00
4.535000000000000142e+01
-2.926999999999999957e+01
1.852500000000000000e+02
-5.064000000000000057e+01
1.620200000000000102e+02
-1.394999999999999929e+01
2.520000000000000018e+00
-9.199999999999999289e+00
4.359000000000000341e+01
2.376999999999999957e+01
-1.667000000000000171e+01
1.533999999999999986e+01
2.578999999999999915e+01
-2.067999999999999972e+01
-2.914999999999999858e+01
3.865999999999999659e+01
2.891000000000000014e+01
5.246000000000000085e+01
3.117999999999999972e+01
-6.153000000000000114e+01
-8.676999999999999602e+01
1.283999999999999986e+01
-1.873499999999999943e+02
3.411000000000000227e+02
-5.500000000000000000e+01
-3.076000000000000156e+01
8.130000000000000782e+00
4.160000000000000142e+00
-3.439999999999999858e+01
2.444000000000000128e+01
2.541000000000000014e+01
-3.293999999999999773e+01
1.316000000000000014e+01
2.019999999999999929e+01
-7.980000000000000426e+00
-3.767999999999999972e+01
9.773999999999999488e+01
-6.684000000000000341e+01
-7.346999999999999886e+01
1.844999999999999929e+01
9.815000000000000568e+01
-8.812000000000000455e+01
3.956000000000000227e+01
-1.958999999999999986e+01
2.198999999999999844e+01
6.500000000000000000e+00
-1.850000000000000000e+01
1.803999999999999915e+01
9.589999999999999858e+00
-1.700000000000000122e-01
-1.485999999999999943e+01
-2.229999999999999982e+00
-1.036999999999999922e+01
-3.274000000000000199e+01
2.339300000000000068e+02
-1.192300000000000040e+02
-3.087000000000000099e+01
-1.912000000000000099e+01
6.306000000000000227e+01
1.773999999999999844e+01
9.281000000000000227e+01
-1.528999999999999915e+01
5.343999999999999773e+01
-8.923999999999999488e+01
1.049000000000000021e+01
2.140000000000000124e+00
-3.589999999999999858e+00
3.609999999999999876e+00
-2.728000000000000114e+01
-1.855000000000000071e+01
3.740000000000000213e+00
-1.936999999999999886e+02
1.339199999999999875e+02
-8.845999999999999375e+01
-2.757000000000000028e+01
-3.350000000000000089e+00
4.718999999999999773e+01
-2.862000000000000099e+01
6.660000000000000142e+00
4.830000000000000071e+00
3.703000000000000114e+01
1.000999999999999979e+01
-3.814999999999999858e+01
-5.660999999999999943e+01
7.280000000000000249e+00
4.474000000000000199e+01
-2.332999999999999829e+01
2.625000000000000000e+01
1.013000000000000078e+01
-1.707999999999999829e+01
-1.583000000000000007e+01
1.630999999999999872e+01
8.669999999999999929e+00
-8.660000000000000142e+00
1.289000000000000057e+01
-4.469999999999999751e+00
-7.540000000000000036e+00
-2.092000000000000171e+01
1.408999999999999986e+01
4.830000000000000071e+00
-5.240000000000000213e+00
2.979999999999999982e+00
1.592999999999999972e+01
-4.899999999999999911e-01
-2.439000000000000057e+01
1.035999999999999943e+01
4.910000000000000142e+00
-1.083999999999999986e+01
1.710000000000000142e+01
3.085999999999999943e+01
-5.189000000000000057e+01
-2.200000000000000000e+01
1.233000000000000007e+01
-3.499999999999999778e-01
-8.849999999999999645e+00
2.364000000000000057e+01
7.401000000000000512e+01
3.682000000000000028e+01
-8.000000000000000167e-02
4.610000000000000320e+00
-1.030000000000000071e+01
1.102999999999999936e+01
-1.318999999999999950e+01
2.103999999999999915e+01
-2.839999999999999858e+00
-7.267000000000000171e+01
2.437999999999999901e+01
1.399999999999999911e+00
-8.279999999999999361e+00
4.300000000000000000e+01
-8.665999999999999659e+01
-1.480800000000000125e+02
-1.960000000000000142e+01
-1.664999999999999858e+01
-2.385999999999999943e+01
-1.619000000000000128e+01
1.626000000000000156e+01
1.542500000000000000e+02
-1.964799999999999898e+02
2.470000000000000195e+00
4.729999999999999716e+01
-1.324000000000000021e+01
1.103999999999999915e+01
6.820000000000000284e+01
-6.080000000000000071e+00
-1.189000000000000057e+01
3.828999999999999915e+01
2.157999999999999829e+01
1.426999999999999957e+01
-5.500000000000000444e-01
-7.673999999999999488e+01
2.660999999999999943e+01
-3.669999999999999929e+00
-4.496000000000000085e+01
-2.819999999999999840e+00
2.373999999999999844e+01
-6.320000000000000284e+01
-1.309199999999999875e+02
1.719699999999999989e+02
-5.160000000000000142e+01
-3.010999999999999943e+01
-4.824000000000000199e+01
6.000000000000000000e+01
-8.421999999999999886e+01
-3.657000000000000028e+01
-1.275999999999999979e+01
2.116000000000000014e+01
3.935000000000000142e+01
3.282999999999999829e+01
-2.808999999999999986e+01
2.180000000000000071e+01
2.423000000000000043e+01
-2.748999999999999844e+01
3.158999999999999986e+01
1.780000000000000071e+01
7.150000000000000355e+00
-6.277000000000000313e+01
-1.396000000000000085e+01
-1.283999999999999986e+01
-9.070999999999999375e+01
1.198400000000000034e+02
-1.231000000000000050e+01
-9.679999999999999716e+00
-2.944999999999999929e+01
2.873999999999999844e+01
1.167999999999999972e+01
-1.493999999999999950e+01
7.849999999999999645e+00
6.730000000000000426e+00
-1.635000000000000142e+01
6.559999999999999609e+00
2.266000000000000014e+01
1.344999999999999929e+01
-9.070000000000000284e+00
5.299999999999999822e+00
2.278999999999999915e+01
2.300000000000000000e+01
-1.121899999999999977e+02
6.907999999999999829e+01
6.745999999999999375e+01
-1.513700000000000045e+02
2.342000000000000171e+01
1.633999999999999986e+01
-2.689000000000000057e+01
6.429999999999999716e+00
7.940000000000000391e+00
-1.723999999999999844e+01
-2.612000000000000099e+01
1.817000000000000171e+01
1.717999999999999972e+01
-1.729999999999999982e+00
1.310000000000000053e+00
5.929999999999999716e+00
-7.800000000000000266e-01
1.250000000000000000e+00
3.939999999999999947e+00
-1.739999999999999991e+00
-1.851000000000000156e+01
1.034999999999999964e+01
-5.730000000000000426e+00
-1.278999999999999915e+01
2.128000000000000114e+01
-5.039999999999999858e+01
5.925000000000000000e+01
-2.878999999999999915e+01
-1.541000000000000014e+01
-1.750000000000000000e+00
-3.259999999999999787e+00
-1.739999999999999991e+00
9.730000000000000426e+00
-2.919999999999999929e+00
-1.080000000000000071e+00
9.799999999999999822e-01
-7.150000000000000355e+00
-6.899999999999999467e-01
-4.150000000000000355e+00
5.709999999999999964e+00
2.919999999999999929e+00
-3.209999999999999964e+00
4.959999999999999964e+00
6.200000000000000178e+00
4.199999999999999845e-01
-1.126999999999999957e+01
2.419999999999999929e+00
4.429999999999999716e+00
-4.089999999999999858e+00
-1.409999999999999920e+00
5.999999999999999778e-01
-2.689999999999999947e+00
-2.830000000000000071e+00
2.129999999999999893e+00
4.000000000000000083e-02
-3.700000000000000178e+00
8.269999999999999574e+00
6.879999999999999893e+00
-2.810000000000000053e+00
-2.899999999999999800e-01
7.549999999999999822e+00
-3.919999999999999929e+00
-9.910000000000000142e+00
2.279999999999999805e+00
1.340000000000000080e+00
-5.820000000000000284e+00
-2.930000000000000160e+00
7.009999999999999787e+00
2.319999999999999840e+00
-7.780000000000000249e+00
5.250000000000000000e+00
4.929999999999999716e+00
-8.900000000000000355e+00
-3.490000000000000213e+00
8.130000000000000782e+00
-3.509999999999999787e+00
-1.096000000000000085e+01
9.399999999999999467e-01
5.950000000000000178e+00
-5.000000000000000000e-01
-1.689999999999999947e+00
8.026000000000000512e+01
-1.490999999999999943e+02
-7.450000000000000178e+00
7.607999999999999829e+01
-2.376999999999999957e+01
-7.459999999999999964e+00
-4.059999999999999609e+00
2.609999999999999876e+00
2.057000000000000028e+01
-1.889000000000000057e+01
-2.703000000000000114e+01
6.150000000000000355e+00
4.099999999999999645e+00
-8.259999999999999787e+00
1.183999999999999986e+01
8.339999999999999858e+00
-2.620000000000000107e+00
-1.620000000000000107e+00
3.990000000000000213e+00
-9.310000000000000497e+00
-1.153999999999999915e+01
8.589999999999999858e+00
1.075000000000000000e+01
-1.946999999999999886e+01
1.719999999999999973e+00
1.269999999999999929e+01
7.080000000000000071e+00
8.399999999999999689e-01
7.893999999999999773e+01
1.616999999999999886e+02
-1.920600000000000023e+02
-5.568999999999999773e+01
-8.060999999999999943e+01
-9.500000000000000000e+00
-2.130000000000000071e+01
6.576000000000000512e+01
2.621000000000000085e+01
-2.999999999999999889e-02
1.310999999999999943e+01
1.117999999999999972e+01
-3.299999999999999822e+00
-8.609999999999999432e+00
5.990000000000000213e+00
-6.250000000000000000e+00
-1.410999999999999943e+01
1.780000000000000027e+00
1.517999999999999972e+01
4.547999999999999687e+01
1.689999999999999858e+01
3.510000000000000142e+01
-4.604999999999999716e+01
-8.415999999999999659e+01
-2.928999999999999915e+01
-6.603000000000000114e+01
5.745000000000000284e+01
7.662999999999999545e+01
2.646200000000000045e+02
-8.575000000000000000e+01
-8.400000000000000355e+00
-1.909999999999999920e+00
-9.220000000000000639e+00
1.144999999999999929e+01
2.242999999999999972e+01
3.359999999999999876e+00
-4.019999999999999574e+00
1.021000000000000085e+01
7.199999999999999734e-01
-9.039999999999999147e+00
2.129999999999999893e+00
1.270000000000000018e+00
-4.669999999999999929e+00
2.589999999999999858e+00
6.129999999999999893e+00
-1.389999999999999902e+00
-2.819999999999999840e+00
1.446000000000000085e+01
4.339999999999999858e+00
-5.509999999999999787e+00
3.642999999999999972e+01
5.650999999999999801e+01
-5.007999999999999829e+01
-8.076000000000000512e+01
-1.869000000000000128e+01
3.867999999999999972e+01
3.003999999999999915e+01
-1.036500000000000057e+02
6.086999999999999744e+01
3.453999999999999915e+01
-1.406000000000000050e+01
3.003000000000000114e+01
-4.668999999999999773e+01
3.479999999999999982e+00
2.635999999999999943e+01
-3.520000000000000018e+00
-2.160000000000000142e+00
3.939999999999999947e+00
1.419999999999999929e+00
-7.290000000000000036e+00
-5.299999999999999822e+00
8.439999999999999503e+00
-4.099999999999999645e+00
-1.274000000000000021e+01
8.980000000000000426e+00
2.359999999999999876e+00
-9.679999999999999716e+00
7.290000000000000036e+00
8.320000000000000284e+00
-3.009999999999999787e+00
1.550000000000000044e+00
3.020000000000000018e+00
-1.100000000000000089e+00
-1.449999999999999956e+00
9.400000000000000355e+00
5.889999999999999680e+00
5.950000000000000178e+00
3.400000000000000244e-01
-1.621000000000000085e+01
3.099999999999999978e-01
3.830000000000000071e+00
6.950000000000000178e+00
-7.639999999999999680e+00
-9.890000000000000568e+00
4.209999999999999964e+00
5.540000000000000036e+00
-7.660000000000000142e+00
6.599999999999999645e+00
6.519999999999999574e+00
-7.610000000000000320e+00
5.259999999999999787e+00
9.099999999999999645e+00
-4.000000000000000083e-02
-2.299999999999999822e+00
-5.980000000000000426e+00
-1.555000000000000071e+01
-9.970000000000000639e+00
4.067000000000000171e+01
2.317000000000000171e+01
-3.859999999999999876e+00
3.620000000000000107e+00
-7.070000000000000284e+00
-1.531000000000000050e+01
-6.870000000000000107e+00
5.500000000000000000e+00
3.959999999999999964e+00
-1.171000000000000085e+01
-4.539999999999999858e+01
3.917999999999999972e+01
1.580000000000000071e+00
-1.214000000000000057e+01
6.839999999999999858e+00
1.000000000000000021e-02
3.490000000000000213e+00
4.929999999999999716e+00
-1.083000000000000007e+01
-3.899999999999999911e+00
1.291000000000000014e+01
1.949999999999999956e+00
-3.149999999999999911e+00
4.940000000000000391e+00
-9.323999999999999488e+01
1.015000000000000036e+01
-5.563000000000000256e+01
-2.979999999999999982e+00
-1.520000000000000018e+00
-4.807000000000000028e+01
-2.994000000000000128e+01
-5.760000000000000142e+01
-3.975000000000000000e+01
5.979999999999999716e+01
3.574000000000000199e+01
-6.854000000000000625e+01
8.221999999999999886e+01
-1.992999999999999972e+01
1.097000000000000064e+01
2.414000000000000057e+01
5.610000000000000320e+00
-2.096000000000000085e+01
-8.100000000000000533e-01
-4.379999999999999893e+00
6.959999999999999964e+00
5.500000000000000000e+00
8.339999999999999858e+00
-1.506000000000000050e+01
-4.317000000000000171e+01
3.400999999999999801e+01
8.120999999999999375e+01
2.819999999999999840e+00
5.389999999999999680e+00
-6.673000000000000398e+01
2.216000000000000014e+01
-2.196000000000000085e+01
6.631000000000000227e+01
5.175999999999999801e+01
2.464999999999999858e+01
-9.100000000000000000e+01
7.671999999999999886e+01
-1.573000000000000043e+01
-4.742000000000000171e+01
4.649000000000000199e+01
-2.971000000000000085e+01
6.120000000000000107e+00
1.310999999999999943e+01
8.548999999999999488e+01
5.217000000000000171e+01
1.055400000000000063e+02
-2.220000000000000195e+00
-3.960999999999999943e+01
4.943999999999999773e+01
5.781000000000000227e+01
-8.960000000000000853e+00
6.418000000000000682e+01
4.996000000000000085e+01
9.220000000000000639e+00
-4.572999999999999687e+01
-3.353000000000000114e+01
-6.542000000000000171e+01
-2.898000000000000043e+01
-1.085900000000000034e+02
9.609999999999999432e+00
4.463000000000000256e+01
1.313499999999999943e+02
-2.859999999999999876e+00
-3.782999999999999829e+01
1.824000000000000057e+02
2.082000000000000028e+01
-1.101999999999999957e+01
6.271000000000000085e+01
-5.500000000000000000e+01
-1.855999999999999872e+01
-1.978999999999999915e+01
-3.119000000000000128e+01
1.020499999999999972e+02
-3.613000000000000256e+01
-2.005000000000000071e+01
7.401999999999999602e+01
-3.370000000000000107e+00
-9.737000000000000455e+01
7.298999999999999488e+01
1.101400000000000006e+02
-3.229999999999999982e+00
-5.171000000000000085e+01
2.128999999999999915e+01
2.339000000000000057e+01
2.485000000000000142e+01
-2.403999999999999915e+01
-6.089000000000000057e+01
-7.799999999999999822e+00
-4.379999999999999893e+00
-5.759999999999999787e+00
-2.567999999999999972e+01
1.028999999999999915e+01
1.518199999999999932e+02
1.300300000000000011e+02
-1.252999999999999936e+01
-1.640300000000000011e+02
-2.882000000000000028e+01
2.112000000000000099e+01
7.120000000000000107e+00
-5.446000000000000085e+01
-5.222999999999999687e+01
3.026999999999999957e+01
-1.030699999999999932e+02
1.496699999999999875e+02
9.709999999999999432e+01
-7.487000000000000455e+01
-3.221999999999999886e+01
-2.573000000000000043e+01
2.238199999999999932e+02
2.782999999999999829e+01
-3.350000000000000089e+00
-5.699999999999999512e-01
-2.364000000000000057e+01
1.589000000000000057e+01
2.012999999999999901e+01
-3.477000000000000313e+01
-3.327000000000000313e+01
7.557999999999999829e+01
3.699999999999999956e-01
-2.921000000000000085e+01
1.610399999999999920e+02
-7.184000000000000341e+01
-1.428000000000000114e+02
2.220999999999999943e+02
7.830000000000000071e+00
-1.264200000000000017e+02
-7.084999999999999432e+01
-1.065000000000000000e+02
-1.171200000000000045e+02
8.320000000000000284e+01
1.398199999999999932e+02
4.464000000000000057e+01
9.619999999999999218e+00
-4.846000000000000085e+01
8.684000000000000341e+01
8.965000000000000568e+01
3.440999999999999659e+01
-3.790000000000000036e+00
-3.549999999999999822e+00
-8.395000000000000284e+01
5.670000000000000284e+01
1.598300000000000125e+02
2.049699999999999989e+02
-2.436899999999999977e+02
-5.557000000000000028e+01
-2.057999999999999829e+01
1.035499999999999972e+02
3.707000000000000028e+01
-4.785999999999999943e+01
-2.173000000000000043e+01
-7.030000000000000249e+00
3.936999999999999744e+01
-2.848999999999999844e+01
-1.751999999999999957e+01
3.899999999999999911e+00
-2.767999999999999972e+01
8.910000000000000142e+00
2.117000000000000171e+01
-2.932000000000000028e+01
-7.912000000000000455e+01
-8.996999999999999886e+01
5.861999999999999744e+01
-3.635999999999999943e+01
-5.182999999999999829e+01
8.185999999999999943e+01
3.075000000000000000e+01
-1.459699999999999989e+02
-1.851000000000000156e+01
2.417000000000000171e+01
1.758999999999999986e+01
5.799999999999999600e-01
-3.200000000000000178e+00
-9.349999999999999645e+00
-1.855999999999999872e+01
-1.410999999999999943e+01
-4.204999999999999716e+01
5.228000000000000114e+01
7.696999999999999886e+01
1.250900000000000034e+02
-1.413199999999999932e+02
-1.416999999999999993e+01
4.849000000000000199e+01
-3.144999999999999929e+01
3.162000000000000099e+01
7.429999999999999716e+00
-4.300000000000000000e+01
6.780000000000000249e+00
1.330000000000000071e+01
-1.742000000000000171e+01
-1.660999999999999943e+01
5.215999999999999659e+01
-3.990000000000000213e+00
-4.315999999999999659e+01
1.141000000000000014e+01
2.998000000000000043e+01
-1.200999999999999979e+01
-4.264999999999999858e+01
2.296000000000000085e+01
-1.166999999999999993e+01
-6.027000000000000313e+01
7.700000000000000178e+00
2.605000000000000071e+01
-1.644000000000000128e+01
2.167999999999999972e+01
-6.010000000000000142e+01
-1.937000000000000099e+01
-1.450500000000000114e+02
1.344699999999999989e+02
1.640900000000000034e+02
-1.388300000000000125e+02
-1.813600000000000136e+02
-3.377000000000000313e+01
1.512899999999999920e+02
6.492000000000000171e+01
1.483999999999999986e+01
1.174000000000000021e+01
2.294999999999999929e+01
-4.842999999999999972e+01
8.320000000000000284e+00
3.574000000000000199e+01
-1.276999999999999957e+01
-7.469999999999999751e+00
2.029099999999999966e+02
-1.498199999999999932e+02
-2.255999999999999872e+01
1.646999999999999886e+01
-2.169999999999999929e+00
-2.671000000000000085e+01
1.290000000000000036e+01
1.409999999999999964e+01
1.083000000000000007e+01
-8.551999999999999602e+01
2.914000000000000057e+01
-2.839999999999999858e+01
-5.117999999999999972e+01
-4.150000000000000355e+00
5.799999999999999822e+00
-2.687999999999999901e+01
-7.959999999999999964e+00
-1.381000000000000050e+01
-1.272000000000000064e+01
-1.876999999999999957e+01
-1.582000000000000028e+01
4.592999999999999972e+01
-2.160000000000000142e+00
4.177000000000000313e+01
2.012000000000000099e+01
-2.739000000000000057e+01
2.687999999999999901e+01
2.857000000000000028e+01
9.519999999999999574e+00
2.203999999999999915e+01
-6.596999999999999886e+01
2.037000000000000099e+01
-4.652000000000000313e+01
3.279999999999999805e+00
7.669999999999999929e+00
-6.981999999999999318e+01
1.029800000000000040e+02
-3.395000000000000284e+01
-2.457999999999999829e+01
4.921999999999999886e+01
3.082999999999999829e+01
-4.336999999999999744e+01
-4.229999999999999716e+01
1.399699999999999989e+02
-1.671100000000000136e+02
5.946000000000000085e+01
-2.325000000000000000e+01
1.973000000000000043e+01
-1.949999999999999956e+00
-8.919999999999999929e+00
3.734000000000000341e+01
-1.449999999999999956e+00
2.000000000000000000e+00
1.741000000000000014e+01
8.240000000000000213e+00
-5.429999999999999716e+00
-6.240000000000000213e+00
1.637999999999999901e+01
-1.791000000000000014e+01
1.321000000000000085e+01
5.280000000000000249e+00
-7.459999999999999964e+00
-4.700000000000000178e+00
-4.199999999999999845e-01
2.055999999999999872e+01
7.046999999999999886e+01
1.536100000000000136e+02
-1.738799999999999955e+02
-3.335999999999999943e+01
2.270000000000000018e+00
-1.841000000000000014e+01
1.080000000000000071e+01
-2.501000000000000156e+01
3.157999999999999829e+01
4.014000000000000057e+01
1.106200000000000045e+02
4.960999999999999943e+01
-5.007999999999999829e+01
4.129999999999999893e+00
-2.441000000000000014e+01
-1.326699999999999875e+02
1.548300000000000125e+02
2.020300000000000011e+02
-1.351999999999999957e+01
-9.434999999999999432e+01
4.482999999999999829e+01
1.696999999999999886e+01
-5.036999999999999744e+01
1.371000000000000085e+01
-4.740000000000000213e+00
-2.100000000000000000e+01
6.799999999999999822e+00
1.315000000000000036e+01
-2.250000000000000000e+00
-1.233999999999999986e+01
2.317999999999999972e+01
5.309999999999999609e+00
-2.041000000000000014e+01
8.820000000000000284e+00
4.330000000000000071e+00
-2.371999999999999886e+01
1.835000000000000142e+01
1.552999999999999936e+01
-1.085999999999999943e+01
6.969999999999999751e+00
1.600000000000000000e+01
-3.499999999999999778e-01
-7.240000000000000213e+00
1.835000000000000142e+01
2.500000000000000000e-01
-1.323000000000000043e+01
6.899999999999999467e-01
2.480999999999999872e+01
-1.782999999999999829e+01
-6.299999999999999822e+00
1.989999999999999858e+01
-1.669999999999999929e+00
-3.135000000000000142e+01
1.839000000000000057e+01
7.929999999999999716e+00
-1.450999999999999979e+01
5.450000000000000178e+00
1.373000000000000043e+01
-2.709999999999999964e+00
-2.378000000000000114e+01
1.987000000000000099e+01
3.660000000000000142e+00
2.046999999999999886e+01
-3.210000000000000142e+01
-1.208999999999999986e+01
1.133999999999999986e+01
1.152999999999999936e+01
6.129999999999999893e+00
2.310000000000000053e+00
1.864999999999999858e+01
-3.253000000000000114e+01
-2.378000000000000114e+01
-3.442000000000000171e+01
1.063000000000000078e+01
9.200000000000000400e-01
-1.341000000000000014e+01
1.291999999999999886e+02
1.247199999999999989e+02
-1.410800000000000125e+02
-2.131899999999999977e+02
4.654999999999999716e+01
2.312999999999999901e+01
-1.194599999999999937e+02
1.446100000000000136e+02
1.200900000000000034e+02
4.517999999999999972e+01
-7.218000000000000682e+01
-2.410999999999999943e+01
-7.317000000000000171e+01
7.540000000000000036e+00
-6.950000000000000178e+00
3.210000000000000142e+01
1.680000000000000071e+01
-2.937999999999999901e+01
1.785999999999999943e+01
3.030999999999999872e+01
-1.491999999999999993e+01
-3.160000000000000142e+00
8.995000000000000284e+01
-6.849999999999999645e+00
-1.912999999999999901e+01
-8.330000000000000071e+00
3.202000000000000313e+01
-1.851000000000000156e+01
-1.040000000000000036e+00
-1.233999999999999986e+01
8.151000000000000512e+01
-1.366399999999999864e+02
-5.888000000000000256e+01
-1.976000000000000156e+01
-3.284000000000000341e+01
2.705000000000000071e+01
-3.284000000000000341e+01
-2.526999999999999957e+01
-1.243499999999999943e+02
4.617000000000000171e+01
1.126800000000000068e+02
-3.310000000000000053e+00
9.301999999999999602e+01
9.519999999999999574e+00
3.264000000000000057e+01
-1.173000000000000043e+01
-4.817000000000000171e+01
4.650999999999999801e+01
6.464000000000000057e+01
-2.516000000000000014e+01
1.550500000000000114e+02
-1.370000000000000000e+02
-7.634999999999999432e+01
1.889000000000000057e+01
3.764999999999999858e+01
-2.359999999999999876e+00
-5.899999999999999689e-01
-1.000000000000000021e-02
-3.029999999999999805e+00
-6.623999999999999488e+01
5.109000000000000341e+01
-1.225000000000000000e+01
-6.019999999999999574e+00
-9.869999999999999218e+00
-5.889999999999999680e+00
4.175999999999999801e+01
-2.067000000000000171e+01
9.731000000000000227e+01
-5.842000000000000171e+01
-1.163700000000000045e+02
1.372000000000000064e+01
-7.843000000000000682e+01
-1.113299999999999983e+02
1.721500000000000057e+02
2.169000000000000128e+01
-8.212000000000000455e+01
-5.213000000000000256e+01
7.614000000000000057e+01
-7.965000000000000568e+01
-1.948000000000000043e+01
-5.442000000000000171e+01
-4.792999999999999972e+01
2.678999999999999915e+01
-2.237000000000000099e+01
6.818999999999999773e+01
-9.012000000000000455e+01
1.010900000000000034e+02
-2.216899999999999977e+02
9.418000000000000682e+01
-1.186999999999999922e+01
-6.623000000000000398e+01
1.944000000000000128e+01
-5.828000000000000114e+01
-9.564000000000000057e+01
7.100000000000000000e+01
3.979999999999999982e+00
-2.167000000000000171e+01
6.660000000000000142e+00
1.465000000000000036e+01
2.312999999999999901e+01
1.230000000000000071e+01
8.640000000000000568e+00
5.230000000000000426e+00
4.422999999999999687e+01
-1.211200000000000045e+02
-3.400999999999999801e+01
1.148400000000000034e+02
1.966200000000000045e+02
8.920999999999999375e+01
-9.743000000000000682e+01
-7.759000000000000341e+01
-1.876000000000000156e+01
-8.009999999999999787e+00
1.370000000000000107e+00
8.060000000000000497e+00
-1.202900000000000063e+02
8.443999999999999773e+01
-7.234999999999999432e+01
-5.407999999999999829e+01
-1.025999999999999979e+01
2.832000000000000028e+01
-1.225000000000000000e+01
3.375999999999999801e+01
-3.439999999999999947e+00
-1.750000000000000000e+01
1.399999999999999911e+00
1.760000000000000142e+01
-2.348000000000000043e+01
-1.267999999999999972e+01
1.557000000000000028e+01
2.830000000000000071e+00
-5.219999999999999751e+00
-9.800000000000000711e+00
-4.879999999999999893e+00
6.349999999999999645e+00
7.940000000000000391e+00
9.650000000000000355e+00
1.010000000000000009e+00
-9.849999999999999645e+00
-1.575999999999999979e+01
3.300000000000000155e-01
6.080000000000000071e+00
-1.224000000000000021e+01
-1.089000000000000057e+01
1.527999999999999936e+01
7.099999999999999645e-01
-1.935000000000000142e+01
-4.940000000000000391e+00
4.719999999999999751e+00
-8.660000000000000142e+00
1.300000000000000044e+00
2.200000000000000011e-01
-1.957000000000000028e+01
-2.167999999999999972e+01
4.635000000000000142e+01
3.279999999999999805e+00
-3.290999999999999659e+01
1.183999999999999986e+01
-1.729999999999999982e+00
3.609999999999999876e+00
9.619999999999999218e+00
9.980000000000000426e+00
1.129999999999999893e+00
-3.810000000000000053e+00
-1.944000000000000128e+01
4.389999999999999680e+00
-1.933999999999999986e+01
7.889999999999999680e+00
5.860000000000000320e+00
-3.759999999999999787e+00
-2.359999999999999876e+00
8.769999999999999574e+00
7.089999999999999858e+00
-1.136999999999999922e+01
2.600000000000000089e+00
7.349999999999999645e+00
-9.160000000000000142e+00
-1.360000000000000098e+00
6.900000000000000355e+00
-5.040000000000000036e+00
-6.059999999999999609e+00
6.884000000000000341e+01
-7.281000000000000227e+01
-4.650000000000000355e+00
2.171000000000000085e+01
-2.144999999999999929e+01
7.950000000000000178e+00
3.729999999999999982e+00
2.067000000000000171e+01
4.679999999999999716e+00
-2.209999999999999964e+00
-4.190000000000000391e+00
-2.410000000000000142e+00
5.790000000000000036e+00
3.950000000000000178e+00
1.479999999999999982e+00
-6.700000000000000400e-01
-8.599999999999999867e-01
-4.099999999999999756e-01
5.799999999999999822e+00
-2.959999999999999964e+00
-3.029999999999999805e+00
-1.002999999999999936e+01
1.100000000000000006e-01
4.599999999999999645e+00
-9.109999999999999432e+00
3.379999999999999893e+00
8.880000000000000782e+00
-4.929999999999999716e+00
2.970000000000000195e+00
-2.464000000000000057e+01
8.865000000000000568e+01
-3.971999999999999886e+01
-1.653000000000000114e+01
1.225000000000000000e+01
-8.679999999999999716e+00
2.707999999999999829e+01
1.083000000000000007e+01
6.690000000000000391e+00
-1.676999999999999957e+01
1.234999999999999964e+01
-6.500000000000000222e-01
-2.700000000000000178e+00
7.800000000000000266e-01
-6.199999999999999956e-01
2.020000000000000018e+00
-1.648000000000000043e+01
8.769999999999999574e+00
3.100000000000000089e+00
2.490000000000000213e+00
-1.653999999999999915e+01
1.088000000000000078e+01
1.540000000000000036e+00
-6.620000000000000107e+00
4.959999999999999964e+00
-6.519999999999999574e+00
2.830000000000000071e+00
-1.233999999999999986e+01
9.750000000000000000e+00
1.000000000000000000e+01
5.999999999999999778e-01
-2.609999999999999876e+00
1.748000000000000043e+01
4.899999999999999911e-01
-2.055999999999999872e+01
8.310000000000000497e+00
-1.189999999999999947e+00
-7.490000000000000213e+00
-1.217999999999999972e+01
2.341000000000000014e+01
4.639999999999999680e+00
-1.264000000000000057e+01
1.469999999999999929e+01
5.700000000000000178e+00
4.299999999999999933e-01
-2.123000000000000043e+01
8.089999999999999858e+00
-1.620000000000000107e+00
-5.280000000000000249e+00
-1.075000000000000000e+01
1.428999999999999915e+01
1.830000000000000071e+01
-1.178999999999999915e+01
8.619999999999999218e+00
6.879999999999999893e+00
9.300000000000000488e-01
-1.935999999999999943e+01
1.322000000000000064e+01
-4.669999999999999929e+00
-5.559999999999999609e+00
-1.265000000000000036e+01
-2.509999999999999787e+00
-1.501999999999999957e+01
-4.360000000000000320e+00
-1.942999999999999972e+01
8.632999999999999829e+01
9.990999999999999659e+01
-1.204300000000000068e+02
-1.205199999999999960e+02
1.499900000000000091e+02
-2.649999999999999911e+00
2.819999999999999840e+00
4.347999999999999687e+01
-1.160499999999999972e+02
-3.650999999999999801e+01
-9.462000000000000455e+01
9.132999999999999829e+01
8.429999999999999716e+00
-2.244999999999999929e+01
2.742000000000000171e+01
2.589999999999999858e+01
6.342000000000000171e+01
-6.581999999999999318e+01
6.200999999999999801e+01
-2.750000000000000000e+01
-1.041999999999999993e+01
-6.900000000000000355e+00
6.299999999999999822e+00
-9.429999999999999716e+00
-3.107000000000000028e+01
4.764999999999999858e+01
6.704000000000000625e+01
-5.636999999999999744e+01
-1.744000000000000128e+01
1.483000000000000007e+01
5.414999999999999858e+01
3.121000000000000085e+01
1.273000000000000043e+01
-2.789000000000000057e+01
-3.396000000000000085e+01
-1.596000000000000085e+01
-4.239999999999999858e+01
4.203000000000000114e+01
-5.564000000000000057e+01
1.222800000000000011e+02
-4.080000000000000071e+00
-2.903999999999999915e+01
-3.819999999999999840e+00
1.673000000000000043e+01
-4.839999999999999858e+00
-4.624000000000000199e+01
2.189999999999999858e+01
2.735999999999999943e+01
-7.919999999999999929e+00
5.899999999999999689e-01
3.682000000000000028e+01
5.250999999999999801e+01
-6.379999999999999893e+00
-6.296999999999999886e+01
4.532000000000000028e+01
-9.190999999999999659e+01
-3.981000000000000227e+01
4.407999999999999829e+01
2.501999999999999957e+01
-4.828000000000000114e+01
-6.534999999999999432e+01
-1.782999999999999829e+01
-6.959999999999999432e+01
1.616699999999999875e+02
-5.293999999999999773e+01
5.980000000000000426e+00
9.820000000000000284e+01
-5.972999999999999687e+01
1.020000000000000018e+00
-3.661999999999999744e+01
-2.330000000000000071e+01
-1.823000000000000043e+01
7.620000000000000107e+00
-6.099999999999999867e-01
-1.208000000000000007e+01
-5.230000000000000426e+00
1.358999999999999986e+01
1.600000000000000033e-01
-3.777000000000000313e+01
-5.457999999999999829e+01
7.359000000000000341e+01
1.469099999999999966e+02
-4.565999999999999659e+01
-1.332800000000000011e+02
4.469999999999999751e+00
-6.879999999999999893e+00
6.493999999999999773e+01
1.462100000000000080e+02
-3.169999999999999929e+01
-1.401200000000000045e+02
-1.468999999999999950e+01
2.417999999999999972e+01
1.701000000000000156e+01
-3.632999999999999829e+01
-5.410000000000000142e+00
-6.300000000000000044e-01
-6.940000000000000568e+01
1.898000000000000043e+01
-2.569999999999999840e+00
3.278000000000000114e+01
-4.032000000000000028e+01
-7.884000000000000341e+01
3.272999999999999687e+01
1.875000000000000000e+01
-2.162000000000000099e+01
8.150000000000000355e+00
4.553000000000000114e+01
1.866000000000000014e+01
-3.414000000000000057e+01
2.153999999999999915e+01
2.130000000000000071e+01
-1.017999999999999972e+01
-2.960000000000000142e+01
3.117000000000000171e+01
9.929999999999999716e+00
-2.869000000000000128e+01
-1.319999999999999929e+01
3.295000000000000284e+01
1.060999999999999943e+01
-2.485999999999999943e+01
2.555999999999999872e+01
2.307999999999999829e+01
1.000000000000000000e+00
-3.218999999999999773e+01
1.025000000000000000e+01
6.450000000000000178e+00
-1.509999999999999964e+01
-2.966000000000000014e+01
4.917000000000000171e+01
2.283999999999999986e+01
-3.543999999999999773e+01
-9.939999999999999503e+00
1.522000000000000064e+01
4.349999999999999645e+00
-2.417000000000000171e+01
4.540000000000000036e+00
1.550999999999999979e+01
-2.339999999999999858e+00
-2.867000000000000171e+01
4.769999999999999574e+00
2.383999999999999986e+01
-7.456000000000000227e+01
7.900000000000000355e-01
-1.402999999999999936e+01
8.812999999999999545e+01
1.045999999999999943e+02
-5.781000000000000227e+01
-1.697800000000000011e+02
1.209000000000000057e+02
1.241099999999999994e+02
-2.160000000000000142e+00
2.575000000000000000e+01
1.806699999999999875e+02
-4.057799999999999727e+02
7.885999999999999943e+01
2.453999999999999915e+01
5.395000000000000284e+01
2.510999999999999943e+01
-8.000000000000000444e-01
2.232000000000000028e+01
-2.153000000000000114e+01
-1.089000000000000057e+01
8.890999999999999659e+01
-9.940000000000000568e+01
-1.319499999999999886e+02
3.039000000000000057e+01
5.842000000000000171e+01
2.367999999999999972e+01
-6.042000000000000171e+01
5.014000000000000057e+01
-1.680999999999999872e+01
-4.757999999999999829e+01
-3.921000000000000085e+01
5.599999999999999645e+00
-5.600000000000000533e-01
-4.002000000000000313e+01
-3.724000000000000199e+01
2.332999999999999829e+01
2.898000000000000043e+01
6.320000000000000284e+00
-6.339000000000000057e+01
-4.203000000000000114e+01
1.971999999999999886e+01
2.567000000000000171e+01
1.742999999999999972e+01
2.971999999999999886e+01
8.199999999999999512e-01
-2.769000000000000128e+01
1.314000000000000057e+01
1.199999999999999956e-01
-5.185000000000000142e+01
7.776999999999999602e+01
6.951000000000000512e+01
9.076000000000000512e+01
8.475000000000000000e+01
-5.571999999999999886e+01
-3.510000000000000142e+01
1.758999999999999986e+01
1.006800000000000068e+02
-9.660000000000000142e+00
-7.379999999999999893e+00
-9.309000000000000341e+01
8.704999999999999716e+01
1.526999999999999886e+02
-3.696999999999999886e+01
-1.190100000000000051e+02
-1.784600000000000080e+02
1.941599999999999966e+02
-1.034999999999999964e+01
1.063000000000000078e+01
-1.575000000000000000e+01
-4.486999999999999744e+01
-2.919999999999999929e+01
4.275000000000000000e+01
1.186999999999999922e+01
-1.953000000000000114e+01
1.013000000000000078e+01
4.082999999999999829e+01
1.929999999999999938e+00
-4.575999999999999801e+01
9.726000000000000512e+01
-1.428999999999999915e+01
-6.978000000000000114e+01
3.310000000000000053e+00
1.481000000000000050e+01
3.509999999999999787e+00
-1.919000000000000128e+01
1.274000000000000021e+01
-2.867000000000000171e+01
7.790000000000000036e+00
-2.291000000000000014e+01
5.184000000000000341e+01
1.732000000000000028e+01
-9.919999999999999929e+00
-8.900000000000000355e+00
2.132000000000000028e+01
1.753000000000000114e+01
-7.875000000000000000e+01
2.685999999999999943e+01
2.442000000000000171e+01
1.300000000000000044e+00
-2.633999999999999986e+01
1.026999999999999957e+01
1.860000000000000098e+00
-1.217999999999999972e+01
2.378000000000000114e+01
9.243000000000000682e+01
6.582999999999999829e+01
1.299000000000000021e+01
7.853000000000000114e+01
-6.684999999999999432e+01
-2.121200000000000045e+02
-2.350600000000000023e+02
2.336399999999999864e+02
8.212000000000000455e+01
-3.192000000000000171e+01
-6.804999999999999716e+01
1.100000000000000000e+01
1.008000000000000007e+01
-9.599999999999999645e+00
-2.028000000000000114e+01
3.671000000000000085e+01
1.885999999999999943e+01
-1.173000000000000043e+01
-1.150999999999999979e+01
1.391000000000000014e+01
7.169999999999999929e+00
-3.315999999999999659e+01
-3.457000000000000028e+01
-2.775000000000000000e+01
7.639000000000000057e+01
-1.103999999999999915e+01
2.555999999999999872e+01
5.500000000000000000e+00
1.209999999999999964e+00
-1.250999999999999979e+01
2.314999999999999858e+01
2.226999999999999957e+01
-2.982000000000000028e+01
-2.908999999999999986e+01
5.129999999999999893e+00
3.649999999999999911e+00
-1.480000000000000071e+01
2.144000000000000128e+01
2.778000000000000114e+01
5.582999999999999829e+01
4.990000000000000213e+00
-3.750999999999999801e+01
6.029999999999999716e+01
-1.770900000000000034e+02
-6.014999999999999858e+01
1.370699999999999932e+02
-5.045000000000000284e+01
-1.817999999999999972e+01
2.964000000000000057e+01
-1.096299999999999955e+02
-4.064999999999999858e+01
4.482000000000000028e+01
3.457000000000000028e+01
-3.270000000000000018e+00
-1.249099999999999966e+02
6.443999999999999773e+01
-2.047199999999999989e+02
3.941800000000000068e+02
-1.946000000000000085e+01
-1.258999999999999986e+01
5.400000000000000355e+00
4.664000000000000057e+01
8.848000000000000398e+01
-7.170000000000000284e+01
-3.151000000000000156e+01
6.848999999999999488e+01
5.009999999999999787e+00
9.410000000000000142e+00
1.264000000000000057e+01
-4.288000000000000256e+01
-2.375000000000000000e+01
1.757999999999999829e+01
1.221000000000000085e+01
1.502999999999999936e+01
-2.139999999999999858e+01
1.769000000000000128e+01
5.009999999999999787e+00
-6.240000000000000213e+00
-6.269999999999999574e+00
6.809999999999999609e+00
-3.220000000000000195e+00
-1.730999999999999872e+01
-3.240000000000000213e+00
-3.049999999999999822e+00
-1.057000000000000028e+01
-7.259999999999999787e+00
8.539999999999999147e+00
1.223000000000000043e+01
-1.969999999999999973e+00
-1.541000000000000014e+01
7.429999999999999716e+00
9.199999999999999289e+00
-6.339999999999999858e+00
-2.533999999999999986e+01
5.769999999999999574e+00
5.900000000000000355e+00
-3.240000000000000213e+00
-3.046000000000000085e+01
-2.600000000000000089e+00
4.219999999999999751e+00
1.272000000000000064e+01
-1.603000000000000114e+01
3.067999999999999972e+01
1.651000000000000156e+01
-1.439999999999999947e+00
-2.342000000000000171e+01
7.379999999999999893e+00
5.269999999999999574e+00
6.049999999999999822e+00
-5.940000000000000391e+00
1.500999999999999979e+01
1.339000000000000057e+01
-2.305000000000000071e+01
1.610000000000000098e+00
-1.043999999999999950e+01
-3.149999999999999911e+00
2.999999999999999889e-01
5.546999999999999886e+01
-1.050000000000000000e+01
-4.750999999999999801e+01
-3.463000000000000256e+01
1.917999999999999972e+01
1.091999999999999993e+01
2.589999999999999858e+00
-4.031000000000000227e+01
7.370000000000000107e+00
5.969999999999999751e+00
-2.110000000000000142e+01
-1.662999999999999901e+01
4.322999999999999687e+01
3.017000000000000171e+01
-1.076999999999999957e+01
-9.399999999999999467e-01
1.726999999999999957e+01
3.209999999999999964e+00
-3.324000000000000199e+01
1.346000000000000085e+01
1.791000000000000014e+01
-8.410000000000000142e+00
-3.825999999999999801e+01
1.626000000000000156e+01
3.810000000000000053e+00
-1.585999999999999943e+01
-2.955999999999999872e+01
4.142000000000000171e+01
2.096999999999999886e+01
-1.432000000000000028e+01
-2.312000000000000099e+01
2.478999999999999915e+01
1.091000000000000014e+01
-2.592000000000000171e+01
-5.349999999999999645e+00
1.168299999999999983e+02
8.210999999999999943e+01
-2.294000000000000128e+01
-6.107999999999999829e+01
-3.669999999999999929e+00
-4.897999999999999687e+01
-7.104999999999999716e+01
-4.992000000000000171e+01
5.457000000000000028e+01
-7.373000000000000398e+01
-1.599799999999999898e+02
1.350399999999999920e+02
7.432999999999999829e+01
-5.288000000000000256e+01
-1.258999999999999986e+01
1.563000000000000078e+01
7.770000000000000284e+01
-1.500000000000000000e+00
8.470000000000000639e+00
-1.780000000000000027e+00
3.817000000000000171e+01
-3.001999999999999957e+01
-6.081000000000000227e+01
-2.000000000000000042e-02
-7.509999999999999787e+00
6.346000000000000085e+01
4.660000000000000142e+00
1.960000000000000142e+01
-1.338000000000000078e+01
-8.500000000000000000e+00
2.017000000000000171e+01
2.950000000000000000e+01
-1.094999999999999929e+01
-4.572999999999999687e+01
5.250000000000000000e+00
1.127999999999999936e+01
-1.879999999999999893e+00
-5.360000000000000320e+00
4.139999999999999680e+00
9.300000000000000488e-01
-2.889000000000000057e+01
1.286999999999999922e+01
1.389000000000000057e+01
-9.609999999999999432e+00
-2.585000000000000142e+01
3.180000000000000071e+01
2.551000000000000156e+01
-4.259999999999999787e+00
-3.875000000000000000e+01
6.807999999999999829e+01
2.779999999999999805e+00
-6.990000000000000213e+00
3.613000000000000256e+01
-1.022199999999999989e+02
1.166299999999999955e+02
-3.071999999999999886e+01
-2.403000000000000114e+01
-1.534399999999999977e+02
-7.340000000000000568e+01
8.500000000000000000e+01
1.780000000000000027e+00
-1.510000000000000009e+00
3.390000000000000124e+00
-2.532000000000000028e+01
2.976999999999999957e+01
2.712999999999999901e+01
1.471000000000000085e+01
-2.421999999999999886e+01
-2.107000000000000028e+01
6.240000000000000213e+00
-1.969999999999999929e+01
-6.579000000000000625e+01
6.370000000000000284e+01
-3.922999999999999687e+01
1.471000000000000085e+01
-1.066999999999999993e+01
5.769999999999999574e+00
2.487000000000000099e+01
1.694999999999999929e+01
2.290000000000000036e+00
1.500999999999999979e+01
-2.220000000000000195e+00
-2.662000000000000099e+01
1.360999999999999943e+01
1.464000000000000057e+01
-7.000000000000000000e+00
-3.653999999999999915e+01
-2.571999999999999886e+01
5.800999999999999801e+01
1.511599999999999966e+02
1.421899999999999977e+02
8.504999999999999716e+01
-2.056200000000000045e+02
-2.364099999999999966e+02
-8.576000000000000512e+01
2.851800000000000068e+02
1.558000000000000007e+01
5.147999999999999687e+01
2.478000000000000114e+01
-4.715999999999999659e+01
-4.775000000000000000e+01
-2.076699999999999875e+02
1.570000000000000000e+02
3.192999999999999972e+01
-1.468999999999999950e+01
-6.377000000000000313e+01
1.392199999999999989e+02
2.381699999999999875e+02
-1.769300000000000068e+02
-3.137999999999999901e+01
4.203999999999999915e+01
-5.729999999999999716e+01
-1.669000000000000128e+01
2.639000000000000057e+01
3.185999999999999943e+01
1.500000000000000000e+00
-6.817000000000000171e+01
-1.191999999999999993e+01
-9.040000000000000568e+01
1.238400000000000034e+02
3.589999999999999858e+00
1.295600000000000023e+02
-2.994000000000000128e+01
-1.712999999999999901e+01
9.810000000000000497e+00
8.625000000000000000e+01
-6.197999999999999687e+01
-7.667000000000000171e+01
8.729000000000000625e+01
1.570800000000000125e+02
-9.679000000000000625e+01
-1.254899999999999949e+02
2.792000000000000171e+01
-2.051999999999999957e+01
-6.620000000000000284e+01
2.821000000000000085e+01
1.081000000000000050e+01
-2.957999999999999829e+01
-6.364000000000000057e+01
1.161400000000000006e+02
5.347999999999999687e+01
1.991000000000000014e+01
-5.382999999999999829e+01
3.660000000000000142e+01
5.320000000000000284e+01
-2.032000000000000028e+01
2.487000000000000099e+01
-3.620000000000000107e+00
-6.199999999999999956e-01
-3.535000000000000142e+01
7.159999999999999432e+01
-2.560000000000000142e+01
8.679999999999999716e+00
1.217999999999999972e+02
-7.726000000000000512e+01
-5.081000000000000227e+01
-3.023999999999999844e+01
5.780000000000000249e+00
8.754999999999999716e+01
-1.866699999999999875e+02
5.610000000000000320e+00
1.840900000000000034e+02
-7.826000000000000512e+01
-5.031000000000000227e+01
-3.704999999999999716e+01
-1.826000000000000156e+01
3.879999999999999893e+00
4.143999999999999773e+01
3.546000000000000085e+01
-2.260000000000000142e+01
3.264999999999999858e+01
-8.346999999999999886e+01
1.380000000000000071e+01
3.521999999999999886e+01
-5.940000000000000391e+00
-1.299000000000000021e+01
-1.381000000000000050e+01
1.336999999999999922e+01
2.550000000000000000e+01
-1.570000000000000062e+00
-4.688000000000000256e+01
2.766000000000000014e+01
-8.060999999999999943e+01
-1.679000000000000057e+02
1.273400000000000034e+02
1.342800000000000011e+02
-4.799999999999999822e+00
-1.069300000000000068e+02
1.183499999999999943e+02
-2.415000000000000000e+02
-6.100000000000000000e+01
1.243999999999999950e+01
1.859900000000000091e+02
-8.330000000000000071e+00
-1.348899999999999864e+02
-9.018000000000000682e+01
1.357800000000000011e+02
-3.950999999999999801e+01
-5.807000000000000028e+01
3.107999999999999829e+01
4.490999999999999659e+01
5.610000000000000142e+01
-6.367000000000000171e+01
-7.271999999999999886e+01
-3.334000000000000341e+01
3.890000000000000124e+00
-5.500999999999999801e+01
2.089300000000000068e+02
1.424000000000000021e+01
-1.092099999999999937e+02
8.603000000000000114e+01
8.731000000000000227e+01
5.415999999999999659e+01
-9.834000000000000341e+01
-2.978999999999999915e+01
-7.440000000000000391e+00
2.620000000000000107e+00
1.414000000000000057e+01
7.700000000000000178e+00
-6.111999999999999744e+01
-1.349199999999999875e+02
-6.418999999999999773e+01
1.290800000000000125e+02
1.557000000000000028e+01
6.987000000000000455e+01
2.419999999999999929e+01
-3.521999999999999886e+01
1.820000000000000062e+00
5.875000000000000000e+01
5.478999999999999915e+01
8.662999999999999545e+01
-1.273000000000000043e+01
-7.350000000000000000e+01
-9.909000000000000341e+01
-1.974600000000000080e+02
1.124099999999999966e+02
7.440000000000000568e+01
2.569999999999999840e+00
-1.413000000000000078e+01
3.632999999999999829e+01
3.399000000000000199e+01
6.203000000000000114e+01
2.030999999999999943e+02
-1.270199999999999960e+02
-1.086999999999999922e+01
6.531000000000000227e+01
1.314499999999999886e+02
-3.652799999999999727e+02
1.579799999999999898e+02
6.357000000000000028e+01
1.142999999999999972e+01
-2.857999999999999829e+01
-2.835999999999999943e+01
-6.673000000000000398e+01
2.615000000000000000e+02
1.736299999999999955e+02
2.512000000000000099e+01
-8.351000000000000512e+01
-3.248399999999999750e+02
1.074300000000000068e+02
1.204899999999999949e+02
-4.370000000000000107e+00
-1.166700000000000017e+02
-2.076999999999999957e+01
-4.000000000000000222e-01
2.632000000000000028e+01
8.470000000000000639e+00
1.955000000000000071e+01
-7.076999999999999602e+01
2.248999999999999844e+01
1.655999999999999872e+01
-9.619999999999999218e+00
7.053000000000000114e+01
-8.050000000000000000e+01
-4.246999999999999886e+01
5.475999999999999801e+01
-8.419999999999999929e+00
-3.371000000000000085e+01
2.907999999999999829e+01
2.969999999999999929e+01
-2.719000000000000128e+01
-3.814000000000000057e+01
-4.778000000000000114e+01
1.812999999999999901e+01
3.953000000000000114e+01
2.535000000000000142e+01
-2.787000000000000099e+01
3.317999999999999972e+01
-6.046000000000000085e+01
-2.658999999999999986e+01
3.217000000000000171e+01
5.950000000000000178e+00
1.472899999999999920e+02
-1.777400000000000091e+02
9.169999999999999929e+00
-6.746999999999999886e+01
-7.462999999999999545e+01
1.758999999999999986e+01
3.194000000000000128e+01
3.182999999999999829e+01
3.356000000000000227e+01
-8.012000000000000455e+01
4.889999999999999858e+01
-1.236999999999999922e+01
-1.623199999999999932e+02
-3.588000000000000256e+01
2.189999999999999947e+00
-5.399000000000000199e+01
-5.132999999999999829e+01
2.394999999999999929e+01
4.856000000000000227e+01
5.046000000000000085e+01
6.480000000000000426e+00
-1.177999999999999936e+01
-2.998999999999999844e+01
-9.434999999999999432e+01
6.849999999999999645e+00
4.089999999999999858e+00
-1.040000000000000036e+01
-4.352000000000000313e+01
5.228999999999999915e+01
2.253000000000000114e+01
-6.720000000000000284e+01
-2.780000000000000071e+01
7.299999999999999822e+00
-9.539999999999999147e+00
4.160000000000000142e+00
6.851000000000000512e+01
1.841000000000000014e+01
-2.569000000000000128e+01
2.162999999999999901e+01
2.046999999999999886e+01
-9.380000000000000782e+00
-2.864999999999999858e+01
2.385000000000000142e+01
1.294999999999999929e+01
-3.382999999999999829e+01
-6.169999999999999929e+00
1.703999999999999915e+01
-2.999999999999999889e-01
-2.532000000000000028e+01
4.542999999999999972e+01
-1.193799999999999955e+02
-5.752000000000000313e+01
-7.168000000000000682e+01
-2.330999999999999872e+01
-3.799000000000000199e+01
3.724000000000000199e+01
3.682999999999999829e+01
2.896999999999999886e+01
2.379999999999999893e+00
-2.221999999999999886e+01
5.900000000000000355e+00
6.256000000000000227e+01
-6.910000000000000142e+00
-1.997899999999999920e+02
-1.391100000000000136e+02
2.143100000000000023e+02
7.262999999999999545e+01
1.715300000000000011e+02
-2.313600000000000136e+02
-5.686999999999999744e+01
-9.669999999999999929e+00
1.072000000000000064e+01
-3.718999999999999773e+01
1.114899999999999949e+02
-8.832999999999999829e+01
4.719999999999999751e+00
-6.053999999999999915e+01
4.328999999999999915e+01
4.732000000000000028e+01
2.964000000000000057e+01
3.400000000000000244e-01
1.285999999999999943e+01
3.839000000000000057e+01
-2.051599999999999966e+02
7.373000000000000398e+01
1.364499999999999886e+02
-2.271200000000000045e+02
1.427700000000000102e+02
-1.521000000000000085e+01
-3.835999999999999943e+01
-2.848999999999999844e+01
-1.499000000000000021e+01
1.274000000000000021e+01
3.668999999999999773e+01
9.849999999999999645e+00
-3.060000000000000053e+00
-4.900000000000000355e+00
-9.130000000000000782e+00
8.659999999999999432e+01
-2.017999999999999972e+01
5.015999999999999659e+01
-3.493999999999999773e+01
1.252999999999999936e+01
3.510999999999999943e+01
7.718999999999999773e+01
-1.472000000000000064e+01
-1.919099999999999966e+02
8.221999999999999886e+01
1.817999999999999972e+01
1.623000000000000043e+01
2.010000000000000142e+01
-2.178999999999999915e+01
-2.648999999999999844e+01
4.392999999999999972e+01
8.017000000000000171e+01
-2.982999999999999829e+01
-1.208000000000000007e+01
4.709000000000000341e+01
-5.203000000000000114e+01
-2.605999999999999872e+01
8.399999999999999689e-01
5.817999999999999972e+01
4.229999999999999716e+01
2.567000000000000171e+01
1.055900000000000034e+02
-1.358000000000000007e+01
-1.018100000000000023e+02
-6.464000000000000057e+01
1.195600000000000023e+02
8.301000000000000512e+01
5.517999999999999972e+01
-9.282999999999999829e+01
-2.503000000000000114e+01
5.349999999999999645e+00
4.642999999999999972e+01
3.173999999999999844e+01
-2.696000000000000085e+01
-3.814999999999999858e+01
6.082000000000000028e+01
8.199999999999999512e-01
-1.520200000000000102e+02
1.519799999999999898e+02
1.303300000000000125e+02
-2.491000000000000014e+01
-8.509999999999999787e+00
-8.435999999999999943e+01
-1.149000000000000021e+01
1.114599999999999937e+02
-1.124800000000000040e+02
-2.107500000000000000e+02
-6.900000000000000355e+00
-4.336999999999999744e+01
-6.085999999999999943e+01
2.600000000000000089e-01
1.528700000000000045e+02
-2.425500000000000114e+02
-1.717599999999999909e+02
-8.495000000000000284e+01
1.114300000000000068e+02
8.682999999999999829e+01
-5.267000000000000171e+01
-3.085400000000000205e+02
8.876999999999999602e+01
3.421000000000000085e+01
1.062099999999999937e+02
3.250000000000000000e+00
-2.768899999999999864e+02
2.958999999999999986e+01
1.846899999999999977e+02
-1.263000000000000078e+01
-4.175000000000000000e+01
9.699999999999999289e+00
1.669999999999999929e+00
1.141000000000000014e+01
3.057999999999999829e+01
4.063000000000000256e+01
-1.871000000000000085e+01
-4.864000000000000057e+01
1.908999999999999986e+01
1.205000000000000071e+01
-1.513000000000000078e+01
-1.008000000000000007e+01
1.355000000000000071e+01
-1.358999999999999986e+01
-4.345000000000000284e+01
2.746000000000000085e+01
-4.617999999999999972e+01
-2.108999999999999986e+01
-1.730999999999999872e+01
8.334999999999999432e+01
9.654999999999999716e+01
-7.454000000000000625e+01
1.441000000000000014e+01
-1.264300000000000068e+02
4.442999999999999972e+01
5.897999999999999687e+01
8.570000000000000284e+00
4.350000000000000000e+01
-3.094999999999999929e+01
-3.332000000000000028e+01
1.411800000000000068e+02
-2.219000000000000128e+01
-3.839000000000000057e+01
1.635999999999999943e+01
-5.100000000000000089e-01
-2.321000000000000085e+01
-8.640000000000000568e+00
1.008999999999999986e+01
-1.723999999999999844e+01
-3.892000000000000171e+01
-2.098000000000000043e+01
3.400000000000000000e+01
5.777000000000000313e+01
4.500999999999999801e+01
2.687000000000000099e+01
-1.222000000000000064e+01
2.390000000000000124e+00
-1.022000000000000064e+01
-2.503000000000000114e+01
1.030000000000000071e+01
-2.301000000000000156e+01
2.757999999999999829e+01
2.959999999999999964e+00
-4.421000000000000085e+01
-2.335999999999999943e+01
-4.659000000000000341e+01
4.775000000000000000e+01
4.478000000000000114e+01
4.000000000000000000e+00
-2.040000000000000036e+00
-2.319999999999999840e+00
-1.910999999999999943e+01
2.229999999999999982e+00
1.248000000000000043e+01
9.300000000000000711e+00
-2.446999999999999886e+01
-1.912999999999999901e+01
-5.207000000000000028e+01
-7.120999999999999375e+01
-1.034999999999999964e+01
-1.580000000000000071e+01
2.226000000000000156e+01
-1.626999999999999957e+01
-2.567000000000000171e+01
7.703000000000000114e+01
-3.770000000000000284e+01
1.258299999999999983e+02
9.657999999999999829e+01
-4.172999999999999687e+01
6.509999999999999432e+01
-2.294999999999999929e+01
-6.837999999999999545e+01
3.207999999999999829e+01
4.627000000000000313e+01
-8.330000000000000071e+00
-2.546000000000000085e+01
-5.559000000000000341e+01
-6.726000000000000512e+01
2.223999999999999844e+01
-5.780000000000000249e+00
4.900000000000000355e+00
1.632000000000000028e+01
-3.795000000000000284e+01
-5.370000000000000107e+00
3.742000000000000171e+01
-6.406999999999999318e+01
2.723000000000000043e+01
2.814999999999999858e+01
5.280000000000000249e+00
4.089999999999999858e+00
-3.768999999999999773e+01
4.246999999999999886e+01
2.418199999999999932e+02
-3.076899999999999977e+02
1.160999999999999943e+01
-2.635500000000000114e+02
1.371299999999999955e+02
-1.048000000000000043e+01
1.239800000000000040e+02
1.602700000000000102e+02
-3.474000000000000199e+01
-6.120000000000000107e+00
2.025000000000000000e+01
8.118000000000000682e+01
-2.572099999999999795e+02
-3.535000000000000142e+01
-1.059999999999999964e+01
1.107000000000000028e+01
-6.889999999999999680e+00
2.423000000000000043e+01
7.529000000000000625e+01
-8.978000000000000114e+01
-1.346000000000000085e+01
1.492999999999999972e+01
1.560000000000000053e+00
-2.187000000000000099e+01
2.117999999999999972e+01
8.310000000000000497e+00
-6.740000000000000213e+00
-9.210000000000000853e+00
2.876999999999999957e+01
4.181000000000000227e+01
-1.977599999999999909e+02
-7.589999999999999858e+00
4.750000000000000000e+00
4.040000000000000036e+00
3.761999999999999744e+01
3.217000000000000171e+01
5.269999999999999574e+00
-1.338799999999999955e+02
8.687999999999999545e+01
2.546999999999999886e+01
-2.953000000000000114e+01
-2.932999999999999829e+01
1.062099999999999937e+02
4.371999999999999886e+01
7.650000000000000000e+01
4.499000000000000199e+01
-5.169999999999999929e+00
-4.049999999999999822e+00
-4.457000000000000028e+01
-2.466000000000000014e+01
1.573000000000000043e+01
2.321999999999999886e+01
5.540000000000000036e+00
-2.487999999999999901e+01
-4.740000000000000213e+00
-1.219999999999999973e+00
-5.285999999999999943e+01
-2.028000000000000114e+01
-2.414000000000000057e+01
2.929800000000000182e+02
1.648799999999999955e+02
1.600000000000000033e-01
-1.795600000000000023e+02
3.917000000000000171e+01
4.592000000000000171e+01
2.500000000000000000e-01
1.358999999999999986e+01
2.278000000000000114e+01
2.442000000000000171e+01
1.254000000000000057e+02
-6.392000000000000171e+01
1.801000000000000156e+01
7.040000000000000036e+00
-1.239399999999999977e+02
-1.950000000000000000e+01
-3.232999999999999829e+01
7.734999999999999432e+01
-2.798999999999999844e+01
-7.429999999999999716e+00
1.500000000000000000e+00
7.160999999999999943e+01
1.771399999999999864e+02
-1.728700000000000045e+02
6.530000000000000249e+00
2.292000000000000171e+01
1.626000000000000156e+01
3.764999999999999858e+01
-7.769999999999999574e+00
-1.183499999999999943e+02
-2.716000000000000014e+01
-5.700999999999999801e+01
-7.954999999999999716e+01
3.145500000000000114e+02
-9.106000000000000227e+01
-2.282100000000000080e+02
5.389999999999999680e+00
9.560000000000000497e+00
-5.740000000000000213e+00
-1.907000000000000028e+01
-3.339999999999999858e+00
-6.710999999999999943e+01
-1.325699999999999932e+02
2.599200000000000159e+02
9.720000000000000639e+00
5.249000000000000199e+01
-1.513000000000000078e+01
-7.693000000000000682e+01
4.892999999999999972e+01
1.885999999999999943e+01
-8.228000000000000114e+01
2.189999999999999947e+00
6.993000000000000682e+01
-4.099999999999999645e+00
-3.180000000000000071e+01
1.848000000000000043e+01
2.810000000000000053e+00
-9.279999999999999361e+00
-2.600000000000000089e-01
2.446999999999999886e+01
-4.980000000000000426e+00
-2.057000000000000028e+01
1.728999999999999915e+01
2.189999999999999858e+01
-2.426000000000000156e+01
-3.420000000000000284e+01
1.860999999999999943e+01
-6.315999999999999659e+01
-1.915800000000000125e+02
1.023400000000000034e+02
5.627000000000000313e+01
8.519999999999999574e+00
-8.390999999999999659e+01
-2.203999999999999915e+01
1.366000000000000014e+01
2.617500000000000000e+02
-2.386500000000000057e+02
-4.817000000000000171e+01
1.435999999999999943e+01
-2.228000000000000114e+01
-1.570000000000000062e+00
1.599000000000000021e+01
-3.023999999999999844e+01
1.516999999999999993e+01
-5.639000000000000057e+01
-1.258799999999999955e+02
1.720999999999999943e+02
3.635000000000000142e+01
1.910999999999999943e+01
7.269999999999999574e+00
-4.125000000000000000e+01
-3.310000000000000053e+00
1.180799999999999983e+02
-3.290000000000000036e+00
-1.093999999999999950e+01
-7.589999999999999858e+00
5.650000000000000355e+00
3.540000000000000036e+00
-3.822999999999999687e+01
9.869999999999999218e+00
1.102999999999999936e+01
-9.619999999999999218e+00
-7.700000000000000178e-01
1.564000000000000057e+01
-1.957000000000000028e+01
-1.494999999999999929e+01
1.560999999999999943e+01
1.051999999999999957e+01
-1.819999999999999929e+01
-8.000000000000000444e-01
7.299999999999999822e-01
-2.580000000000000071e+01
1.259200000000000017e+02
-1.997599999999999909e+02
1.241599999999999966e+02
2.753700000000000045e+02
4.211999999999999744e+01
-1.578300000000000125e+02
2.862000000000000099e+01
-4.789000000000000057e+01
-2.651999999999999957e+01
7.640999999999999659e+01
2.097400000000000091e+02
-3.389000000000000057e+01
-1.494699999999999989e+02
-4.095000000000000284e+01
-4.492999999999999972e+01
-9.082999999999999829e+01
-2.174499999999999886e+02
1.051299999999999955e+02
1.612000000000000099e+01
1.109500000000000028e+02
-5.425000000000000000e+01
-1.258999999999999986e+01
-1.689999999999999947e+00
-4.732000000000000028e+01
-7.189000000000000057e+01
6.829000000000000625e+01
-4.863000000000000256e+01
7.270999999999999375e+01
-1.007000000000000028e+01
-2.160000000000000142e+01
-1.168499999999999943e+02
-1.760000000000000009e+00
3.272999999999999687e+01
-3.082000000000000028e+01
1.700000000000000122e-01
1.962999999999999901e+01
-8.330000000000000071e+00
-2.633999999999999986e+01
-2.335000000000000142e+01
9.589999999999999858e+00
1.848000000000000043e+01
1.998999999999999844e+01
4.332999999999999829e+01
-2.346999999999999886e+01
-9.269999999999999574e+00
1.879999999999999893e+00
8.580000000000000071e+00
-4.799999999999999822e-01
-2.675000000000000000e+01
9.570000000000000284e+00
-7.290000000000000036e+00
-2.325000000000000000e+01
-2.610000000000000142e+01
2.130999999999999872e+01
9.880000000000000782e+00
3.990999999999999659e+01
-2.648999999999999844e+01
-5.092999999999999972e+01
-7.706999999999999318e+01
-1.151099999999999994e+02
3.203999999999999915e+01
-1.120000000000000000e+02
-7.303000000000000114e+01
1.215499999999999972e+02
-4.111999999999999744e+01
8.831999999999999318e+01
-1.296500000000000057e+02
6.113000000000000256e+01
-1.064599999999999937e+02
-2.307000000000000028e+01
-8.087999999999999545e+01
1.469900000000000091e+02
1.520900000000000034e+02
3.835000000000000142e+01
-1.787999999999999901e+01
9.100000000000000311e-01
-5.606000000000000227e+01
1.630000000000000071e+01
5.179999999999999716e+01
-8.330000000000000071e+00
-1.400000000000000000e+01
-6.269999999999999574e+00
-7.206000000000000227e+01
-4.414999999999999858e+01
1.976100000000000136e+02
8.679999999999999716e+00
-1.760999999999999943e+01
2.471000000000000085e+01
1.136999999999999922e+01
-4.900000000000000355e+00
-2.046999999999999886e+01
8.890000000000000568e+00
2.296999999999999886e+01
-5.557999999999999829e+01
-2.033999999999999986e+01
1.274000000000000021e+01
-5.690000000000000391e+00
-1.066999999999999993e+01
5.293999999999999773e+01
5.402000000000000313e+01
-1.208700000000000045e+02
-5.321000000000000085e+01
2.475000000000000000e+01
2.299999999999999822e+00
-2.033999999999999986e+01
1.641599999999999966e+02
-7.557999999999999829e+01
6.465999999999999659e+01
5.164000000000000057e+01
-8.356000000000000227e+01
-5.047999999999999687e+01
-3.768999999999999773e+01
5.061999999999999744e+01
3.030999999999999872e+01
-1.909999999999999920e+00
-4.800000000000000000e+01
-2.139000000000000057e+01
1.270000000000000018e+00
7.950000000000000178e+00
-3.622999999999999687e+01
1.238000000000000078e+01
-4.799999999999999822e-01
-2.416000000000000014e+01
-1.190000000000000036e+01
1.623999999999999844e+01
5.440000000000000391e+00
-1.253999999999999915e+01
-1.070000000000000062e+00
-2.353000000000000114e+01
-8.784999999999999432e+01
1.842000000000000171e+01
1.315699999999999932e+02
-8.706000000000000227e+01
-3.599999999999999867e-01
1.017999999999999972e+01
-3.417999999999999972e+01
-3.075000000000000000e+01
-2.703999999999999915e+01
6.703000000000000114e+01
3.250999999999999801e+01
-1.862999999999999901e+01
-7.834999999999999432e+01
7.048999999999999488e+01
6.288000000000000256e+01
3.375199999999999818e+02
-2.213199999999999932e+02
-1.267999999999999972e+01
4.590999999999999659e+01
3.609999999999999876e+00
-3.989000000000000057e+01
3.037000000000000099e+01
4.959999999999999964e+00
-1.080000000000000071e+01
3.674000000000000199e+01
-1.426999999999999957e+01
7.335999999999999943e+01
-4.297999999999999687e+01
-5.679999999999999716e+00
-3.717000000000000171e+01
-2.990000000000000213e+00
4.667999999999999972e+01
8.000000000000000444e-01
1.648000000000000043e+01
-2.435000000000000142e+01
-4.542000000000000171e+01
-3.914999999999999858e+01
-6.549999999999999822e+00
-9.759999999999999432e+01
1.207099999999999937e+02
2.801999999999999957e+01
3.814999999999999858e+01
9.720000000000000639e+00
2.744999999999999929e+01
1.389999999999999902e+00
-3.317000000000000171e+01
2.128999999999999915e+01
2.035999999999999943e+01
-8.849999999999999645e+00
-2.876000000000000156e+01
-1.459999999999999964e+00
6.700000000000000400e-01
-1.762000000000000099e+01
1.030000000000000071e+01
2.757000000000000028e+01
1.271000000000000085e+01
-2.342000000000000171e+01
1.198000000000000043e+01
1.398000000000000043e+01
-5.059999999999999609e+00
-2.542000000000000171e+01
5.820000000000000284e+00
9.810000000000000497e+00
-1.290000000000000036e+00
-2.251999999999999957e+01
6.519999999999999574e+00
-2.600000000000000089e-01
-6.580000000000000071e+00
-9.650000000000000355e+00
1.879999999999999893e+00
4.580000000000000071e+00
-7.339999999999999858e+00
-1.201999999999999957e+01
2.485000000000000142e+01
-3.427000000000000313e+01
-1.067999999999999972e+01
1.355800000000000125e+02
1.820000000000000062e+00
3.529999999999999805e+00
1.085000000000000000e+02
5.618999999999999773e+01
-5.028000000000000114e+01
-2.845500000000000114e+02
1.722400000000000091e+02
1.445099999999999909e+02
-2.975000000000000000e+01
-2.860999999999999943e+01
-1.114800000000000040e+02
2.200000000000000178e+00
5.350999999999999801e+01
-5.071000000000000085e+01
-4.280000000000000249e+00
-3.750000000000000000e+01
-2.065500000000000114e+02
3.423600000000000136e+02
-1.461200000000000045e+02
-2.432999999999999829e+01
-8.720000000000000639e+00
2.350000000000000089e+00
-8.470000000000000284e+01
7.484999999999999432e+01
3.051999999999999957e+01
-7.770999999999999375e+01
6.626999999999999602e+01
2.005300000000000011e+02
-9.378000000000000114e+01
5.525999999999999801e+01
-9.106999999999999318e+01
9.882999999999999829e+01
1.259200000000000017e+02
-4.267000000000000171e+01
-1.419499999999999886e+02
1.768000000000000114e+02
-1.261999999999999922e+01
-1.453899999999999864e+02
2.578000000000000114e+01
1.923999999999999844e+01
-2.271999999999999886e+01
-4.559999999999999609e+00
3.589999999999999858e+00
5.109000000000000341e+01
5.320000000000000284e+00
-2.573000000000000043e+01
-2.399999999999999911e-01
-8.289999999999999147e+00
-6.469999999999999751e+00
-2.496000000000000085e+01
-7.350000000000000000e+01
2.192999999999999972e+01
2.919999999999999929e+00
1.699999999999999956e+00
-5.790000000000000036e+00
-3.228000000000000114e+01
-1.903999999999999915e+01
1.241000000000000014e+01
2.816000000000000014e+01
8.929999999999999716e+00
-3.167999999999999972e+01
-9.000000000000000000e+00
-3.109999999999999876e+00
-2.540000000000000036e+00
7.169999999999999929e+00
2.969000000000000128e+01
1.607000000000000028e+01
3.267999999999999972e+01
-1.400999999999999979e+01
4.427000000000000313e+01
-3.151000000000000156e+01
-5.364999999999999858e+01
7.120000000000000107e+00
2.121000000000000085e+01
5.070000000000000284e+00
-1.100000000000000000e+01
1.059999999999999964e+01
3.740000000000000213e+00
-2.380000000000000071e+01
9.779999999999999361e+00
1.472000000000000064e+01
-4.639999999999999680e+00
-3.108999999999999986e+01
1.482000000000000028e+01
7.429999999999999716e+00
-1.221000000000000085e+01
-5.769999999999999574e+00
1.905000000000000071e+01
1.607000000000000028e+01
-3.245000000000000284e+01
2.053000000000000114e+01
2.200000000000000000e+01
-9.480000000000000426e+00
-4.221999999999999886e+01
2.121999999999999886e+01
2.498999999999999844e+01
7.370000000000000107e+00
-3.546999999999999886e+01
3.853999999999999915e+01
-5.230000000000000426e+00
-2.803999999999999915e+01
-1.932599999999999909e+02
-5.771999999999999886e+01
3.258399999999999750e+02
1.515900000000000034e+02
9.600000000000000000e+01
-1.646299999999999955e+02
-1.459099999999999966e+02
-4.992999999999999972e+01
3.196000000000000085e+01
4.235000000000000142e+01
-3.911999999999999744e+01
-7.640000000000000568e+01
-3.845000000000000284e+01
4.160000000000000142e+01
-2.230000000000000071e+01
-5.692000000000000171e+01
3.979999999999999716e+01
6.709000000000000341e+01
5.136999999999999744e+01
-1.369900000000000091e+02
2.976000000000000156e+01
-1.618400000000000034e+02
-8.670999999999999375e+01
-1.658100000000000023e+02
2.362299999999999898e+02
2.853000000000000114e+01
-4.769999999999999574e+00
2.355999999999999872e+01
1.066999999999999993e+01
-2.953000000000000114e+01
-4.210999999999999943e+01
7.629999999999999716e+01
-5.765999999999999659e+01
-7.206000000000000227e+01
1.202099999999999937e+02
8.718000000000000682e+01
-7.540000000000000036e+00
-1.371000000000000085e+01
1.469999999999999929e+01
-3.120000000000000107e+00
-1.446000000000000085e+01
9.839999999999999858e+00
2.092999999999999972e+01
1.575000000000000000e+01
-2.803000000000000114e+01
1.000000000000000000e+00
-3.639000000000000057e+01
1.734799999999999898e+02
1.127300000000000040e+02
-1.914499999999999886e+02
-5.067000000000000171e+01
-2.348000000000000043e+01
3.945000000000000284e+01
-2.244999999999999929e+01
-1.900000000000000000e+01
-8.970000000000000639e+00
1.626000000000000156e+01
-7.137000000000000455e+01
7.812999999999999545e+01
-8.628000000000000114e+01
1.061700000000000017e+02
-1.513000000000000078e+01
-2.333999999999999986e+01
-3.710000000000000142e+01
6.080000000000000071e+00
1.190000000000000036e+01
7.150000000000000355e+00
1.946999999999999886e+01
-2.369999999999999929e+01
-1.447199999999999989e+02
4.403999999999999915e+01
-1.735999999999999943e+01
-2.025000000000000000e+01
3.760999999999999943e+01
-2.850000000000000000e+01
2.569000000000000128e+01
1.692999999999999972e+01
-2.162999999999999901e+01
-9.070000000000000284e+00
1.782000000000000028e+01
8.609999999999999432e+00
-1.291999999999999993e+01
-1.260999999999999943e+01
5.610000000000000320e+00
1.344999999999999929e+01
-1.326999999999999957e+01
-6.199999999999999956e-01
1.093999999999999950e+01
1.903000000000000114e+01
-7.650000000000000355e+00
-1.441000000000000014e+01
-4.830000000000000071e+00
-8.009999999999999787e+00
-2.762999999999999901e+01
9.210000000000000853e+00
1.557000000000000028e+01
7.169999999999999929e+00
-2.657000000000000028e+01
-1.096000000000000085e+01
1.540000000000000036e+01
5.120000000000000107e+00
-4.192999999999999972e+01
1.860000000000000098e+00
-2.194000000000000128e+01
5.809999999999999609e+00
3.649000000000000199e+01
8.767000000000000171e+01
-7.434999999999999432e+01
1.199999999999999956e+00
-2.882000000000000028e+01
-1.443600000000000136e+02
1.575699999999999932e+02
-4.677000000000000313e+01
-1.619999999999999929e+01
1.057000000000000028e+01
-1.149000000000000021e+01
-7.330000000000000071e+00
1.294999999999999929e+01
3.759999999999999787e+00
-1.463000000000000078e+01
1.862000000000000099e+01
-1.313000000000000078e+01
1.025000000000000000e+01
1.235100000000000051e+02
-8.160999999999999943e+01
1.107199999999999989e+02
-1.042800000000000011e+02
-8.248999999999999488e+01
9.178000000000000114e+01
7.095000000000000284e+01
-2.310000000000000142e+01
3.500000000000000000e+01
4.074000000000000199e+01
1.013299999999999983e+02
-8.395000000000000284e+01
-1.533300000000000125e+02
-2.726600000000000250e+02
7.731000000000000227e+01
9.960999999999999943e+01
-1.388000000000000078e+01
-2.873000000000000043e+01
-4.417999999999999972e+01
-1.899999999999999911e+00
-9.239000000000000057e+01
3.004399999999999977e+02
1.930000000000000071e+01
-1.401100000000000136e+02
1.083199999999999932e+02
3.160000000000000142e+01
1.024699999999999989e+02
-6.620999999999999375e+01
-4.884000000000000341e+01
8.845000000000000284e+01
-1.644999999999999929e+01
-5.490000000000000213e+00
7.429999999999999716e+00
4.822999999999999687e+01
-1.050400000000000063e+02
7.432999999999999829e+01
-9.287000000000000455e+01
1.389000000000000057e+02
2.041000000000000014e+01
-3.359999999999999876e+00
3.732999999999999829e+01
1.810999999999999943e+01
1.060900000000000034e+02
-1.852800000000000011e+02
-1.639399999999999977e+02
-1.919099999999999966e+02
2.123100000000000023e+02
-5.570000000000000284e+00
-4.403000000000000114e+01
-1.591999999999999993e+01
-1.588000000000000078e+01
-1.008000000000000007e+01
6.715999999999999659e+01
1.447000000000000064e+01
-6.122999999999999687e+01
7.360000000000000320e+00
1.430000000000000071e+01
-1.899999999999999911e+00
4.893999999999999773e+01
1.351500000000000057e+02
-5.599000000000000199e+01
7.190000000000000568e+01
-4.657000000000000028e+01
7.290000000000000036e+00
1.141700000000000017e+02
-5.179999999999999716e+00
-1.759600000000000080e+02
-1.053100000000000023e+02
4.196000000000000085e+01
1.265699999999999932e+02
2.612999999999999901e+01
-3.379999999999999893e+00
-4.728000000000000114e+01
5.459000000000000341e+01
1.671999999999999886e+01
-2.470000000000000195e+00
-1.085999999999999943e+01
7.990000000000000213e+00
-1.976000000000000156e+01
-1.491000000000000014e+01
-3.736999999999999744e+01
1.353999999999999915e+01
3.162000000000000099e+01
1.147000000000000064e+01
-3.959000000000000341e+01
1.123000000000000043e+01
3.256000000000000227e+01
6.820000000000000284e+00
-3.353999999999999915e+01
2.450000000000000178e+00
1.575000000000000000e+01
6.080000000000000071e+00
-2.103999999999999915e+01
5.190000000000000391e+00
1.178999999999999915e+01
4.389999999999999680e+00
-1.700000000000000000e+01
7.799999999999999822e+00
1.283999999999999986e+01
-1.610000000000000098e+00
-1.901000000000000156e+01
-5.080000000000000071e+00
-4.230000000000000426e+00
-6.660000000000000142e+00
-3.032999999999999829e+01
4.792999999999999972e+01
-9.929000000000000625e+01
-3.550999999999999801e+01
-2.342000000000000171e+01
4.467000000000000171e+01
-4.750000000000000000e+00
-1.460999999999999943e+01
-3.246000000000000085e+01
-5.070000000000000284e+01
2.776000000000000156e+01
1.944000000000000057e+02
-2.210000000000000142e+01
-1.220999999999999943e+02
-6.110000000000000142e+01
4.210000000000000142e+01
5.999999999999999778e-01
1.821999999999999886e+01
-3.549999999999999822e+00
-8.849999999999999645e+00
1.425000000000000000e+01
1.819000000000000128e+01
2.151000000000000156e+01
7.737000000000000455e+01
1.781699999999999875e+02
-1.655699999999999932e+02
-7.053000000000000114e+01
-9.140000000000000568e+00
-1.016000000000000014e+01
-8.790000000000000568e+01
4.513000000000000256e+01
1.748999999999999844e+01
-5.822999999999999687e+01
-5.480000000000000426e+00
-3.119999999999999929e+01
2.446999999999999886e+01
-8.779999999999999361e+00
-2.051999999999999957e+01
2.651999999999999957e+01
-2.560000000000000053e+00
1.355000000000000071e+01
-4.278000000000000114e+01
-9.137000000000000455e+01
-2.699900000000000091e+02
6.523500000000000227e+02
8.370000000000000284e+01
-1.780200000000000102e+02
3.629999999999999893e+00
-4.310999999999999943e+01
9.771999999999999886e+01
5.290000000000000036e+00
-3.561999999999999744e+01
-3.499000000000000199e+01
-2.144000000000000128e+01
7.440000000000000391e+00
-5.418999999999999773e+01
-1.400000000000000133e-01
2.000000000000000000e+02
-1.034599999999999937e+02
-1.510800000000000125e+02
1.383000000000000007e+01
4.621100000000000136e+02
-1.188400000000000034e+02
-1.970699999999999932e+02
1.394999999999999929e+01
5.453999999999999915e+01
-1.994000000000000128e+01
4.142999999999999972e+01
9.419999999999999929e+00
-4.088000000000000256e+01
-2.441000000000000014e+01
-2.933999999999999986e+01
3.803999999999999915e+01
-7.762999999999999545e+01
1.937999999999999901e+01
9.289999999999999147e+00
-4.209999999999999964e+00
-4.211999999999999744e+01
-3.378000000000000114e+01
-6.581000000000000227e+01
6.250000000000000000e+00
-3.025000000000000000e+01
-2.462000000000000099e+01
1.407400000000000091e+02
-1.319199999999999875e+02
-1.287599999999999909e+02
6.600000000000000000e+01
-3.225999999999999801e+01
-8.439999999999999503e+00
4.974000000000000199e+01
2.975000000000000000e+01
1.484499999999999886e+02
-9.912999999999999545e+01
-1.003700000000000045e+02
-1.098499999999999943e+02
1.363000000000000114e+02
-5.718999999999999773e+01
-1.452999999999999936e+01
-6.929999999999999716e+00
3.235000000000000142e+01
1.067999999999999972e+01
-2.985000000000000142e+01
2.637000000000000099e+01
2.228000000000000114e+01
-4.459999999999999964e+00
-9.200000000000000400e-01
2.805000000000000071e+01
1.366000000000000014e+01
-9.939999999999999503e+00
7.790000000000000036e+00
1.860000000000000142e+01
3.410000000000000142e+00
-2.705999999999999872e+01
1.351999999999999957e+01
1.375000000000000000e+01
-6.549999999999999822e+00
-2.594999999999999929e+01
2.305000000000000071e+01
2.739000000000000057e+01
-2.682999999999999829e+01
-8.410999999999999943e+01
1.050499999999999972e+02
7.639000000000000057e+01
1.125000000000000000e+01
-5.539000000000000057e+01
3.203999999999999915e+01
4.570000000000000284e+00
-1.728000000000000114e+01
7.900000000000000355e+00
2.883999999999999986e+01
6.501999999999999602e+01
6.599999999999999645e+00
-3.448299999999999841e+02
3.665500000000000114e+02
5.143999999999999773e+01
4.106000000000000227e+01
-5.664999999999999858e+01
-1.186999999999999922e+01
1.929999999999999938e+00
-7.175000000000000000e+01
-7.250000000000000000e+00
2.755999999999999872e+01
-1.538000000000000078e+01
-1.959999999999999964e+00
8.900000000000000355e+00
-1.172000000000000064e+01
-4.149000000000000199e+01
5.500000000000000000e+00
8.609999999999999432e+00
-5.049999999999999822e+00
-1.712000000000000099e+01
1.883999999999999986e+01
1.167999999999999972e+01
-1.263000000000000078e+01
-2.035999999999999943e+01
6.719999999999999751e+00
-2.573999999999999844e+01
-6.871999999999999886e+01
5.224000000000000199e+01
-3.999000000000000199e+01
6.279999999999999716e+01
3.386600000000000250e+02
-1.459600000000000080e+02
-9.131000000000000227e+01
7.696999999999999886e+01
-4.686999999999999744e+01
3.721000000000000085e+01
2.778999999999999915e+01
-7.771999999999999886e+01
4.056000000000000227e+01
-1.523000000000000043e+01
-3.431000000000000227e+01
-5.014000000000000057e+01
-2.569000000000000128e+01
2.084600000000000080e+02
-1.005999999999999943e+02
1.435500000000000114e+02
2.792000000000000171e+01
-1.475000000000000000e+01
-1.249099999999999966e+02
5.650000000000000355e+00
2.691000000000000014e+01
-1.796200000000000045e+02
5.807999999999999545e+02
-1.408100000000000023e+02
1.298499999999999943e+02
-2.544000000000000128e+01
-4.825000000000000000e+01
-8.870000000000000284e+01
9.859000000000000341e+01
-3.237900000000000205e+02
2.146699999999999875e+02
-1.155799999999999983e+02
1.532400000000000091e+02
-5.580000000000000071e+00
5.835000000000000142e+01
-6.901999999999999602e+01
-1.150999999999999979e+01
-1.530000000000000071e+01
2.096999999999999886e+01
6.923000000000000398e+01
-6.853000000000000114e+01
-6.269999999999999574e+00
1.048000000000000043e+01
3.189000000000000057e+01
-8.809000000000000341e+01
-1.792000000000000171e+01
-2.810999999999999943e+01
8.998000000000000398e+01
-2.945400000000000205e+02
6.182999999999999829e+01
7.570000000000000284e+00
-4.311999999999999744e+01
1.279300000000000068e+02
-4.063000000000000256e+01
-1.878999999999999915e+01
3.300000000000000155e-01
1.411999999999999922e+01
3.146000000000000085e+01
-2.759999999999999787e+00
-3.016000000000000014e+01
-3.014000000000000057e+01
-2.787000000000000099e+01
-3.110299999999999727e+02
1.758100000000000023e+02
3.411899999999999977e+02
-2.351999999999999886e+02
1.469799999999999898e+02
-2.192800000000000011e+02
1.158000000000000007e+01
1.651500000000000057e+02
1.222699999999999960e+02
-1.488300000000000125e+02
-5.693999999999999773e+01
-4.721000000000000085e+01
6.115999999999999659e+01
-1.502999999999999936e+01
-1.520000000000000018e+00
-2.030000000000000071e+01
-2.060000000000000053e+00
8.175000000000000000e+01
1.484999999999999964e+01
2.978999999999999915e+01
-3.836999999999999744e+01
-4.489000000000000057e+01
-1.329499999999999886e+02
1.286999999999999922e+01
-6.848000000000000398e+01
7.490000000000000568e+01
2.297100000000000080e+02
-8.500000000000000000e+00
-6.389999999999999680e+00
-1.196800000000000068e+02
-7.235999999999999943e+01
-3.167000000000000171e+01
-2.192999999999999972e+01
2.700000000000000000e+01
-2.970000000000000195e+00
1.090000000000000036e+01
1.729999999999999982e+00
-4.186999999999999744e+01
-2.082999999999999829e+01
-7.700000000000000178e-01
-3.714999999999999858e+01
4.617000000000000171e+01
1.251999999999999957e+01
-2.353000000000000114e+01
-2.667999999999999972e+01
-5.577000000000000313e+01
4.117000000000000171e+01
1.452100000000000080e+02
2.200000000000000000e+01
-1.123599999999999994e+02
-1.592299999999999898e+02
-4.256000000000000227e+01
2.173999999999999844e+01
4.182000000000000028e+01
-0.000000000000000000e+00
-2.114000000000000057e+01
-7.280000000000000249e+00
-1.275999999999999979e+01
-3.207999999999999829e+01
5.999999999999999778e-02
1.339000000000000057e+01
-1.327999999999999936e+01
-3.069999999999999840e+00
2.873000000000000043e+01
-3.400000000000000244e-01
-3.009999999999999787e+00
-3.285000000000000142e+01
1.728999999999999915e+01
6.790000000000000036e+00
-1.438000000000000078e+01
-2.117999999999999972e+01
2.667000000000000171e+01
-8.810000000000000497e+00
-7.332999999999999829e+01
-1.111400000000000006e+02
1.235499999999999972e+02
6.161999999999999744e+01
7.862999999999999545e+01
-8.306000000000000227e+01
-2.853999999999999915e+01
-8.121999999999999886e+01
5.152000000000000313e+01
7.220000000000000284e+01
-1.448400000000000034e+02
-1.600000000000000033e-01
-1.575800000000000125e+02
4.547999999999999687e+01
2.087999999999999901e+01
-7.690000000000000391e+00
-4.231000000000000227e+01
-1.610999999999999943e+01
4.921999999999999886e+01
-2.497100000000000080e+02
1.075999999999999943e+02
2.423499999999999943e+02
-1.810200000000000102e+02
4.939000000000000057e+01
-8.465999999999999659e+01
-2.589999999999999858e+01
-5.120000000000000284e+01
5.527000000000000313e+01
-2.959999999999999964e+00
2.160000000000000142e+00
4.461999999999999744e+01
5.759999999999999787e+00
-1.358300000000000125e+02
1.199899999999999949e+02
4.179999999999999716e+00
-6.884000000000000341e+01
7.329000000000000625e+01
-1.095000000000000000e+02
-2.517999999999999972e+01
-1.424000000000000021e+01
7.169999999999999929e+00
1.176599999999999966e+02
6.670000000000000284e+01
-1.359300000000000068e+02
-1.606999999999999886e+02
-3.417999999999999972e+01
1.968199999999999932e+02
1.616599999999999966e+02
-2.495500000000000114e+02
-2.119000000000000128e+01
8.004000000000000625e+01
5.950000000000000000e+01
-1.033299999999999983e+02
-1.038700000000000045e+02
4.520000000000000284e+01
-1.795999999999999943e+02
-4.060000000000000142e+01
2.931299999999999955e+02
6.531999999999999318e+01
-1.451999999999999957e+01
-6.760999999999999943e+01
1.810999999999999943e+01
-1.088599999999999994e+02
-7.309000000000000341e+01
1.458899999999999864e+02
-6.018999999999999773e+01
3.968999999999999773e+01
2.914000000000000057e+01
6.556000000000000227e+01
-4.596000000000000085e+01
1.853499999999999943e+02
-1.798100000000000023e+02
-5.143999999999999773e+01
2.803999999999999915e+01
2.278999999999999915e+01
-7.981999999999999318e+01
5.484000000000000341e+01
1.265000000000000000e+02
-6.139999999999999680e+00
-2.017199999999999989e+02
-6.934999999999999432e+01
3.639000000000000057e+01
2.444000000000000128e+01
-7.001000000000000512e+01
4.657000000000000028e+01
-2.610000000000000142e+01
1.588100000000000023e+02
6.849999999999999645e+00
-1.675500000000000114e+02
-5.456000000000000227e+01
-2.644999999999999929e+01
1.583999999999999986e+01
1.132099999999999937e+02
-5.089000000000000057e+01
-2.048000000000000043e+01
3.080000000000000071e+00
-2.939999999999999947e+00
-1.474000000000000021e+01
1.771999999999999886e+01
3.438000000000000256e+01
-1.570000000000000062e+00
-2.782000000000000028e+01
-5.919999999999999929e+00
1.085999999999999943e+01
1.418999999999999950e+01
-1.216000000000000014e+01
5.639999999999999680e+00
1.850000000000000089e+00
-1.719000000000000128e+01
-4.320000000000000284e+00
4.509999999999999787e+00
7.290000000000000036e+00
-1.580000000000000071e+00
-2.798999999999999844e+01
1.225000000000000000e+01
4.042000000000000171e+01
2.149999999999999911e+00
-9.399999999999999467e-01
2.494999999999999929e+01
1.798999999999999844e+01
-1.311999999999999922e+01
-3.007000000000000028e+01
1.325000000000000000e+01
2.230999999999999872e+01
-5.200000000000000178e+00
-2.335999999999999943e+01
3.493999999999999773e+01
9.830000000000000071e+00
-1.100999999999999979e+01
-1.851999999999999957e+01
-7.568999999999999773e+01
6.110999999999999943e+01
-4.463000000000000256e+01
5.857000000000000028e+01
7.187000000000000455e+01
-1.155100000000000051e+02
5.010999999999999943e+01
4.125000000000000000e+01
3.934000000000000341e+01
-1.173000000000000043e+01
-3.740999999999999659e+01
-2.017999999999999972e+01
1.860000000000000142e+01
6.759999999999999787e+00
-1.383999999999999986e+01
-1.525999999999999979e+01
1.742000000000000171e+01
9.289999999999999147e+00
-1.381000000000000050e+01
-2.970000000000000195e+00
4.213000000000000256e+01
-2.773999999999999844e+01
-1.828999999999999915e+01
1.024000000000000021e+01
1.957000000000000028e+01
3.952000000000000313e+01
-6.793999999999999773e+01
4.919999999999999929e+00
2.671999999999999886e+01
-1.340200000000000102e+02
1.923999999999999844e+01
1.626500000000000057e+02
-1.521399999999999864e+02
-2.307999999999999829e+01
5.314999999999999858e+01
3.692999999999999972e+01
2.269600000000000080e+02
-1.580099999999999909e+02
-6.217000000000000171e+01
3.715999999999999659e+01
8.409000000000000341e+01
-1.375800000000000125e+02
-5.885999999999999943e+01
-3.220000000000000195e+00
8.785999999999999943e+01
-2.399999999999999911e+00
-1.160999999999999943e+01
-5.859000000000000341e+01
1.135999999999999943e+01
-1.605999999999999872e+01
1.871000000000000085e+01
8.259999999999999787e+00
-1.515000000000000036e+01
2.339999999999999858e+01
1.028999999999999915e+01
-1.173000000000000043e+01
3.879999999999999893e+00
1.416000000000000014e+01
6.250000000000000000e+00
-3.314999999999999858e+01
3.001000000000000156e+01
6.600000000000000311e-01
-2.135999999999999943e+01
-1.719999999999999929e+01
-1.769999999999999929e+01
1.540200000000000102e+02
2.078000000000000114e+02
-1.933300000000000125e+02
-4.387200000000000273e+02
-2.200000000000000011e-01
6.582999999999999829e+01
3.189000000000000057e+01
3.220000000000000195e+00
-1.578999999999999915e+01
-7.370000000000000107e+00
2.025000000000000000e+01
8.859999999999999432e+00
-1.500000000000000000e+01
1.106000000000000050e+01
2.587999999999999901e+01
4.190000000000000391e+00
-2.821000000000000085e+01
2.514000000000000057e+01
2.569999999999999929e+01
-4.339999999999999858e+00
-2.980999999999999872e+01
1.126999999999999957e+01
-2.344000000000000128e+01
5.139999999999999680e+00
3.133999999999999986e+01
1.360099999999999909e+02
1.032099999999999937e+02
-3.035699999999999932e+02
-3.250000000000000000e+01
2.114000000000000057e+01
-5.420000000000000284e+01
-1.370300000000000011e+02
-2.876000000000000156e+01
1.385999999999999943e+01
-3.200000000000000000e+01
-5.134000000000000341e+01
2.500000000000000000e+00
7.543000000000000682e+01
-4.410000000000000142e+00
-1.682000000000000028e+01
-3.782999999999999829e+01
2.237000000000000099e+01
-6.860000000000000320e+00
-3.564000000000000057e+01
2.976999999999999957e+01
-5.475999999999999801e+01
7.156000000000000227e+01
-1.291000000000000014e+01
2.789000000000000057e+01
-7.498000000000000398e+01
7.212999999999999545e+01
2.521000000000000085e+01
-5.750000000000000000e+01
-1.067999999999999972e+01
7.004000000000000625e+01
-1.675000000000000000e+01
-5.839999999999999858e+00
-4.746000000000000085e+01
-3.650999999999999801e+01
1.221400000000000006e+02
-3.500000000000000000e+00
-3.454999999999999716e+01
1.327999999999999936e+01
1.175199999999999960e+02
-2.414999999999999858e+01
-1.044899999999999949e+02
8.890000000000000568e+00
7.900000000000000355e+00
1.563000000000000078e+01
-3.319999999999999840e+00
6.719999999999999751e+00
-6.723999999999999488e+01
1.277399999999999949e+02
-7.012000000000000455e+01
1.578000000000000114e+02
1.764999999999999858e+01
9.092000000000000171e+01
3.667999999999999972e+01
-2.058999999999999986e+01
-3.799000000000000199e+01
8.421999999999999886e+01
9.315999999999999659e+01
-4.045000000000000284e+01
-1.126999999999999957e+01
-5.349999999999999645e+00
4.179999999999999716e+00
-1.483999999999999986e+01
-8.269999999999999574e+00
-1.923999999999999844e+01
2.744999999999999929e+01
3.747999999999999687e+01
-3.320000000000000284e+01
1.671999999999999886e+01
-1.462500000000000000e+02
1.055699999999999932e+02
2.364999999999999858e+01
2.574100000000000250e+02
3.790000000000000036e+00
6.060999999999999943e+01
-1.837199999999999989e+02
2.037000000000000099e+01
7.820000000000000284e+00
-8.554000000000000625e+01
6.596999999999999886e+01
-4.067999999999999972e+01
-4.725000000000000000e+01
-4.070000000000000284e+00
-6.028000000000000114e+01
8.973999999999999488e+01
-4.115999999999999659e+01
2.896999999999999886e+01
3.125000000000000000e+01
-6.448000000000000398e+01
-1.330000000000000071e+00
2.112000000000000099e+01
-3.279999999999999805e+00
2.523000000000000043e+01
-1.151999999999999957e+01
4.711999999999999744e+01
1.837000000000000099e+01
-3.350000000000000000e+01
-8.335999999999999943e+01
-1.876399999999999864e+02
6.846999999999999886e+01
-5.357000000000000028e+01
5.957000000000000028e+01
-4.620000000000000107e+00
1.377999999999999936e+01
4.327000000000000313e+01
-2.450000000000000178e+00
-2.081299999999999955e+02
2.973999999999999844e+01
3.818999999999999773e+01
3.076999999999999957e+01
-1.580000000000000071e+00
-2.287000000000000099e+01
-2.839999999999999858e+00
-7.214000000000000057e+01
-3.189800000000000182e+02
2.808399999999999750e+02
8.907999999999999829e+01
-1.499999999999999944e-01
-7.634999999999999432e+01
-8.954000000000000625e+01
1.346800000000000068e+02
-4.135000000000000142e+01
-1.234099999999999966e+02
-2.305000000000000071e+01
7.373999999999999488e+01
-7.537999999999999545e+01
-1.588000000000000078e+01
1.276999999999999957e+01
-7.345000000000000284e+01
-4.900999999999999801e+01
1.418999999999999950e+01
5.070000000000000284e+00
-2.300000000000000000e+01
-2.064000000000000057e+01
1.316999999999999993e+01
9.990000000000000213e+00
-2.139999999999999858e+01
7.700000000000000178e-01
1.844999999999999929e+01
8.230000000000000426e+00
-3.829999999999999716e+01
1.705000000000000071e+01
2.473999999999999844e+01
-7.040000000000000036e+00
-7.019999999999999574e+00
2.114999999999999858e+01
1.117999999999999972e+01
-2.046999999999999886e+01
1.433000000000000007e+01
-5.242000000000000171e+01
3.160000000000000142e+00
-2.705000000000000071e+01
1.332000000000000028e+01
-2.300000000000000100e-01
-2.721000000000000085e+01
7.889999999999999680e+00
2.523999999999999844e+01
4.653999999999999915e+01
-1.776599999999999966e+02
-1.851699999999999875e+02
6.138000000000000256e+01
-1.515000000000000036e+01
1.803999999999999915e+01
3.400000000000000000e+01
1.520000000000000018e+00
-4.679999999999999716e+01
3.035000000000000142e+01
1.751000000000000156e+01
-1.162699999999999960e+02
-1.190000000000000036e+01
-7.025000000000000000e+01
1.660000000000000142e+01
5.734000000000000341e+01
-6.228000000000000114e+01
-3.672999999999999687e+01
4.618999999999999773e+01
1.249000000000000021e+01
-3.896000000000000085e+01
2.728000000000000114e+01
1.408000000000000007e+01
1.692999999999999972e+01
2.864000000000000057e+01
2.751999999999999957e+01
5.889000000000000057e+01
-4.900000000000000000e+01
7.804000000000000625e+01
-1.925000000000000000e+01
3.603999999999999915e+01
-1.032399999999999949e+02
4.718600000000000136e+02
4.157999999999999829e+01
-1.366500000000000057e+02
-1.514699999999999989e+02
-9.269999999999999574e+00
1.842999999999999972e+01
-4.006000000000000227e+01
2.519999999999999929e+01
9.539999999999999147e+00
-2.062999999999999901e+01
4.120000000000000107e+00
2.185999999999999943e+01
-5.120000000000000107e+00
-4.674000000000000199e+01
3.577000000000000313e+01
1.717000000000000171e+01
-2.553999999999999915e+01
-1.726999999999999957e+01
3.807000000000000028e+01
7.429999999999999716e+00
-6.849999999999999645e+00
-2.810000000000000053e+00
4.849000000000000199e+01
6.450000000000000178e+00
-1.798000000000000043e+01
-1.719999999999999973e+00
3.235000000000000142e+01
-6.879999999999999893e+00
-4.004999999999999716e+01
2.894999999999999929e+01
1.660000000000000142e+01
-1.785999999999999943e+01
-2.071999999999999886e+01
2.369000000000000128e+01
-5.899999999999999689e-01
-3.202000000000000313e+01
1.085999999999999943e+01
3.345000000000000284e+01
-1.519900000000000091e+02
4.502000000000000313e+01
-7.309000000000000341e+01
-1.761100000000000136e+02
-1.447400000000000091e+02
1.129999999999999893e+00
6.740999999999999659e+01
2.871000000000000085e+01
-6.820000000000000284e+00
-2.676999999999999957e+01
2.285999999999999943e+01
9.230000000000000426e+00
-2.719999999999999929e+01
4.379999999999999893e+00
1.667999999999999972e+01
-3.100000000000000089e+00
-3.270000000000000284e+01
1.726999999999999957e+01
1.284999999999999964e+01
-2.025000000000000000e+01
-1.500000000000000000e+00
3.347999999999999687e+01
2.710000000000000142e+01
3.442999999999999972e+01
-4.082999999999999829e+01
-4.221999999999999886e+01
-3.176000000000000156e+01
-2.430999999999999872e+01
1.962999999999999901e+01
2.960999999999999943e+01
-3.990999999999999659e+01
-4.484000000000000341e+01
2.746000000000000085e+01
1.018999999999999950e+01
-2.260000000000000142e+01
-8.099999999999999645e+00
2.030999999999999872e+01
3.200000000000000067e-01
-2.037000000000000099e+01
-2.819999999999999840e+00
1.401999999999999957e+01
5.009999999999999787e+00
-1.576999999999999957e+01
9.000000000000000222e-01
1.119999999999999929e+01
-2.487000000000000099e+01
-1.174000000000000057e+02
6.556999999999999318e+01
8.610999999999999943e+01
6.920999999999999375e+01
-9.450000000000000000e+01
2.540900000000000034e+02
2.814100000000000250e+02
-4.225999999999999801e+01
-2.339199999999999875e+02
6.339999999999999858e+00
-4.346000000000000085e+01
-1.985999999999999943e+01
9.226000000000000512e+01
8.750000000000000000e+00
1.247000000000000064e+01
9.215999999999999659e+01
6.170000000000000284e+01
-7.734000000000000341e+01
3.153999999999999915e+01
5.970000000000000284e+01
-1.130000000000000071e+01
-1.019099999999999966e+02
5.110999999999999943e+01
-8.801000000000000512e+01
2.879999999999999893e+00
1.199999999999999956e+00
-3.300000000000000000e+01
8.770999999999999375e+01
8.839999999999999858e+00
7.209999999999999964e+00
-1.676000000000000156e+01
-3.096999999999999886e+01
1.307000000000000028e+01
2.464999999999999858e+01
-1.850000000000000089e+00
-2.073000000000000043e+01
1.127999999999999936e+01
1.898999999999999844e+01
6.990000000000000213e+00
-2.114999999999999858e+01
-2.626000000000000156e+01
-3.567000000000000171e+01
3.711999999999999744e+01
-7.851999999999999602e+01
3.746999999999999886e+01
3.810999999999999943e+01
-9.720000000000000639e+00
-3.846999999999999886e+01
1.565000000000000036e+01
2.412999999999999901e+01
-4.650000000000000355e+00
-3.067000000000000171e+01
2.671000000000000085e+01
1.366999999999999993e+01
-1.252999999999999936e+01
-1.903000000000000114e+01
2.453999999999999915e+01
7.169999999999999929e+00
-1.359999999999999964e+01
-1.521000000000000085e+01
1.798000000000000043e+01
8.419999999999999929e+00
-2.133999999999999986e+01
-1.689999999999999947e+00
1.935000000000000142e+01
-5.999999999999999778e-02
-3.945000000000000284e+01
-5.564000000000000057e+01
5.507999999999999829e+01
6.945000000000000284e+01
-9.619999999999999218e+00
-2.566200000000000045e+02
1.669099999999999966e+02
-2.396299999999999955e+02
-3.471999999999999886e+01
2.635999999999999943e+01
7.865000000000000568e+01
9.056000000000000227e+01
1.992999999999999972e+01
2.171999999999999886e+01
-6.609000000000000341e+01
1.960999999999999943e+01
-6.280000000000000249e+00
-1.023599999999999994e+02
-2.457000000000000028e+01
-1.080000000000000071e+01
4.507000000000000028e+01
1.632000000000000028e+01
-4.995000000000000284e+01
-3.485000000000000142e+01
7.629999999999999893e+00
1.114000000000000057e+01
-3.799999999999999822e+00
1.011999999999999922e+01
4.786999999999999744e+01
9.039999999999999147e+00
-5.618999999999999773e+01
1.000000000000000056e-01
2.850000000000000089e+00
6.781000000000000227e+01
2.948000000000000043e+01
-1.358000000000000007e+01
1.360999999999999943e+01
7.910000000000000142e+00
-1.466999999999999993e+01
-9.200000000000000400e-01
1.183999999999999986e+01
7.700000000000000178e-01
-6.639999999999999680e+00
1.333999999999999986e+01
-2.330000000000000071e+00
-3.517000000000000171e+01
8.580000000000000071e+00
7.123999999999999488e+01
-2.307999999999999829e+01
-2.319000000000000128e+01
2.571000000000000085e+01
5.490000000000000213e+00
-5.785999999999999943e+01
6.110000000000000142e+01
2.614999999999999858e+01
3.927000000000000313e+01
2.928999999999999915e+01
1.578999999999999915e+01
-1.746000000000000085e+01
2.126000000000000156e+01
-1.115000000000000036e+01
9.037000000000000455e+01
-1.196200000000000045e+02
-1.874300000000000068e+02
-1.098599999999999994e+02
9.960000000000000853e+00
-9.245999999999999375e+01
2.326000000000000156e+01
1.090600000000000023e+02
-1.350300000000000011e+02
1.050600000000000023e+02
-1.306000000000000050e+01
9.089999999999999858e+00
-5.457000000000000028e+01
-1.871000000000000085e+01
7.804000000000000625e+01
2.330000000000000071e+01
1.025000000000000000e+01
1.382700000000000102e+02
9.799999999999999822e-01
-6.637000000000000455e+01
-4.631000000000000227e+01
2.387100000000000080e+02
8.948000000000000398e+01
-2.973199999999999932e+02
-1.359799999999999898e+02
-1.403199999999999932e+02
-1.809399999999999977e+02
2.496999999999999886e+02
3.903799999999999955e+02
-1.619900000000000091e+02
-1.485200000000000102e+02
1.383300000000000125e+02
-2.783999999999999986e+01
2.181200000000000045e+02
2.360399999999999920e+02
-1.114800000000000040e+02
-2.047400000000000091e+02
1.440099999999999909e+02
4.310999999999999943e+01
1.310999999999999943e+01
4.472999999999999687e+01
-1.219599999999999937e+02
-9.484999999999999432e+01
2.437500000000000000e+02
7.957999999999999829e+01
2.051000000000000156e+01
1.002300000000000040e+02
-8.542000000000000171e+01
-1.409799999999999898e+02
7.407999999999999829e+01
8.509999999999999432e+01
4.293999999999999773e+01
-5.052000000000000313e+01
5.703999999999999915e+01
2.532999999999999829e+01
-1.498400000000000034e+02
1.391999999999999993e+01
2.658999999999999986e+01
6.620000000000000107e+00
1.161800000000000068e+02
-3.463000000000000256e+01
-1.756299999999999955e+02
2.517400000000000091e+02
1.841000000000000014e+01
4.290999999999999659e+01
-1.319199999999999875e+02
-1.677100000000000080e+02
1.319199999999999875e+02
-2.094000000000000128e+01
1.469999999999999929e+01
-3.635000000000000142e+01
-3.215999999999999659e+01
-9.740000000000000213e+00
2.505999999999999872e+01
1.601999999999999957e+01
-7.259999999999999787e+00
-1.260999999999999943e+01
9.539999999999999147e+00
1.935000000000000142e+01
-3.350000000000000089e+00
-1.825000000000000000e+01
3.504999999999999716e+01
7.501999999999999602e+01
-1.026500000000000057e+02
-5.754999999999999716e+01
8.909000000000000341e+01
1.299699999999999989e+02
-1.533000000000000114e+02
-3.685999999999999943e+01
-1.109099999999999966e+02
-1.385099999999999909e+02
1.707500000000000000e+02
1.168299999999999983e+02
9.300000000000000711e+00
4.429999999999999716e+00
1.013000000000000078e+01
-8.103000000000000114e+01
-1.368999999999999950e+01
-8.431999999999999318e+01
1.584300000000000068e+02
1.178999999999999915e+01
-5.253000000000000114e+01
-2.310999999999999943e+01
1.088900000000000006e+02
-1.115799999999999983e+02
3.010999999999999943e+01
4.679999999999999716e+01
-3.032000000000000028e+01
-1.689000000000000057e+01
-9.100000000000000311e-01
2.167999999999999972e+01
6.519999999999999574e+00
-8.179999999999999716e+00
-1.875000000000000000e+01
2.300000000000000000e+01
7.019999999999999574e+00
-2.619000000000000128e+01
-4.275000000000000000e+01
6.059999999999999609e+00
2.105000000000000071e+01
2.950000000000000178e+00
-1.305000000000000071e+01
2.380999999999999872e+01
7.650000000000000355e+00
-3.770000000000000018e+00
7.120000000000000107e+00
4.400000000000000355e+00
1.490000000000000036e+01
-5.057999999999999829e+01
-3.450000000000000178e+00
-1.297000000000000064e+01
-6.540000000000000036e+00
-9.339999999999999858e+00
5.730000000000000426e+00
4.089999999999999858e+00
-2.410999999999999943e+01
3.040000000000000036e+00
4.372999999999999687e+01
-3.779999999999999805e+00
-3.121000000000000085e+01
-4.250000000000000000e+00
4.900000000000000355e+00
-1.630000000000000071e+01
-7.150000000000000355e+00
1.142999999999999972e+01
3.640000000000000124e+00
-1.261999999999999922e+01
1.134999999999999964e+01
1.623000000000000043e+01
5.999999999999999778e-01
7.199999999999999734e-01
7.929999999999999716e+00
1.780000000000000027e+00
-1.283999999999999986e+01
4.990000000000000213e+00
1.550000000000000044e+00
-6.900000000000000355e+00
3.500000000000000000e+00
1.939000000000000057e+01
4.750000000000000000e+00
-3.263000000000000256e+01
-5.000000000000000278e-02
3.418999999999999773e+01
2.689999999999999947e+00
-1.653000000000000114e+01
1.103999999999999915e+01
9.669999999999999929e+00
-1.683999999999999986e+01
-4.070000000000000284e+01
2.490000000000000213e+00
2.276999999999999957e+01
2.220000000000000195e+00
-1.315000000000000036e+01
6.990000000000000213e+00
1.830000000000000071e+00
-1.403999999999999915e+01
-7.450000000000000178e+00
1.139000000000000057e+01
9.439999999999999503e+00
5.559999999999999609e+00
-3.981000000000000227e+01
-4.410000000000000142e+00
5.332000000000000028e+01
1.705999999999999872e+01
-5.379999999999999893e+00
7.709999999999999964e+00
-8.250000000000000000e+00
-1.930000000000000071e+01
8.260999999999999943e+01
-7.081000000000000227e+01
-2.366999999999999886e+02
1.465000000000000036e+01
-4.049999999999999822e+00
-4.868999999999999773e+01
1.365000000000000036e+01
-8.550000000000000711e+00
9.990000000000000213e+00
-2.307999999999999829e+01
-3.410999999999999943e+01
-7.230000000000000426e+00
1.600000000000000089e+00
3.904999999999999716e+01
2.862000000000000099e+01
-1.917999999999999972e+01
-1.442999999999999972e+01
5.889999999999999858e+01
4.434000000000000341e+01
-6.856000000000000227e+01
-1.758999999999999986e+01
2.970000000000000195e+00
3.859000000000000341e+01
2.551000000000000156e+01
2.650000000000000000e+01
-5.049999999999999822e+00
-1.019999999999999929e+01
1.603000000000000114e+01
4.128999999999999915e+01
2.939999999999999947e+00
-2.417000000000000171e+01
2.896000000000000085e+01
1.026999999999999957e+01
8.201000000000000512e+01
6.710999999999999943e+01
3.681000000000000227e+01
1.259999999999999964e+01
-4.717000000000000171e+01
-8.859000000000000341e+01
-2.871000000000000085e+01
-1.989999999999999991e+00
2.908999999999999986e+01
4.059999999999999609e+00
1.100000000000000089e+00
-9.400000000000000355e+00
4.190000000000000391e+00
1.416000000000000014e+01
-1.400000000000000133e-01
-1.528999999999999915e+01
7.169999999999999929e+00
2.790000000000000036e+00
-2.757999999999999829e+01
-9.200000000000000400e-01
9.769999999999999574e+00
-4.370000000000000107e+00
-1.785000000000000142e+01
1.266000000000000014e+01
9.100000000000000311e-01
-6.030000000000000249e+00
3.500000000000000000e+00
1.165000000000000036e+01
-8.740000000000000213e+00
-2.392000000000000171e+01
1.451999999999999957e+01
1.490000000000000036e+01
2.898999999999999844e+01
-3.175000000000000000e+01
7.570000000000000284e+00
1.799999999999999933e-01
-2.778000000000000114e+01
7.479000000000000625e+01
-7.070000000000000284e+00
-1.102399999999999949e+02
8.898999999999999488e+01
-2.467000000000000171e+01
-2.742000000000000171e+01
1.839000000000000057e+01
-1.331000000000000050e+01
-1.725000000000000000e+01
-9.410000000000000142e+00
-6.017999999999999972e+01
-3.422900000000000205e+02
1.320200000000000102e+02
-1.016899999999999977e+02
1.850000000000000000e+01
-2.755000000000000071e+01
3.503000000000000114e+01
-3.790000000000000036e+00
-7.659999999999999432e+01
4.897999999999999687e+01
2.687999999999999901e+01
2.912000000000000099e+01
9.260999999999999943e+01
3.807999999999999829e+01
-8.481000000000000227e+01
9.970999999999999375e+01
-2.376800000000000068e+02
3.094999999999999929e+01
4.168999999999999773e+01
-4.339000000000000057e+01
-5.953000000000000114e+01
5.071000000000000085e+01
-8.782999999999999829e+01
2.240000000000000213e+00
-4.919999999999999929e+00
4.027000000000000313e+01
-6.269999999999999574e+00
-3.654999999999999716e+01
-5.128999999999999915e+01
5.507000000000000028e+01
-6.587999999999999545e+01
6.998999999999999488e+01
2.608999999999999986e+01
1.867999999999999972e+01
6.285999999999999943e+01
-1.237099999999999937e+02
-2.657000000000000028e+01
-4.714999999999999858e+01
5.182000000000000028e+01
3.917000000000000171e+01
2.580999999999999872e+01
5.727000000000000313e+01
-1.537899999999999920e+02
-6.928000000000000114e+01
2.308999999999999986e+01
3.105999999999999872e+01
1.075199999999999960e+02
-1.091299999999999955e+02
7.230000000000000426e+00
-4.006000000000000227e+01
-1.681800000000000068e+02
1.117199999999999989e+02
1.544999999999999929e+01
3.148000000000000043e+01
3.489999999999999858e+01
5.964999999999999858e+01
1.331000000000000050e+01
-1.607000000000000028e+01
-1.757000000000000028e+01
-4.154999999999999716e+01
-4.190999999999999659e+01
-1.129999999999999893e+00
7.600000000000000089e-01
-1.361999999999999922e+01
2.851000000000000156e+01
-1.459999999999999964e+00
-3.977000000000000313e+01
3.560999999999999943e+01
2.516000000000000014e+01
-1.250999999999999979e+01
-1.342999999999999972e+01
-9.070000000000000284e+00
1.008000000000000007e+01
2.220000000000000195e+00
-6.500000000000000000e+00
2.392999999999999972e+01
-1.001599999999999966e+02
-5.185999999999999943e+01
-1.350000000000000089e+00
5.545000000000000284e+01
-3.514000000000000057e+01
8.040000000000000568e+01
-2.460999999999999943e+01
1.790000000000000036e+00
-6.415999999999999659e+01
4.470000000000000284e+01
2.864000000000000057e+01
-7.451999999999999602e+01
-6.099999999999999645e+00
7.129999999999999716e+01
1.071000000000000085e+01
-2.367000000000000171e+01
2.430000000000000160e+00
-1.821000000000000085e+01
3.688000000000000256e+01
1.240000000000000036e+01
2.455999999999999872e+01
-9.730000000000000426e+00
6.030000000000000249e+00
-4.400999999999999801e+01
1.250999999999999979e+01
2.221999999999999886e+01
3.681000000000000227e+01
-2.767000000000000171e+01
-6.330000000000000071e+00
-2.014999999999999858e+01
-5.263000000000000256e+01
9.369999999999999218e+00
3.450999999999999801e+01
-4.940000000000000391e+00
1.700000000000000122e-01
2.564999999999999858e+01
2.417000000000000171e+01
4.202000000000000313e+01
2.825000000000000000e+01
-6.659999999999999432e+01
1.851000000000000156e+01
-2.457000000000000028e+01
-4.696999999999999886e+01
-7.581999999999999318e+01
-5.300000000000000266e-01
1.095600000000000023e+02
-6.914000000000000057e+01
7.089999999999999858e+00
2.914999999999999858e+01
5.290000000000000036e+00
3.919999999999999929e+00
4.656000000000000227e+01
-8.423999999999999488e+01
-1.575999999999999979e+01
-3.467000000000000171e+01
2.348000000000000043e+01
-8.129000000000000625e+01
1.733100000000000023e+02
-5.321000000000000085e+01
-2.267000000000000171e+01
1.102999999999999936e+01
4.707000000000000028e+01
1.494499999999999886e+02
-7.973000000000000398e+01
-1.065100000000000051e+02
-1.543999999999999950e+01
-1.483000000000000007e+01
5.075000000000000000e+01
-2.210999999999999943e+01
-3.675999999999999801e+01
-4.113000000000000256e+01
1.488000000000000078e+01
2.083999999999999986e+01
-5.200000000000000178e+00
-8.839999999999999858e+00
1.149000000000000021e+01
-2.049999999999999822e+00
-1.266999999999999993e+01
-9.699999999999999734e-01
1.689000000000000057e+01
-1.070000000000000062e+00
-2.873999999999999844e+01
1.789999999999999858e+01
1.525000000000000000e+01
-8.830000000000000071e+00
-2.630999999999999872e+01
2.612999999999999901e+01
1.616000000000000014e+01
-1.623999999999999844e+01
-1.835999999999999943e+01
1.063000000000000078e+01
4.699999999999999734e-01
-1.998000000000000043e+01
2.207999999999999829e+01
3.001000000000000156e+01
-8.019999999999999574e+00
-3.885000000000000142e+01
1.266000000000000014e+01
1.543999999999999950e+01
-6.030000000000000249e+00
-1.343999999999999950e+01
2.937999999999999901e+01
5.049999999999999822e+00
-2.183999999999999986e+01
-1.466000000000000014e+01
1.485999999999999943e+01
9.339999999999999858e+00
-2.001999999999999957e+01
1.669999999999999929e+01
9.800000000000000711e+00
-2.667000000000000171e+01
-6.830000000000000071e+00
2.925000000000000000e+01
-5.389999999999999680e+00
-2.548000000000000043e+01
2.041000000000000014e+01
1.339000000000000057e+01
8.220000000000000639e+00
-3.246000000000000085e+01
2.394000000000000128e+01
1.533999999999999986e+01
-6.400000000000000355e+00
-2.030999999999999872e+01
7.830000000000000071e+00
6.290000000000000036e+00
-3.800000000000000044e-01
3.479999999999999982e+00
2.789000000000000057e+01
-1.448000000000000043e+01
-5.110000000000000320e+00
6.190000000000000391e+00
6.790000000000000036e+00
-2.498000000000000043e+01
-1.018999999999999950e+01
1.682999999999999829e+01
1.301999999999999957e+01
-2.400000000000000000e+01
2.180000000000000160e+00
1.061999999999999922e+01
-7.799999999999999822e+00
-2.817999999999999972e+01
2.092999999999999972e+01
-5.899999999999999689e-01
-2.894000000000000128e+01
1.316999999999999993e+01
3.213000000000000256e+01
-7.950000000000000178e+00
-2.398000000000000043e+01
-1.016999999999999993e+01
3.557000000000000028e+01
-1.910999999999999943e+02
1.258499999999999943e+02
1.844900000000000091e+02
4.364999999999999858e+01
-6.709999999999999432e+01
-1.141999999999999993e+01
1.113000000000000078e+01
-4.059999999999999609e+00
1.528999999999999915e+01
-7.650000000000000355e+00
-1.343999999999999950e+01
-1.423000000000000043e+01
-6.342999999999999972e+01
1.469300000000000068e+02
4.846999999999999886e+01
-2.129900000000000091e+02
3.196000000000000085e+01
2.099999999999999922e-01
4.600000000000000200e-01
1.440699999999999932e+02
-6.600000000000000311e-01
-3.665999999999999659e+01
-1.399999999999999911e+00
6.099999999999999645e+00
6.372999999999999687e+01
-1.320000000000000000e+02
9.082999999999999829e+01
1.152900000000000063e+02
-1.143299999999999983e+02
6.976999999999999602e+01
-1.316999999999999993e+01
7.269999999999999574e+00
-1.528999999999999915e+01
-3.123999999999999844e+01
4.133299999999999841e+02
-1.873899999999999864e+02
-3.087699999999999818e+02
1.472400000000000091e+02
-1.544900000000000091e+02
1.110000000000000000e+02
-4.589999999999999858e+01
4.275000000000000000e+01
1.180000000000000071e+01
1.269999999999999929e+01
1.000000000000000021e-02
2.582999999999999829e+01
7.790000000000000036e+00
4.342000000000000171e+01
-6.174000000000000199e+01
-1.426999999999999957e+01
3.350000000000000000e+01
1.111999999999999922e+01
6.660999999999999943e+01
2.067999999999999972e+01
1.083999999999999986e+01
-1.042000000000000028e+02
4.150000000000000355e+00
2.240000000000000213e+00
-5.650999999999999801e+01
-1.814999999999999858e+01
8.342000000000000171e+01
-1.405000000000000071e+01
-4.509999999999999787e+00
2.205000000000000071e+01
3.557999999999999829e+01
-7.331000000000000227e+01
-1.085000000000000000e+02
1.775000000000000000e+01
4.590999999999999659e+01
-2.271000000000000085e+01
2.169999999999999929e+01
3.092999999999999972e+01
3.343999999999999773e+01
4.718999999999999773e+01
-9.515999999999999659e+01
-7.021999999999999886e+01
5.221000000000000085e+01
-1.144999999999999929e+01
7.298000000000000398e+01
1.625000000000000000e+01
3.960999999999999943e+01
-1.241700000000000017e+02
4.110000000000000142e+01
-3.757000000000000028e+01
-1.798700000000000045e+02
3.422999999999999687e+01
6.175000000000000000e+01
2.017000000000000171e+01
1.521200000000000045e+02
-6.314000000000000057e+01
-1.761800000000000068e+02
1.800600000000000023e+02
7.767000000000000171e+01
9.115999999999999659e+01
-2.706000000000000227e+02
8.571999999999999886e+01
-1.143499999999999943e+02
-4.713000000000000256e+01
-7.975000000000000000e+01
2.383999999999999986e+01
2.443400000000000034e+02
-8.101999999999999602e+01
-6.793000000000000682e+01
-1.571000000000000085e+01
-4.485999999999999943e+01
-3.087000000000000099e+01
-2.910000000000000142e+00
-2.237000000000000099e+01
1.620000000000000107e+00
1.180400000000000063e+02
-1.708999999999999986e+01
-2.673999999999999844e+01
-3.750000000000000000e+01
2.367999999999999972e+01
1.566999999999999993e+01
-1.510999999999999943e+01
4.200000000000000178e+00
-3.540999999999999659e+01
-1.499199999999999875e+02
1.490900000000000034e+02
2.002199999999999989e+02
3.971999999999999886e+01
-1.170199999999999960e+02
-6.781000000000000227e+01
-1.619000000000000128e+01
-6.299999999999999822e+00
-1.719999999999999929e+01
-2.832000000000000028e+01
2.365600000000000023e+02
2.500000000000000000e-01
3.092999999999999972e+01
-1.771599999999999966e+02
-2.635999999999999943e+01
-8.910000000000000142e+00
6.299999999999999822e+00
-1.370000000000000107e+00
-1.164000000000000057e+01
6.385999999999999943e+01
-4.096000000000000085e+01
-6.096999999999999886e+01
5.009999999999999787e+00
3.646999999999999886e+01
-1.232000000000000028e+01
-1.057000000000000028e+01
1.003900000000000006e+02
1.244899999999999949e+02
-4.420000000000000284e+01
-7.980000000000000426e+00
5.729999999999999716e+01
-7.053000000000000114e+01
-6.050000000000000000e+01
1.332000000000000028e+01
1.301999999999999957e+01
-2.085000000000000142e+01
-9.429999999999999716e+00
2.982000000000000028e+01
1.072000000000000064e+01
2.905999999999999872e+01
1.469999999999999929e+01
-1.032699999999999960e+02
4.129999999999999716e+01
9.426000000000000512e+01
-4.850000000000000000e+01
-1.784600000000000080e+02
-3.975999999999999801e+01
7.231000000000000227e+01
1.046099999999999994e+02
5.040000000000000036e+00
-3.151999999999999957e+01
-3.549999999999999822e+00
4.699000000000000199e+01
2.016899999999999977e+02
-1.338000000000000078e+01
-8.898999999999999488e+01
-7.262999999999999545e+01
-2.149999999999999911e+00
2.076000000000000156e+01
3.100000000000000089e+00
-1.123000000000000043e+01
-4.014000000000000057e+01
-5.938000000000000256e+01
-2.810999999999999943e+01
1.065100000000000051e+02
1.244999999999999929e+01
4.230000000000000426e+00
4.040000000000000036e+00
-2.950000000000000178e+00
2.971000000000000085e+01
8.326999999999999602e+01
1.172500000000000000e+02
-3.039499999999999886e+02
8.095000000000000284e+01
1.352400000000000091e+02
-1.239300000000000068e+02
6.103000000000000114e+01
1.166999999999999993e+01
-5.339000000000000057e+01
4.607000000000000028e+01
2.992000000000000171e+01
1.310999999999999943e+01
-1.153999999999999915e+01
-1.907000000000000028e+01
1.040000000000000036e+01
1.140000000000000036e+01
2.103999999999999915e+01
-1.383999999999999986e+01
-1.473000000000000043e+01
-1.439000000000000057e+01
-1.041000000000000014e+01
8.990000000000000213e+00
1.489999999999999991e+00
-8.990000000000000213e+00
3.890000000000000124e+00
7.019999999999999574e+00
6.999999999999999556e-01
-1.177999999999999936e+01
1.008999999999999986e+01
1.069999999999999929e+01
8.789999999999999147e+00
8.580000000000000071e+00
-7.219999999999999751e+00
-4.269999999999999574e+00
-5.440000000000000391e+00
1.400000000000000133e-01
1.041999999999999993e+01
1.459999999999999964e+00
-6.559999999999999609e+00
6.179999999999999716e+00
8.660000000000000142e+00
-2.819999999999999840e+00
-7.120000000000000107e+00
1.106000000000000050e+01
2.759999999999999787e+00
-1.072000000000000064e+01
-1.200999999999999979e+01
5.759999999999999787e+00
5.809999999999999609e+00
-9.679999999999999716e+00
-1.072000000000000064e+01
-1.980000000000000071e+01
-1.330000000000000071e+01
5.330000000000000071e+00
2.457000000000000028e+01
-5.209999999999999964e+00
2.279999999999999805e+00
-2.301999999999999957e+01
-3.918999999999999773e+01
9.220999999999999375e+01
-7.228000000000000114e+01
-4.088000000000000256e+01
4.469999999999999751e+00
1.316999999999999993e+01
-2.294999999999999929e+01
1.669000000000000128e+01
-8.057999999999999829e+01
-2.385999999999999943e+01
-1.448000000000000043e+01
1.239000000000000057e+01
3.117000000000000171e+01
-7.900000000000000000e+01
3.775000000000000000e+01
1.083999999999999986e+01
-1.192000000000000028e+02
-4.578999999999999915e+01
3.811999999999999744e+01
4.142000000000000171e+01
2.621000000000000085e+01
-3.860000000000000142e+01
-1.905000000000000071e+01
4.538000000000000256e+01
1.408999999999999986e+01
7.440000000000000391e+00
3.603000000000000114e+01
3.668999999999999773e+01
-1.100000000000000000e+02
-3.459999999999999964e+00
-7.509000000000000341e+01
2.776999999999999957e+01
-1.040699999999999932e+02
3.514999999999999858e+01
9.890000000000000568e+01
1.926000000000000156e+01
-2.515900000000000034e+02
2.357500000000000000e+02
-1.921999999999999886e+01
-6.454999999999999716e+01
-4.585999999999999943e+01
1.122699999999999960e+02
3.192999999999999972e+01
-8.990000000000000213e+00
2.730999999999999872e+01
-2.148999999999999844e+01
-1.038000000000000078e+01
-2.355000000000000071e+01
-7.440000000000000391e+00
1.867999999999999972e+01
2.267000000000000171e+01
9.939999999999999503e+00
7.299999999999999822e-01
3.853999999999999915e+01
-1.901999999999999957e+01
-5.006000000000000227e+01
4.750000000000000000e+00
4.809000000000000341e+01
-2.485000000000000142e+01
-2.714000000000000057e+01
3.260999999999999943e+01
-1.744999999999999929e+01
-4.903999999999999915e+01
2.444000000000000128e+01
4.325000000000000000e+01
3.100000000000000000e+01
2.766000000000000014e+01
-3.019000000000000128e+01
-3.292000000000000171e+01
-6.929999999999999716e+00
2.914999999999999858e+01
-5.521999999999999886e+01
-4.780000000000000249e+00
9.378000000000000114e+01
-9.734999999999999432e+01
-5.807000000000000028e+01
