1589022077.00
64.000000
-0.00
-0.00
-0.00
-0.00
-0.00
-0.00
-0.00
-0.00
-0.00
-0.00
0.00
0.01
0.01
-0.00
-0.03
-0.05
-0.05
0.00
0.13
0.36
0.66
1.01
1.37
1.72
2.06
2.40
2.79
3.24
3.80
4.42
5.06
5.66
6.20
6.68
7.15
7.68
8.31
9.14
10.09
11.04
11.88
12.56
13.14
13.76
14.65
15.96
17.91
20.32
22.90
25.38
27.58
29.57
31.68
34.32
37.81
42.54
48.15
54.10
59.83
64.97
69.58
74.14
79.34
85.71
93.76
103.00
112.62
121.73
129.77
136.75
143.30
150.75
157.77
166.64
177.95
191.79
206.97
220.57
228.25
225.36
208.53
176.87
132.76
80.05
23.07
-34.94
-92.44
-149.16
-205.23
-260.37
-313.74
-363.87
-409.83
-450.91
-486.50
-515.74
-537.23
-549.22
-549.96
-538.37
-514.21
-478.67
-433.88
-382.45
-327.02
-269.84
-212.63
-156.66
-102.95
-52.37
-5.90
35.58
71.43
101.35
125.50
144.38
158.69
169.15
176.37
180.75
182.57
182.07
179.51
175.23
169.65
163.18
156.15
148.81
141.30
133.69
126.02
118.33
110.69
103.16
95.80
88.68
81.83
75.25
68.95
62.95
57.25
51.86
46.78
42.03
37.59
33.45
29.61
26.07
22.81
19.83
17.11
14.67
12.48
10.54
8.83
7.35
6.07
4.97
4.05
3.27
2.62
2.09
1.65
1.30
1.01
0.79
0.61
0.47
0.37
0.29
0.23
0.18
0.16
0.14
0.13
0.14
0.15
0.17
0.20
0.23
0.27
0.31
0.36
0.40
0.45
0.50
0.54
0.59
0.65
0.70
0.76
0.82
0.89
0.97
1.05
1.14
1.24
1.36
1.49
1.64
1.80
1.98
2.19
2.42
2.67
2.95
3.26
3.60
3.97
4.37
4.81
5.29
5.80
6.35
6.93
7.56
8.24
8.95
9.71
10.52
11.38
12.27
13.21
14.19
15.25
16.35
17.52
18.74
19.99
21.25
22.45
23.51
24.33
24.79
24.75
24.10
22.75
20.63
17.75
14.15
9.92
5.25
0.35
-4.54
-9.19
-13.38
-16.92
-19.69
-21.61
-22.69
-22.95
-22.50
-21.47
-20.00
-18.23
-16.30
-14.32
-12.38
-10.54
-8.81
-7.23
-5.81
-4.52
-3.36
-2.28
-1.25
-0.25
0.76
1.87
3.08
4.44
6.00
7.81
9.94
12.42
15.28
18.55
22.25
26.28
30.54
35.00
39.63
44.45
49.50
54.91
60.82
67.49
74.96
83.35
92.80
103.39
115.18
128.10
141.99
156.56
171.54
186.29
200.24
212.89
223.79
232.46
238.35
240.66
238.07
231.18
219.87
203.74
182.79
157.59
129.23
98.85
67.39
35.63
4.23
-26.42
-56.18
-84.44
-110.05
-131.30
-146.43
-153.95
-152.97
-143.36
-126.16
-104.25
-80.73
-58.27
-38.73
-23.51
-13.74
-10.25
-13.16
-22.00
-38.24
-61.67
-89.69
-117.92
-142.34
-160.53
-171.66
-175.86
-173.79
-171.95
-174.37
-180.83
-187.39
-190.38
-188.69
-183.56
-177.03
-170.61
-173.70
-190.47
-217.95
-247.37
-271.16
-287.04
-297.95
-308.96
-324.56
-358.63
-417.04
-495.71
-582.18
-664.57
-737.31
-801.58
-861.41
-847.12
-728.46
-529.05
-309.40
-115.55
40.15
167.30
278.75
382.91
481.60
554.10
595.25
605.33
591.91
563.67
526.55
481.84
429.93
371.49
298.07
210.13
111.63
11.67
-79.95
-140.42
-154.51
-120.47
-52.58
21.24
79.19
111.57
122.48
122.40
121.10
121.17
120.64
116.24
104.17
85.51
64.05
45.36
33.46
29.08
28.39
26.63
20.84
10.24
-2.76
-14.90
-22.89
-24.76
-20.35
-12.80
-4.34
3.61
10.99
18.78
27.69
37.80
48.71
59.66
69.40
77.05
82.47
86.03
88.19
89.04
88.34
85.93
82.10
77.50
73.22
70.60
70.43
72.73
76.97
82.38
88.73
96.76
108.34
123.51
143.69
170.52
205.27
247.75
295.08
341.01
376.81
393.61
385.70
353.25
302.17
241.95
182.18
129.40
85.90
50.78
22.00
-1.77
-20.36
-33.34
-41.40
-47.10
-54.33
-66.72
-85.92
-110.77
-137.58
-161.80
-180.22
-192.19
-199.60
-205.78
-214.07
-227.15
-247.16
-276.15
-315.91
-367.01
-427.17
-490.35
-547.44
-588.82
-607.52
-601.59
-574.29
-532.39
-483.45
-433.39
-385.57
-341.16
-300.31
-263.08
-229.75
-200.45
-174.73
-151.42
-129.06
-106.44
-83.15
-59.60
-36.61
-14.98
4.99
23.59
41.51
59.47
77.90
96.76
115.57
133.57
149.95
163.95
174.93
182.37
186.00
185.86
182.41
176.47
169.02
160.88
152.44
143.55
133.82
123.07
111.68
100.81
92.23
87.72
88.72
96.23
110.56
131.50
158.08
188.33
219.43
248.35
273.20
294.39
314.74
338.14
367.16
401.04
435.23
463.10
478.65
479.08
465.46
441.60
411.75
378.90
344.36
308.56
272.40
237.70
206.75
181.09
160.47
142.84
125.30
105.49
82.53
57.66
33.25
11.67
-5.93
-20.21
-33.24
-47.56
-64.90
-85.44
-108.08
-130.96
-152.72
-173.27
-194.01
-217.45
-246.73
-284.98
-334.49
-395.45
-464.75
-535.45
-597.75
-641.57
-659.93
-651.39
-620.42
-575.27
-524.42
-473.65
-424.94
-377.50
-329.91
-281.83
-234.28
-188.71
-145.82
-104.89
-64.29
-22.52
21.00
65.89
111.26
156.58
201.80
246.75
290.25
329.59
360.95
380.70
386.82
379.65
361.51
335.44
304.06
269.02
231.40
192.48
154.01
117.89
85.21
55.72
27.80
-0.61
-31.07
-64.11
-99.46
-136.59
-175.14
-214.64
-253.61
-288.92
-315.90
-329.65
-326.85
-307.24
-273.82
-231.81
-186.65
-142.28
-100.45
-60.96
-22.66
15.71
55.03
95.52
136.57
176.57
212.92
242.67
263.38
274.06
275.56
270.01
259.94
247.13
232.27
215.06
194.85
171.27
144.51
115.33
84.84
54.28
24.81
-2.66
-27.59
-49.82
-69.38
-86.30
-100.51
-111.99
-120.93
-128.05
-134.52
-141.65
-150.49
-161.54
-174.73
-189.39
-204.25
-217.41
-226.46
-228.82
-222.38
-206.26
-181.14
-149.07
-112.70
-74.35
-35.35
3.87
43.40
82.98
121.64
157.74
189.37
214.97
233.68
245.39
250.63
250.35
245.82
238.42
229.58
220.62
212.52
205.68
199.92
194.48
188.34
180.57
170.71
158.95
146.18
133.66
122.57
113.40
105.68
97.95
88.26
75.01
57.79
37.83
17.72
0.48
-11.86
-19.39
-24.55
-31.07
-41.97
-57.26
-73.10
-82.60
-78.52
-56.44
-17.17
33.10
84.60
127.00
152.11
155.93
139.41
108.30
72.22
42.84
31.14
43.97
81.13
134.63
191.14
237.05
263.99
271.96
268.48
263.93
265.78
274.86
285.41
288.80
278.50
253.37
217.62
177.92
139.47
103.67
68.42
30.58
-11.20
-55.07
-96.68
-131.34
-156.45
-172.89
-184.50
-196.49
-213.57
-238.69
-272.61
-313.78
-358.36
-400.19
-431.29
-443.35
-430.22
-390.48
-328.87
-255.59
-183.51
-124.21
-84.61
-65.42
-61.67
-65.10
-67.09
-61.19
-44.41
-17.27
17.17
54.67
90.98
122.62
146.90
162.06
167.41
163.59
152.49
136.73
118.78
99.81
79.25
55.05
24.84
-12.67
-56.84
-104.91
-152.72
-195.54
-229.06
-250.18
-257.70
-252.93
-239.68
-223.50
-210.16
-203.87
-206.04
-215.05
-227.25
-238.38
-245.05
-245.43
-239.22
-227.10
-210.16
-189.49
-166.02
-140.36
-112.64
-82.72
-50.56
-16.77
16.90
47.66
72.48
89.32
98.04
100.70
100.63
100.94
103.25
106.98
110.04
110.14
106.21
99.08
91.20
85.41
83.66
86.24
91.77
98.06
103.22
106.36
107.71
108.08
108.06
107.48
105.37
100.47
91.97
80.05
65.76
50.67
36.22
23.28
12.10
2.32
-6.86
-16.42
-27.03
-38.38
-48.64
-54.45
-51.86
-37.88
-11.93
23.50
63.54
102.65
136.40
162.59
181.04
192.61
197.95
197.05
189.64
176.09
158.04
138.15
119.09
102.38
87.76
73.72
58.53
41.47
23.22
5.27
-11.11
-25.83
-40.03
-55.29
-72.51
-91.13
-109.22
-124.16
-133.76
-136.94
-134.06
-126.66
-116.92
-107.13
-99.17
-94.14
-92.26
-92.85
-94.66
-96.40
-97.33
-97.63
-98.27
-100.28
-103.80
-107.44
-108.49
-103.90
-91.74
-72.11
-47.27
-20.60
4.83
27.39
47.09
64.79
81.18
96.03
108.20
116.28
119.42
117.83
112.69
105.74
98.72
92.95
89.12
87.27
86.95
87.34
87.39
85.90
81.59
73.22
60.19
43.05
23.83
5.62
-8.64
-17.60
-22.35
-26.05
-32.43
-43.90
-60.43
-79.76
-98.74
-115.07
-128.19
-139.00
-148.91
-158.80
-168.83
-178.65
-187.96
-196.36
-202.93
-205.68
-201.72
-188.10
-163.04
-127.03
-82.94
-35.30
11.10
52.47
86.64
112.99
131.89
144.11
150.52
152.07
149.93
145.43
139.95
134.54
129.70
125.31
120.87
115.74
109.53
102.16
93.99
85.52
77.22
69.32
61.73
54.12
46.08
37.35
27.89
17.88
7.46
-3.39
-14.85
-27.17
-40.33
-53.87
-66.96
-78.75
-88.80
-97.48
-105.96
-115.89
-128.71
-144.81
-162.81
-179.45
-190.21
-190.63
-177.78
-151.39
-113.90
-69.71
-23.64
20.35
59.84
93.82
121.90
143.75
158.88
166.95
168.29
164.21
156.80
148.44
141.07
135.66
132.13
129.59
126.94
123.36
118.55
112.61
105.68
97.71
88.38
77.48
65.15
52.14
39.51
28.25
18.79
10.88
3.90
-2.61
-8.51
-13.02
-15.08
-14.02
-10.02
-4.32
1.18
4.60
4.56
0.60
-6.92
-16.82
-27.29
-35.93
-39.87
-36.32
-23.34
-0.62
30.28
66.53
105.21
144.50
184.04
224.20
264.58
302.90
334.90
355.65
361.62
352.18
329.94
299.49
265.57
231.46
198.56
167.01
136.90
109.08
85.21
66.99
55.14
48.81
45.84
43.59
40.11
34.82
28.66
23.44
20.77
21.17
23.52
25.51
24.46
18.44
7.03
-8.56
-26.30
-44.33
-61.90
-79.75
-99.66
-123.75
-153.89
-191.45
-237.08
-290.18
-347.89
-404.43
-451.51
-480.31
-484.67
-463.63
-422.10
-369.06
-314.17
-264.46
-222.98
-189.67
-163.43
-143.93
-131.79
-127.37
-129.15
-132.99
-132.75
-122.23
-97.14
-56.22
-1.49
62.84
131.65
199.89
262.93
316.55
356.83
380.52
385.89
373.50
346.45
309.71
268.64
227.45
188.23
151.07
114.95
78.94
42.72
6.77
-28.04
-61.12
-92.29
-121.85
-150.48
-179.14
-208.88
-240.08
-271.43
-299.18
-317.32
-319.22
-300.26
-260.08
-203.28
-138.04
-73.26
-15.67
31.54
68.21
95.53
114.30
124.46
125.67
118.48
104.95
88.33
71.96
58.14
47.58
39.59
32.89
26.42
19.90
13.58
7.86
2.60
-3.11
-10.71
-21.57
-36.22
-54.00
-73.28
-92.31
-110.03
-126.73
-143.70
-162.48
-183.67
-206.30
-227.98
-245.72
-257.23
-261.91
-261.15
-257.80
-255.29
-256.50
-262.73
-273.10
-284.42
-291.82
-289.94
-274.65
-244.59
-201.85
-151.48
-99.89
-52.95
-14.34
14.71
34.65
46.21
49.17
42.19
23.98
-5.03
-41.30
-78.18
-107.61
-122.88
-121.10
-103.99
-76.73
-45.14
-13.18
18.35
51.23
88.02
130.42
178.38
230.05
282.10
330.02
368.58
392.75
399.35
388.38
363.47
330.48
295.03
260.38
226.79
192.66
156.64
119.07
81.80
46.62
13.63
-19.53
-56.78
-101.76
-155.60
-215.57
-274.90
-324.41
-354.90
-359.97
-338.01
-292.54
-230.74
-160.89
-89.97
-22.50
38.98
92.56
135.78
165.81
180.55
180.23
168.03
149.32
129.77
113.08
99.66
86.61
69.09
42.27
3.14
-48.56
-110.42
-177.76
-244.59
-304.28
-350.49
-377.99
-383.78
-367.73
-332.75
-284.09
-228.16
-171.19
-118.21
-72.54
-35.64
-7.20
14.61
32.51
49.08
65.82
82.23
95.90
103.31
101.54
89.99
71.45
51.88
38.84
39.29
57.52
94.26
147.05
211.35
281.75
352.68
418.77
475.09
517.78
544.79
556.51
555.35
544.75
527.68
505.66
478.84
446.81
409.80
369.09
326.96
285.80
247.32
212.05
179.41
148.14
116.90
84.75
51.58
18.06
-14.62
-45.27
-73.28
-99.04
-123.78
-149.23
-176.87
-207.34
-240.04
-273.26
-304.60
-331.67
-352.78
-367.48
-376.62
-382.26
-387.09
-393.56
-402.84
-413.95
-423.53
-426.48
-417.44
-392.67
-351.40
-295.99
-230.95
-161.04
-89.39
-16.76
57.64
134.01
209.71
278.39
331.31
360.37
361.52
336.61
292.77
239.68
186.07
137.34
95.22
59.32
28.75
3.15
-17.76
-35.29
-52.28
-72.46
-99.00
-132.97
-172.93
-215.71
-257.96
-297.74
-335.37
-373.12
-413.93
-459.49
-508.76
-557.21
-597.83
-623.27
-628.39
-612.22
-578.10
-532.25
-481.38
-430.63
-382.66
-338.15
-297.01
-259.45
-226.19
-198.02
-175.21
-157.22
-143.00
-131.53
-122.34
-115.53
-111.58
-110.83
-112.97
-117.09
-121.78
-125.67
-127.84
-128.12
-127.03
-125.45
-124.26
-123.92
-124.43
-125.37
-126.23
-126.57
-126.23
-125.28
-123.83
-121.85
-119.07
-114.90
-108.52
-99.16
-86.12
-68.97
-47.62
-22.22
6.78
38.73
72.75
107.76
142.52
175.68
205.89
231.96
252.96
268.35
278.00
282.22
281.64
277.16
269.80
260.57
250.30
239.61
228.73
217.62
205.93
193.20
178.97
162.91
144.90
125.10
103.91
81.91
59.84
38.55
18.91
1.82
-11.85
-21.38
-26.27
-26.34
-21.82
-13.30
-1.65
12.18
27.33
43.13
59.17
75.14
90.69
105.24
118.01
128.07
134.69
137.60
137.19
134.39
130.40
126.21
122.28
118.43
114.15
109.03
103.35
98.26
95.57
97.10
103.91
115.69
130.83
147.02
162.15
175.18
186.54
197.80
211.08
228.35
251.01
279.40
312.47
347.31
379.31
402.99
413.78
409.88
393.34
369.54
345.23
325.87
313.69
307.49
304.04
300.56
296.62
294.63
298.41
310.85
331.76
357.32
381.16
396.70
399.46
388.36
365.28
333.82
297.62
259.53
221.72
186.11
154.66
129.18
110.56
98.26
90.44
84.57
78.37
70.44
60.51
49.37
38.50
29.59
23.90
21.73
22.07
22.90
21.89
17.39
9.21
-1.45
-12.62
-22.75
-31.46
-39.83
-49.67
-62.59
-79.24
-99.13
-121.12
-144.10
-167.43
-190.83
-213.95
-235.74
-254.32
-267.35
-272.82
-269.75
-258.64
-241.21
-219.71
-196.15
-171.64
-146.27
-119.11
-88.82
-54.18
-14.85
28.13
72.20
113.60
148.27
172.89
185.77
187.09
178.45
162.18
140.58
115.68
89.33
63.42
39.91
20.41
5.69
-4.75
-12.50
-19.60
-27.64
-37.19
-47.72
-58.24
-68.08
-77.43
-87.34
-99.14
-113.86
-131.75
-152.45
-175.29
-199.68
-225.06
-250.68
-275.28
-297.09
-314.24
-325.33
-329.93
-328.65
-322.53
-312.29
-297.70
-277.53
-250.21
-214.82
-171.98
-123.97
-74.18
-26.10
17.49
54.79
84.61
105.73
116.55
115.29
100.72
73.00
34.27
-11.22
-57.52
-97.87
-125.91
-137.01
-129.47
-104.90
-67.64
-23.26
23.39
69.71
115.98
164.41
217.25
274.34
331.62
381.30
414.21
423.13
405.92
366.58
313.88
258.07
207.32
165.77
133.60
108.69
88.42
70.95
55.61
43.10
35.68
37.27
52.57
85.13
134.85
196.09
258.10
307.90
334.67
333.69
307.68
264.92
215.02
165.12
117.76
71.60
24.09
-25.98
-77.71
-128.98
-178.09
-224.44
-267.02
-302.17
-322.51
-318.90
-285.21
-223.32
-145.21
-70.06
-17.48
-0.09
-19.34
-66.44
-127.68
-190.87
-249.52
-303.08
-354.20
-405.27
-456.43
-506.09
-552.92
-597.48
-642.12
-688.63
-735.47
-776.34
-801.54
-801.58
-771.47
-713.26
-635.52
-550.00
-467.22
-393.45
-329.95
-274.79
-225.38
-180.45
-140.27
-105.74
-77.10
-53.20
-31.87
-10.66
12.10
36.50
60.75
81.68
95.90
101.18
97.80
88.74
78.82
72.84
73.85
82.11
95.54
111.05
126.12
139.69
152.06
164.11
176.41
188.96
201.36
213.31
224.73
235.60
245.54
253.73
259.03
260.59
258.34
253.22
246.77
240.62
235.63
231.48
226.62
218.79
205.86
186.79
162.22
134.48
106.85
82.36
62.75
47.93
36.29
25.67
14.34
1.55
-12.53
-27.41
-42.77
-58.84
-76.21
-95.47
-116.66
-138.89
-160.13
-177.48
-187.83
-188.84
-179.77
-161.78
-137.52
-110.14
-82.16
-54.87
-28.41
-2.27
24.05
50.88
78.55
107.44
137.72
168.82
198.92
225.09
244.21
254.26
255.23
249.10
239.03
227.98
217.67
208.33
199.18
189.25
178.03
165.65
152.63
139.45
126.30
112.97
99.09
84.32
68.54
52.00
35.17
18.59
2.59
-12.69
-27.35
-41.58
-55.51
-69.36
-83.56
-98.82
-115.76
-134.19
-152.48
-167.37
-174.58
-170.32
-152.76
-122.91
-84.44
-42.28
-0.94
36.68
69.63
98.27
123.22
144.57
161.80
174.10
181.00
182.72
180.12
174.39
166.65
157.71
148.05
138.05
128.13
118.76
110.33
102.90
96.12
89.23
81.41
72.12
61.38
49.72
37.99
26.87
16.53
6.57
-3.74
-15.05
-27.47
-40.45
-53.03
-64.25
-73.61
-81.36
-88.45
-96.27
-106.18
-118.89
-133.94
-149.40
-161.96
-167.74
-163.37
-147.18
-119.87
-84.34
-44.78
-5.34
30.87
62.29
88.76
110.91
129.54
145.25
158.31
168.71
176.36
181.16
183.24
183.06
181.40
179.26
177.51
176.60
176.42
176.48
176.19
175.34
174.36
174.14
175.60
179.08
184.01
188.96
192.21
192.50
189.54
184.12
177.64
171.33
165.56
159.71
152.44
142.29
128.16
109.50
86.35
59.35
30.18
1.88
-21.45
-35.80
-39.04
-32.23
-19.68
-7.46
-0.97
-2.99
-13.13
-28.94
-47.75
-68.00
-89.67
-113.54
-140.22
-169.25
-198.92
-226.55
-249.12
-264.07
-270.06
-267.62
-259.15
-248.23
-238.19
-230.93
-226.44
-223.33
-219.98
-215.76
-211.26
-207.57
-205.13
-202.69
-197.32
-185.26
-163.59
-131.86
-92.88
-52.13
-16.03
10.29
24.61
27.95
23.51
14.92
4.62
-6.83
-20.25
-36.60
-55.81
-76.11
-94.36
-106.95
-111.06
-105.57
-91.33
-70.67
-46.45
-20.82
5.43
32.93
62.98
96.46
132.92
170.15
204.54
232.07
249.45
255.03
249.16
233.81
211.81
185.89
158.12
129.83
102.00
75.60
51.75
31.42
15.02
2.07
-8.68
-18.66
-28.91
-39.65
-50.31
-60.04
-68.21
-74.82
-80.57
-86.37
-92.81
-99.67
-105.84
-109.75
-110.10
-106.68
-100.56
-93.92
-89.25
-88.46
-92.30
-99.97
-109.35
-117.30
-120.36
-115.34
-100.12
-74.17
-38.78
3.25
48.31
92.92
134.37
171.13
202.59
228.79
249.87
265.79
276.14
280.25
277.65
268.56
254.23
236.89
219.02
202.53
188.07
174.90
161.60
146.92
130.38
112.23
92.91
72.54
50.83
27.61
3.45
-20.15
-41.19
-58.12
-70.58
-79.56
-86.78
-93.73
-100.92
-107.76
-113.20
-116.47
-117.74
-118.20
-119.56
-123.34
-130.17
-139.30
-148.79
-155.97
-158.29
-154.08
-142.88
-125.39
-103.03
-77.41
-49.92
-21.73
6.05
32.14
55.12
73.67
86.94
94.88
98.26
98.44
96.98
95.23
94.10
93.98
94.80
95.95
96.37
94.41
87.91
74.59
52.84
22.81
-12.89
-49.32
-80.49
-101.23
-108.94
-104.21
-90.19
-71.03
-50.33
-30.41
-12.30
3.57
16.75
26.62
32.71
35.01
34.00
30.22
23.63
13.27
-2.40
-24.51
-52.44
-83.09
-111.05
-130.27
-136.08
-127.30
-106.72
-80.06
-53.70
-32.33
-17.70
-8.88
-3.74
-0.44
1.65
2.14
0.56
-2.79
-6.56
-8.93
-8.52
-5.21
-0.25
4.25
6.44
5.54
2.10
-2.45
-6.76
-10.34
-13.82
-18.52
-25.68
-35.60
-47.42
-59.38
-69.60
-76.90
-81.25
-83.66
-85.56
-88.16
-91.85
-96.29
-100.68
-104.45
-107.66
-110.98
-115.32
-121.37
-129.17
-138.07
-146.78
-153.50
-156.00
-151.88
-138.99
-116.10
-83.49
-43.14
1.72
47.38
90.71
129.64
163.15
190.82
212.29
227.15
235.08
236.35
231.99
223.73
213.72
203.96
196.01
190.77
188.48
188.81
191.10
194.48
198.09
201.20
203.30
204.07
203.37
201.15
197.43
192.22
185.44
176.93
166.45
153.91
139.52
123.89
107.75
91.56
75.16
57.65
37.77
14.52
-12.39
-42.36
-74.16
-106.27
-137.03
-164.52
-186.62
-201.29
-207.28
-205.04
-196.97
-186.77
-178.17
-173.33
-172.05
-172.20
-170.97
-166.52
-158.96
-150.29
-143.30
-140.19
-141.57
-146.40
-152.74
-158.81
-163.77
-167.74
-171.24
-174.45
-176.87
-177.48
-175.44
-170.70
-164.26
-157.79
-152.89
-150.26
-149.32
-148.50
-146.13
-141.56
-135.91
-131.96
-133.15
-142.14
-159.71
-184.57
-214.28
-246.70
-280.99
-317.81
-358.35
-402.91
-449.72
-494.52
-531.32
-554.03
-558.16
-542.22
-508.05
-460.21
-404.63
-346.91
-291.21
-239.92
-194.00
-153.81
-119.64
-91.73
-69.92
-53.26
-39.99
-28.01
-15.58
-1.81
13.22
28.85
44.31
59.24
73.74
88.22
102.95
117.64
131.30
142.41
149.28
150.60
145.81
135.31
120.34
102.62
83.87
65.54
48.47
33.08
19.50
7.92
-1.28
-7.45
-9.94
-8.37
-2.94
5.45
15.41
25.39
34.22
41.43
47.41
53.16
59.92
68.76
80.24
94.63
112.00
132.54
156.71
185.22
219.02
259.53
308.72
368.76
440.77
522.92
608.92
688.10
747.78
777.24
771.53
733.29
671.43
597.37
520.78
446.83
376.07
306.46
235.96
164.04
91.48
19.32
-51.85
-121.26
-186.51
-242.82
-283.97
-304.80
-304.28
-286.75
-260.48
-234.16
-213.01
-197.03
-182.15
-163.60
-139.24
-110.96
-83.15
-59.61
-40.58
-22.01
2.63
38.95
88.40
146.98
206.52
257.76
293.81
312.18
314.52
304.73
286.28
260.81
228.34
188.98
144.96
101.38
65.08
41.97
34.46
39.95
51.95
62.83
66.97
62.73
52.20
39.14
26.47
14.98
3.64
-8.78
-22.11
-34.48
-43.26
-46.59
-44.45
-38.64
-31.63
-25.22
-19.73
-14.09
-6.89
2.69
14.26
26.45
37.60
46.49
52.47
55.10
53.50
46.13
31.60
9.54
-18.39
-48.53
-76.19
-96.98
-107.95
-107.95
-97.40
-77.61
-50.69
-19.68
11.26
37.32
54.23
59.87
55.35
44.89
34.49
29.87
34.57
49.02
70.60
94.68
115.86
129.26
131.34
120.40
96.70
62.23
20.11
-26.28
-74.13
-121.66
-167.92
-212.10
-253.07
-289.05
-318.13
-339.02
-351.96
-359.12
-364.77
-374.56
-394.12
-426.79
-471.56
-522.20
-568.49
-599.68
-608.53
-594.20
-562.02
-520.81
-478.48
-438.69
-400.49
-360.02
-313.48
-259.07
-197.48
-131.56
-66.18
-8.28
33.58
51.35
40.95
5.33
-45.26
-96.39
-134.85
-153.59
-153.35
-140.60
-123.15
-106.33
-91.85
-79.06
-67.19
-56.69
-48.60
-43.03
-38.02
-30.02
-15.37
7.33
36.15
66.58
93.13
111.99
122.60
127.83
132.60
141.67
157.45
179.22
203.93
227.79
248.42
265.96
282.78
302.39
327.82
360.62
400.25
443.98
486.85
522.20
542.63
541.92
516.95
468.89
402.96
326.40
245.78
164.88
84.52
4.45
-73.98
-146.11
-204.63
-242.30
-255.44
-245.89
-220.39
-187.67
-154.92
-125.44
-98.50
-71.47
-42.45
-12.33
14.98
33.71
38.21
24.92
-6.39
-52.27
-106.28
-160.65
-208.61
-246.18
-272.76
-290.05
-300.05
-303.34
-298.67
-284.28
-259.74
-227.14
-190.61
-154.55
-121.52
-91.30
-61.41
-28.79
8.44
50.13
94.19
137.51
176.98
210.27
236.15
254.60
266.59
273.58
276.95
277.28
274.18
266.57
253.51
235.11
212.89
189.43
167.35
148.25
132.26
118.28
104.79
90.73
75.85
60.62
45.72
31.54
18.02
4.75
-8.64
-22.34
-36.26
-50.32
-64.64
-79.44
-94.70
-109.68
-122.57
-130.64
-131.10
-122.07
-103.48
-77.31
-46.92
-15.89
13.17
39.31
63.10
85.90
108.95
132.83
157.28
181.50
204.50
225.40
243.41
257.80
267.80
272.68
271.90
265.38
253.62
237.72
219.21
199.83
181.18
164.45
150.20
138.28
127.89
117.82
106.86
94.17
79.51
63.31
46.41
29.78
14.18
-0.04
-12.98
-25.09
-37.01
-49.37
-62.55
-76.37
-89.75
-100.55
-105.84
-102.82
-90.23
-69.44
-44.84
-22.84
-9.80
-9.63
-22.34
-44.11
-68.83
-90.40
-104.67
-110.13
-107.47
-98.51
-85.22
-69.24
-51.89
-34.31
-17.45
-1.85
12.48
26.00
39.20
52.21
64.50
74.98
82.46
86.07
85.58
81.34
74.10
64.69
53.82
42.06
29.83
17.43
5.06
-7.16
-19.19
-31.02
-42.49
-53.36
-63.25
-71.97
-79.57
-86.37
-92.58
-97.80
-100.72
-99.18
-90.92
-74.46
-49.87
-18.77
16.22
52.49
88.11
121.80
152.27
177.51
194.71
200.92
194.40
175.60
147.29
113.72
79.05
46.21
16.53
-9.69
-32.25
-50.36
-62.78
-68.60
-68.07
-63.05
-56.54
-51.75
-50.90
-54.61
-61.82
-70.43
-78.13
-83.10
-84.48
-82.22
-76.94
-69.65
-61.79
-55.04
-51.25
-51.93
-57.70
-67.99
-81.15
-95.11
-108.06
-118.86
-126.89
-131.57
-131.99
-126.99
-115.75
-98.46
-76.53
-52.21
-27.76
-4.57
17.07
37.75
58.17
78.51
98.13
115.75
129.94
139.75
145.02
146.44
145.24
142.75
140.00
137.52
135.55
134.19
133.74
134.71
137.64
142.86
150.26
159.16
168.49
177.03
183.77
188.26
190.69
191.91
193.05
195.24
199.34
205.82
214.85
226.25
239.40
253.00
265.19
273.75
276.80
273.43
264.05
250.19
233.84
216.81
200.21
184.30
168.74
152.89
135.99
117.51
97.44
76.55
56.37
38.69
24.74
14.45
6.27
-2.21
-13.19
-27.69
-45.28
-64.52
-83.89
-102.38
-119.60
-135.48
-149.79
-162.10
-172.15
-180.28
-187.53
-195.22
-204.15
-213.86
-222.59
-227.84
-227.42
-220.40
-207.42
-190.41
-171.83
-154.04
-138.91
-127.89
-122.22
-123.07
-131.23
-146.54
-167.31
-189.87
-209.06
-219.14
-215.60
-196.64
-164.07
-122.94
-80.01
-41.71
-12.31
6.79
16.69
19.43
16.59
8.37
-6.00
-26.73
-51.68
-75.43
-90.30
-89.02
-68.23
-30.72
15.10
58.50
91.06
110.15
118.97
123.55
128.54
134.44
138.06
135.70
126.46
113.43
101.68
94.24
89.18
79.78
58.04
19.53
-33.20
-90.96
-141.52
-174.67
-185.95
-177.69
-157.21
-133.72
-115.50
-108.20
-114.71
-135.40
-168.49
-210.29
-255.53
-297.92
-331.05
-349.45
-349.64
-330.83
-295.12
-247.17
-192.91
-137.79
-85.08
-35.16
13.89
64.54
117.85
172.26
223.81
267.55
299.41
317.55
322.76
317.67
305.76
290.07
272.51
253.60
232.70
208.69
180.71
148.79
114.06
78.35
43.30
9.70
-22.72
-54.74
-86.80
-118.38
-147.97
-173.85
-194.91
-211.44
-225.22
-238.80
-254.80
-275.46
-302.48
-336.84
-378.19
-423.92
-468.54
-504.36
-523.51
-520.67
-495.18
-451.23
-395.91
-336.29
-277.03
-219.86
-165.07
-113.51
-67.88
-32.28
-10.56
-4.48
-12.88
-32.39
-58.80
-88.52
-119.19
-149.40
-177.73
-201.99
-219.23
-226.58
-222.46
-207.64
-185.39
-160.65
-138.57
-122.90
-115.11
-114.32
-118.20
-124.11
-130.13
-135.34
-139.63
-143.05
-145.31
-145.46
-142.13
-133.97
-120.14
-100.75
-76.86
-50.16
-22.46
4.91
31.55
57.90
84.94
113.57
144.07
175.91
207.80
238.25
266.10
290.96
313.43
334.99
357.82
384.28
416.16
453.58
493.92
531.47
558.19
565.76
548.09
503.50
435.56
352.11
263.07
177.93
103.90
45.12
2.87
-23.87
-37.73
-42.58
-43.08
-43.88
-48.78
-59.70
-76.27
-96.01
-115.40
-131.22
-141.80
-147.63
-151.03
-155.12
-162.61
-174.86
-191.57
-210.80
-229.37
-243.45
-249.37
-244.68
-228.84
-203.34
-170.83
-133.71
-92.93
-47.79
3.08
60.05
121.19
182.12
237.30
282.17
314.91
337.01
352.38
365.38
379.06
393.99
408.40
419.12
423.06
418.33
404.80
383.75
356.97
325.92
291.42
253.85
213.81
172.61
132.26
94.76
61.28
31.42
3.10
-26.79
-61.42
-103.03
-152.15
-207.18
-264.31
-317.79
-360.93
-387.90
-396.19
-388.35
-371.84
-356.35
-349.37
-352.51
-360.32
-362.82
-350.33
-317.96
-267.34
-205.03
-138.93
-75.09
-16.57
35.96
83.11
126.36
168.47
213.32
264.46
322.47
382.96
436.66
472.30
481.07
460.37
415.31
357.19
299.69
254.53
228.44
222.16
231.47
249.32
267.99
280.74
282.47
269.77
241.12
197.04
140.50
76.90
13.12
-44.36
-91.49
-127.84
-156.49
-182.54
-211.31
-246.65
-289.97
-339.62
-390.91
-436.77
-469.55
-483.35
-476.04
-450.19
-412.05
-369.07
-327.25
-289.47
-255.66
-224.30
-194.16
-165.23
-138.43
-114.53
-93.16
-72.64
-50.52
-24.40
7.47
45.80
89.99
137.90
185.76
228.74
262.01
282.32
289.09
284.46
272.27
256.33
239.08
221.17
202.07
181.02
157.84
132.88
106.74
80.01
53.33
27.66
4.17
-16.32
-34.27
-51.80
-72.59
-100.65
-138.64
-186.32
-239.69
-291.59
-333.48
-357.81
-360.26
-340.71
-302.80
-252.02
-193.70
-131.56
-67.67
-3.48
58.95
116.56
165.82
204.14
230.75
246.69
253.94
254.22
248.48
237.15
220.90
201.22
180.33
160.42
142.65
126.83
111.70
95.98
79.46
63.48
50.56
43.30
43.12
49.31
59.25
69.31
76.05
77.47
73.31
64.67
53.13
39.74
24.35
5.57
-18.60
-49.76
-87.99
-131.34
-175.77
-216.04
-246.94
-264.71
-267.89
-257.48
-236.32
-208.08
-176.25
-143.55
-111.71
-81.57
-53.13
-25.81
1.21
28.50
55.94
82.42
106.07
124.85
137.24
142.84
142.45
137.67
130.29
121.76
112.90
103.96
94.71
84.66
73.24
59.99
44.82
28.22
11.22
-4.89
-19.19
-31.40
-42.10
-52.42
-63.43
-75.71
-89.12
-102.94
-116.34
-128.75
-140.17
-151.17
-162.66
-175.58
-190.52
-207.32
-224.65
-239.99
-249.86
-250.77
-240.27
-217.95
-185.65
-146.91
-105.71
-65.31
-27.59
6.92
38.39
66.98
92.38
113.82
130.49
141.93
148.35
150.57
149.83
147.37
144.20
140.83
137.35
133.56
129.20
124.17
118.55
112.59
106.52
100.46
94.34
87.93
80.84
72.62
62.85
51.30
38.05
23.55
8.46
-6.47
-20.70
-34.02
-46.64
-59.07
-72.07
-86.42
-102.66
-120.66
-139.21
-155.98
-167.85
-171.80
-165.90
-150.09
-126.17
-97.07
-65.87
-34.80
-4.95
23.48
50.59
76.21
99.72
120.16
136.63
148.49
155.59
158.19
156.97
152.87
146.92
140.12
133.23
126.65
120.48
114.52
108.43
101.86
94.53
86.33
77.30
67.71
57.85
47.96
38.10
28.14
17.85
7.06
-4.15
-15.55
-26.80
-37.68
-48.27
-58.97
-70.45
-83.41
-98.34
-115.04
-132.35
-148.11
-159.43
-163.44
-158.10
-142.88
-118.89
-88.48
-54.53
-19.64
14.26
46.02
75.07
101.25
124.66
145.60
164.52
181.92
198.19
213.46
227.61
240.28
250.98
259.14
264.23
265.81
263.57
257.27
246.75
231.91
212.87
190.10
164.57
137.69
111.09
86.21
64.16
45.59
30.87
20.17
13.48
10.35
9.77
10.11
9.43
5.98
-1.30
-12.60
-27.24
-43.79
-60.27
-74.31
-83.50
-85.91
-80.74
-68.78
-52.34
-34.66
-18.89
-7.15
-0.12
2.92
3.38
2.62
1.41
-0.30
-3.21
-8.22
-15.94
-26.42
-38.96
-52.40
-65.37
-76.81
-86.21
-93.62
-99.50
-104.31
-108.34
-111.61
-114.06
-115.80
-117.32
-119.39
-122.85
-128.13
-135.06
-142.81
-150.21
-156.35
-160.98
-164.62
-168.17
-172.33
-177.16
-182.04
-186.06
-188.62
-189.83
-190.24
-190.18
-189.03
-185.14
-176.43
-161.52
-140.66
-115.79
-89.76
-64.90
-42.02
-20.29
1.79
25.19
49.36
72.27
91.28
104.50
111.58
113.77
113.12
111.51
109.79
107.76
104.55
99.52
92.77
85.19
78.01
72.11
67.53
63.41
58.50
51.88
43.53
34.35
25.70
18.65
13.37
8.95
3.90
-3.10
-12.38
-23.15
-33.84
-42.97
-50.03
-55.81
-62.02
-70.27
-80.95
-92.77
-103.14
-109.16
-108.86
-101.85
-89.22
-72.71
-53.76
-33.12
-10.92
12.66
36.82
59.92
79.89
95.01
104.50
108.80
109.23
107.35
104.27
100.33
95.23
88.62
80.61
71.93
63.76
57.03
51.87
47.46
42.45
35.75
27.18
17.61
8.49
1.09
-4.29
-8.50
-13.01
-19.10
-27.17
-36.49
-45.69
-53.54
-59.64
-64.71
-70.18
-77.39
-86.86
-98.05
-109.49
-119.42
-126.40
-129.49
-128.25
-122.24
-110.88
-93.56
-70.14
-41.45
-9.58
22.51
51.74
75.99
94.58
108.24
118.38
126.14
131.80
134.74
134.08
129.52
121.87
112.83
104.33
97.60
92.62
88.25
82.92
75.64
66.53
56.75
47.85
40.91
35.92
31.87
27.32
21.39
14.17
6.67
0.21
-4.44
-7.44
-9.83
-12.86
-17.16
-22.49
-27.98
-32.82
-36.84
-40.62
-44.86
-49.52
-53.09
-52.79
-45.56
-29.29
-3.78
29.05
65.87
103.18
138.43
170.71
200.49
228.88
256.63
283.33
307.11
325.04
334.01
331.95
318.63
295.90
267.10
235.94
205.37
176.81
150.37
125.43
101.59
79.03
58.52
40.84
26.14
13.50
1.22
-12.64
-29.64
-50.60
-75.48
-103.47
-132.90
-161.28
-185.60
-202.95
-211.49
-211.29
-204.54
-194.91
-186.28
-181.09
-179.38
-178.54
-174.21
-161.70
-137.75
-101.69
-55.82
-4.79
45.76
90.80
127.08
153.42
170.01
177.47
176.29
167.03
150.88
130.14
107.77
86.32
66.77
48.14
28.11
4.40
-23.91
-56.03
-90.14
-124.58
-158.82
-193.30
-228.61
-264.08
-297.06
-323.07
-337.13
-335.39
-316.82
-284.24
-244.02
-204.72
-174.43
-158.19
-156.62
-166.36
-182.46
-201.20
-221.99
-246.81
-277.79
-314.16
-350.66
-378.65
-389.45
-377.85
-344.13
-293.39
-232.97
-169.79
-108.89
-53.54
-6.19
30.91
55.81
67.75
67.94
59.56
46.96
34.40
25.09
20.82
22.39
30.19
44.85
67.40
98.82
139.37
187.81
241.23
295.53
346.52
391.15
428.02
457.38
480.36
498.26
512.02
522.20
528.94
532.22
531.85
527.58
519.19
506.72
490.38
470.43
446.71
418.48
384.43
343.25
294.28
238.20
177.12
114.08
52.10
-6.78
-62.21
-115.43
-168.70
-224.16
-282.94
-344.61
-407.34
-468.69
-526.34
-578.63
-624.81
-664.88
-699.41
-729.61
-757.43
-785.15
-814.27
-843.93
-869.84
-884.54
-879.63
-849.05
-791.94
-713.58
-623.72
-533.22
-450.66
-380.59
-323.73
-278.76
-244.05
-218.48
-201.15
-190.59
-184.47
-179.95
-174.62
-167.20
-157.71
-147.21
-136.98
-127.79
-119.53
-111.39
-102.30
-91.51
-79.00
-65.46
-52.09
-40.00
-29.90
-21.87
-15.53
-10.24
-5.48
-0.93
3.46
7.62
11.49
15.16
18.83
22.83
27.54
33.44
41.09
51.10
63.91
79.60
97.64
116.87
135.63
152.22
165.36
174.60
180.31
183.39
184.74
184.74
183.02
178.78
171.34
160.66
147.73
134.39
122.93
115.53
113.93
119.06
130.63
146.52
162.57
173.27
173.51
160.87
137.24
108.59
82.84
66.66
62.88
69.86
83.11
97.97
111.77
124.47
137.50
152.05
167.83
183.13
195.86
204.83
210.44
214.53
219.51
227.45
239.46
255.56
274.86
295.80
316.41
334.54
348.28
356.53
359.52
358.77
356.43
354.16
351.95
347.73
337.86
318.56
287.56
245.21
194.75
141.54
91.92
51.79
25.39
14.46
17.67
30.87
47.88
62.21
68.76
65.01
51.11
28.89
0.59
-32.00
-67.35
-103.34
-136.59
-162.57
-176.97
-177.30
-163.96
-139.95
-109.54
-76.64
-43.81
-12.32
17.18
43.93
66.95
85.50
99.52
109.89
118.11
125.48
132.54
138.63
142.32
142.06
137.13
128.22
117.63
108.74
104.99
108.80
120.69
138.88
159.67
178.21
189.64
190.06
177.50
152.38
117.58
77.88
39.23
7.74
-11.26
-14.13
0.08
29.04
66.93
105.51
136.16
152.50
152.65
139.84
121.16
104.72
96.57
98.67
108.53
120.66
128.69
127.45
114.18
88.91
53.77
12.04
-33.02
-79.07
-124.95
-170.59
-216.67
-264.13
-313.50
-364.05
-412.71
-453.77
-479.76
-483.94
-463.42
-421.59
-368.12
-315.91
-276.35
-254.84
-249.22
-251.66
-253.08
-247.45
-233.87
-215.58
-197.03
-180.94
-167.13
-153.28
-136.81
-116.46
-92.83
-67.60
-42.20
-17.03
8.53
35.40
63.87
93.15
121.55
146.96
167.68
182.82
192.40
197.14
197.98
195.84
191.46
185.38
178.06
169.91
161.17
151.92
142.07
131.53
120.34
108.77
97.28
86.36
76.41
67.51
59.48
51.79
43.70
34.39
23.15
9.73
-5.58
-21.96
-38.49
-54.61
-70.48
-86.89
-104.74
-124.18
-143.96
-161.40
-173.01
-175.61
-167.39
-148.61
-121.42
-89.15
-55.42
-23.16
5.63
29.93
49.25
63.19
71.33
73.39
69.60
61.04
49.64
37.96
28.76
24.63
27.63
38.80
57.65
81.83
107.32
129.22
143.16
146.60
139.46
123.71
101.97
76.22
47.13
14.50
-21.47
-59.06
-94.74
-123.92
-142.50
-148.38
-142.34
-127.82
-109.92
-93.78
-83.03
-78.74
-79.33
-81.32
-80.82
-75.06
-63.45
-47.53
-30.17
-14.17
-1.29
8.08
14.61
19.31
23.16
27.02
31.82
38.69
48.68
62.26
78.84
96.67
113.27
126.17
133.70
135.38
131.95
124.98
116.30
107.43
99.28
92.05
85.41
78.81
71.60
63.31
53.58
42.38
30.08
17.56
6.16
-2.70
-8.06
-9.91
-9.31
-8.00
-7.72
-9.40
-12.64
-15.56
-15.18
-7.94
9.32
38.35
78.30
125.15
172.05
210.93
234.91
240.46
228.47
203.48
171.41
137.13
102.92
68.44
32.07
-7.46
-50.09
-94.38
-138.05
-178.85
-214.89
-244.58
-266.70
-280.45
-285.98
-284.59
-278.48
-269.73
-259.18
-245.94
-228.00
-203.93
-174.42
-142.82
-114.25
-93.48
-83.05
-82.40
-88.59
-98.02
-108.00
-117.39
-126.16
-134.52
-142.29
-148.93
-153.88
-156.74
-157.15
-154.50
-147.72
-135.61
-117.40
-93.28
-64.58
-33.43
-2.22
27.02
52.98
75.13
93.65
109.18
122.59
134.56
145.25
154.18
160.41
162.96
161.39
156.09
148.18
139.08
130.01
121.62
114.05
107.13
100.72
94.85
89.70
85.37
81.70
78.15
74.00
68.61
61.68
53.38
44.29
35.13
26.49
18.61
11.44
4.72
-1.93
-8.96
-16.95
-26.57
-38.26
-51.83
-66.01
-78.47
-86.37
-87.30
-80.15
-65.56
-45.71
-23.43
-1.31
19.03
37.05
52.91
66.93
79.10
88.94
95.72
98.89
98.52
95.45
91.15
87.39
85.68
86.92
91.17
97.57
104.50
109.89
111.71
108.44
99.49
85.41
67.71
48.49
29.80
13.16
-0.72
-11.86
-20.65
-27.74
-33.89
-39.81
-45.90
-52.24
-58.55
-64.39
-69.56
-74.19
-78.82
-84.09
-90.01
-95.03
-96.07
-89.02
-70.24
-38.56
3.90
51.39
95.74
128.76
145.08
142.66
122.52
87.87
42.92
-5.83
-50.22
-81.73
-93.38
-80.73
-44.85
7.54
66.08
118.78
158.04
181.14
189.03
184.87
174.17
161.55
149.90
140.32
130.76
121.69
115.10
113.46
119.33
136.91
168.25
211.85
262.28
308.85
344.11
364.43
369.86
346.06
286.68
194.38
81.64
-17.83
-96.56
-157.61
-207.16
-255.47
-307.15
-360.27
-409.58
-447.99
-469.15
-472.19
-456.95
-425.91
-384.15
-336.96
-286.89
-235.36
-183.78
-134.80
-94.22
-64.75
-46.02
-35.23
-27.95
-19.15
-6.00
11.53
31.17
48.30
60.53
67.41
69.54
68.25
65.14
61.34
57.40
53.40
48.74
44.09
41.05
41.36
46.15
55.02
65.52
73.70
75.52
68.33
52.52
31.26
9.05
-10.21
-24.77
-35.50
-45.35
-58.36
-78.26
-107.07
-143.79
-183.83
-219.64
-242.78
-246.95
-230.46
-197.02
-154.21
-110.44
-71.95
-41.46
-18.66
-1.90
10.28
18.55
23.14
24.44
23.23
20.30
16.07
10.60
4.06
-3.01
-9.48
-13.95
-15.37
-13.43
-8.69
-2.22
4.96
12.38
20.27
29.50
41.12
55.84
73.58
93.39
113.71
132.92
150.01
165.14
179.97
197.37
220.55
251.62
290.33
333.36
374.99
408.83
430.09
437.19
432.04
418.76
401.90
384.68
368.52
353.40
338.77
324.16
309.22
293.41
275.80
255.27
231.02
203.09
172.45
140.64
109.07
78.42
48.44
18.30
-12.82
-45.16
-78.15
-110.66
-141.66
-170.69
-198.05
-224.60
-251.12
-277.79
-304.05
-328.79
-350.92
-370.14
-387.03
-403.16
-420.76
-442.51
-470.97
-507.67
-551.76
-599.15
-642.82
-674.44
-687.08
-677.93
-649.30
-607.54
-560.34
-513.74
-470.66
-431.64
-395.93
-363.00
-332.98
-306.06
-281.55
-257.46
-231.09
-200.24
-165.40
-128.89
-94.23
-64.55
-41.24
-23.50
-8.62
6.96
26.51
50.35
76.97
103.44
126.26
142.19
148.88
145.19
131.51
109.86
81.51
48.71
14.20
-19.30
-49.88
-76.95
-101.47
-125.02
-134.85
-120.95
-77.02
-4.31
87.87
185.82
277.08
353.63
412.78
455.81
483.84
498.40
500.58
492.55
476.86
456.85
435.88
416.99
402.31
390.99
381.00
369.89
355.74
337.52
316.91
295.78
276.02
259.01
244.36
230.94
217.28
202.19
185.13
166.44
146.89
127.57
109.53
92.99
77.63
62.70
47.37
30.98
13.47
-4.88
-23.35
-41.07
-57.73
-73.48
-88.91
-104.71
-121.24
-138.37
-155.95
-174.23
-194.02
-216.16
-240.23
-263.63
-281.55
-288.57
-280.96
-258.55
-224.90
-185.75
-146.62
-111.07
-80.54
-55.50
-36.77
-25.84
-23.79
-29.70
-39.93
-49.02
-52.15
-47.44
-37.02
-25.85
-19.33
-20.52
-28.90
-41.08
-52.99
-62.32
-69.79
-78.47
-91.65
-110.56
-133.26
-155.52
-172.93
-183.32
-187.76
-189.82
-193.49
-201.16
-212.66
-225.68
-236.94
-243.41
-242.64
-232.76
-212.31
-180.42
-137.11
-83.58
-22.21
43.68
110.04
172.38
226.20
267.78
295.02
307.83
307.69
296.53
275.48
244.64
204.23
156.26
105.49
58.69
22.21
-0.88
-12.23
-17.44
-23.28
-34.44
-51.42
-70.77
-87.11
-96.11
-96.75
-91.63
-85.63
-83.69
-88.85
-101.79
-121.58
-146.93
-176.90
-210.50
-245.63
-278.58
-304.78
-320.76
-326.06
-323.78
-319.02
-316.20
-316.64
-317.94
-315.61
-305.60
-286.41
-259.64
-228.71
-197.02
-166.62
-137.90
-110.44
-83.89
-58.53
-35.08
-14.28
3.67
19.16
32.80
44.95
55.44
63.51
68.10
68.37
64.08
55.84
45.01
33.35
22.52
13.74
7.59
4.02
2.59
2.76
4.15
6.67
10.44
15.63
22.27
29.97
37.90
44.86
49.59
51.14
49.18
44.24
37.53
30.61
24.87
21.13
19.49
19.56
20.97
23.83
29.00
37.96
52.39
73.52
101.84
136.80
176.76
218.97
259.76
295.01
320.90
335.01
337.21
329.91
317.20
303.36
291.14
280.90
271.09
259.74
246.35
232.54
221.43
216.04
217.38
223.53
230.02
231.80
225.01
208.09
181.73
148.18
110.55
71.98
35.25
2.28
-25.74
-48.75
-67.97
-85.89
-105.65
-129.64
-158.95
-192.95
-229.66
-265.17
-294.69
-313.67
-319.16
-310.30
-287.26
-251.81
-206.78
-156.56
-103.36
-46.97
15.05
85.01
163.26
249.12
338.05
422.45
490.91
536.69
558.66
561.05
549.41
528.58
505.23
483.88
466.84
449.93
432.23
415.16
402.13
394.49
391.73
396.82
411.54
435.72
460.77
482.15
498.59
512.41
524.71
505.91
436.51
311.41
182.47
72.96
-7.38
-69.44
-117.89
-157.77
-194.48
-228.23
-258.52
-284.78
-313.40
-346.44
-383.19
-420.36
-456.70
-492.14
-523.39
-547.90
-564.99
-581.32
-600.83
-623.67
-644.25
-654.45
-645.30
-608.19
-540.71
-448.30
-345.47
-245.61
-157.17
-81.60
-16.76
40.14
91.39
137.32
178.00
213.79
248.61
287.80
334.73
387.08
437.15
475.05
492.89
487.99
463.17
425.56
383.22
341.84
303.10
265.47
226.06
182.77
135.43
85.93
37.49
-6.41
-43.11
-71.39
-91.56
-104.91
-112.72
-115.73
-114.23
-109.01
-102.38
-98.49
-102.38
-118.03
-146.51
-185.22
-228.82
-271.29
-308.21
-338.05
-362.19
-383.97
-407.25
-435.10
-468.28
-504.31
-537.24
-558.49
-559.38
-533.96
-480.98
-403.98
-309.66
-205.61
-98.70
5.17
100.72
183.13
248.68
295.75
325.12
339.21
340.39
329.50
305.81
268.25
217.06
154.46
84.08
9.42
-67.69
-147.13
-229.08
-311.78
-390.07
-455.65
-499.23
-513.73
-497.07
-452.98
-389.47
-315.71
-238.97
-162.97
-88.19
-13.73
60.54
132.78
199.45
256.56
300.84
330.37
344.20
341.76
322.57
286.13
232.30
161.80
76.84
-18.29
-116.79
-209.63
-286.79
-339.50
-362.61
-356.21
-325.21
-277.29
-220.09
-159.28
-98.31
-39.58
14.20
60.12
96.34
123.41
144.29
162.34
178.50
189.39
188.12
167.69
125.06
63.69
-7.15
-75.97
-133.24
-174.05
-198.01
-207.11
-203.20
-186.75
-157.58
-116.82
-68.43
-19.04
23.96
55.43
74.66
85.65
95.11
109.19
130.51
157.15
183.53
203.20
211.61
207.75
193.88
173.97
151.72
129.74
109.72
93.26
82.09
77.15
77.05
77.18
70.47
49.92
12.04
-40.73
-99.85
-153.32
-189.98
-203.77
-195.83
-173.49
-147.02
-125.44
-113.70
-112.07
-117.61
-126.43
-135.35
-142.18
-145.12
-141.97
-130.15
-107.64
-74.21
-31.87
15.44
63.11
107.04
144.54
174.45
196.93
212.88
223.37
229.11
230.11
225.91
216.09
201.19
183.17
165.01
149.67
138.70
131.51
125.75
118.58
108.23
94.90
80.48
67.40
57.17
49.55
42.72
34.34
22.86
8.39
-7.39
-22.16
-34.20
-43.34
-50.95
-59.20
-69.88
-83.58
-99.50
-115.95
-131.12
-143.64
-152.61
-157.24
-156.45
-148.89
-133.41
-109.79
-79.31
-44.75
-9.72
22.41
49.59
71.45
88.98
103.67
116.41
126.97
134.22
136.95
134.88
129.14
122.01
115.86
112.05
110.32
108.99
105.97
99.95
91.08
80.92
71.45
64.08
58.77
54.15
48.26
39.82
28.99
17.46
7.59
0.83
-3.33
-7.59
-15.81
-31.19
-54.69
-84.74
-118.16
-151.80
-183.85
-213.66
-240.64
-262.98
-277.26
-279.53
-267.19
-240.57
-202.96
-159.31
-114.09
-69.82
-26.85
15.58
57.90
99.32
137.76
170.63
195.77
212.23
220.56
222.65
221.31
219.57
220.04
224.37
232.96
245.04
258.93
272.37
282.73
287.30
283.44
269.10
243.36
206.91
162.19
112.89
63.25
17.03
-23.23
-56.46
-82.94
-103.74
-120.13
-133.10
-143.22
-151.03
-157.44
-164.23
-173.72
-187.90
-207.18
-229.51
-250.76
-265.98
-271.46
-266.02
-251.22
-230.14
-205.67
-179.35
-151.39
-121.79
-91.47
-62.77
-38.75
-21.86
-12.70
-9.65
-9.48
-8.65
-4.70
3.10
13.75
25.40
36.42
46.13
54.94
63.57
72.10
79.32
82.97
80.93
72.58
59.61
45.51
34.01
27.19
24.34
22.30
17.13
6.15
-10.63
-30.61
-49.90
-65.26
-75.55
-81.92
-86.80
-92.22
-98.46
-103.70
-105.01
-99.92
-87.75
-70.04
-49.64
-29.23
-9.90
9.13
29.82
53.78
80.93
109.13
134.95
155.18
168.21
174.55
176.34
176.07
175.56
175.28
174.79
173.36
170.67
166.92
162.46
157.16
150.13
140.12
126.25
109.02
90.61
74.38
63.49
59.43
61.10
65.15
67.45
64.95
57.11
45.79
34.02
24.08
16.18
8.41
-2.11
-17.43
-37.59
-60.42
-82.59
-101.04
-114.14
-121.74
-124.50
-122.65
-115.35
-101.01
-78.24
-47.30
-10.77
26.80
60.41
86.41
103.87
114.57
121.75
128.20
134.68
139.65
140.30
134.35
121.66
104.51
86.77
72.01
61.91
55.67
50.76
44.55
35.86
25.52
15.76
8.70
4.92
3.02
0.32
-5.63
-15.60
-28.20
-40.65
-50.31
-56.19
-59.44
-62.62
-68.15
-76.86
-87.64
-98.16
-106.37
-111.76
-115.50
-119.56
-125.16
-131.61
-136.22
-135.35
-126.20
-108.15
-83.18
-55.02
-27.47
-2.89
18.44
37.73
56.33
74.28
89.88
100.41
103.78
100.02
91.67
82.89
77.43
76.84
79.77
82.96
83.04
78.47
70.32
61.54
55.17
52.62
52.97
53.54
51.55
45.66
36.76
27.25
19.56
14.52
10.80
5.53
-3.94
-18.40
-36.07
-53.37
-66.82
-74.92
-79.03
-82.62
-89.27
-100.53
-114.82
-128.04
-135.55
-134.44
-124.85
-109.62
-92.56
-76.34
-61.30
-45.70
-27.36
-5.53
18.13
40.06
56.51
65.51
67.88
66.76
65.88
67.49
71.18
74.33
73.73
67.68
57.10
45.29
36.19
32.36
33.58
37.09
39.21
37.33
31.40
23.75
17.58
14.91
15.19
15.53
12.33
3.46
-10.39
-25.91
-38.98
-46.94
-50.15
-51.65
-55.44
-64.10
-77.38
-92.34
-105.00
-112.53
-114.58
-113.09
-110.72
-108.92
-106.83
-101.63
-90.30
-71.56
-47.10
-21.12
1.53
17.62
27.03
32.56
38.16
46.54
57.62
68.54
75.36
75.47
69.17
59.66
51.38
47.61
48.85
52.73
55.54
54.50
49.35
42.44
37.27
36.29
39.34
43.46
44.49
39.36
27.87
12.87
-1.20
-10.83
-15.45
-17.71
-22.03
-31.93
-47.92
-67.04
-84.39
-95.84
-100.32
-100.34
-100.46
-104.56
-113.43
-124.11
-131.40
-130.65
-120.33
-102.87
-83.32
-66.61
-54.90
-46.70
-38.03
-25.09
-6.82
14.30
33.40
45.88
49.96
47.58
43.31
41.71
44.94
51.66
58.09
60.41
57.11
49.96
42.99
40.07
42.57
48.46
53.34
52.91
45.39
32.53
18.59
7.89
2.37
0.59
-1.38
-7.54
-19.57
-35.75
-51.90
-63.61
-68.73
-68.35
-66.09
-65.90
-69.83
-77.00
-84.32
-88.49
-88.11
-84.53
-80.95
-80.28
-83.17
-87.16
-87.85
-81.26
-66.09
-44.58
-21.55
-1.86
12.01
21.07
28.85
39.06
53.14
69.31
83.41
91.37
91.53
85.65
78.05
73.26
73.63
78.23
83.56
85.60
82.13
73.92
64.14
56.41
52.60
51.63
50.06
44.13
32.03
15.08
-2.79
-17.27
-25.99
-29.80
-32.13
-36.92
-46.20
-58.86
-71.34
-79.58
-81.46
-78.06
-73.18
-71.43
-75.81
-86.20
-99.43
-110.99
-117.27
-117.24
-112.56
-106.19
-100.28
-94.74
-87.17
-74.45
-54.90
-29.69
-2.63
21.52
39.46
50.85
58.22
65.27
74.56
86.00
97.01
104.10
105.09
100.56
93.70
88.59
87.87
91.17
95.30
95.89
89.96
77.53
61.69
46.79
36.00
29.56
24.87
18.23
7.23
-7.64
-23.23
-35.50
-41.96
-43.05
-41.95
-42.72
-47.94
-57.36
-68.03
-76.06
-79.00
-77.37
-74.52
-74.90
-81.60
-94.47
-109.92
-122.60
-127.91
-124.19
-113.20
-98.78
-84.48
-71.55
-58.43
-42.09
-20.25
6.66
35.25
60.65
78.89
88.91
92.90
94.99
98.86
105.72
113.80
119.41
119.32
112.61
101.37
89.58
80.89
76.57
74.83
71.94
64.44
51.24
34.35
17.80
5.45
-1.12
-3.29
-4.44
-7.87
-14.90
-24.23
-32.81
-37.81
-38.30
-35.93
-34.01
-35.71
-42.30
-52.62
-63.83
-73.26
-80.09
-85.79
-93.18
-104.43
-119.27
-134.46
-144.96
-146.19
-136.14
-116.25
-90.46
-63.20
-37.27
-12.97
11.32
37.30
65.01
92.08
114.56
128.82
133.46
130.18
122.89
115.74
110.99
108.06
104.23
96.64
84.33
69.07
54.53
44.25
39.57
38.84
38.39
34.67
26.33
15.06
4.59
-1.42
-1.62
2.19
5.89
5.24
-1.88
-14.38
-28.61
-40.54
-47.92
-51.63
-55.00
-61.92
-74.52
-91.94
-110.77
-126.86
-137.44
-142.28
-143.30
-142.79
-141.67
-138.48
-130.08
-113.43
-87.52
-54.37
-18.39
15.39
43.48
64.99
81.49
95.37
108.01
118.70
125.09
124.66
116.73
103.41
88.98
78.02
73.06
73.41
75.60
75.38
70.08
60.08
48.51
39.42
35.59
37.00
41.06
44.19
43.83
39.71
33.67
28.18
24.57
22.01
17.87
9.38
-4.67
-22.87
-41.75
-57.56
-68.29
-74.80
-80.32
-88.58
-101.65
-118.60
-135.76
-148.42
-152.92
-148.17
-135.72
-118.60
-99.58
-79.90
-59.14
-36.13
-10.27
17.51
44.67
68.06
85.18
95.38
99.97
101.54
102.60
104.39
106.45
107.17
104.91
99.18
91.06
82.72
76.21
72.39
70.47
68.50
64.63
58.24
50.40
43.24
38.66
37.11
37.20
36.43
32.50
24.65
14.04
2.98
-6.41
-13.42
-19.11
-25.38
-33.72
-44.04
-54.67
-63.36
-68.71
-71.25
-73.28
-77.61
-85.84
-97.10
-108.09
-114.38
-112.40
-101.02
-81.94
-58.74
-35.08
-13.08
7.18
27.00
47.45
68.18
87.07
101.21
108.50
108.93
104.75
99.46
96.03
95.66
97.49
99.55
99.98
97.87
93.14
85.88
75.49
60.75
40.37
14.12
-16.44
-47.93
-75.98
-96.55
-107.12
-107.46
-99.67
-87.52
-75.16
-65.71
-60.20
-57.30
-54.22
-48.33
-38.80
-27.25
-17.12
-12.04
-14.22
-23.70
-38.94
-58.06
-80.05
-104.73
-131.93
-160.19
-186.25
-205.67
-214.52
-211.10
-196.58
-174.36
-148.32
-121.16
-93.62
-65.13
-35.02
-3.95
25.86
51.35
70.18
81.98
88.63
93.35
99.04
106.78
115.46
122.48
125.28
122.77
115.89
107.07
98.93
92.88
88.55
84.13
77.58
67.84
55.55
42.70
31.51
23.12
16.82
10.40
1.36
-11.70
-28.29
-46.38
-63.63
-78.78
-92.13
-105.04
-118.60
-132.37
-144.20
-150.98
-150.25
-141.39
-126.00
-107.09
-87.73
-69.68
-52.81
-35.58
-16.17
6.17
30.43
54.02
73.87
87.82
95.55
98.63
99.51
100.10
100.84
100.61
97.75
91.43
82.41
72.91
65.42
61.33
60.23
60.17
58.77
54.67
48.24
41.37
36.44
34.97
36.73
39.87
41.77
40.41
35.38
27.94
20.26
14.13
9.92
6.31
1.04
-7.93
-21.31
-38.14
-56.37
-73.99
-89.92
-104.21
-117.43
-129.51
-138.93
-142.85
-138.17
-123.08
-98.21
-66.71
-33.12
-1.59
25.60
48.51
68.69
87.66
105.62
121.06
131.63
135.52
132.66
124.92
115.16
105.85
97.86
90.42
81.99
71.57
59.69
48.34
39.94
35.98
36.18
38.59
40.65
40.48
37.75
33.68
30.10
28.28
28.03
27.65
24.70
17.23
4.73
-11.58
-29.54
-47.31
-64.35
-81.50
-100.05
-120.23
-140.20
-156.37
-164.74
-162.91
-151.28
-132.85
-111.70
-91.06
-71.93
-53.14
-32.54
-8.62
18.38
46.40
72.49
94.11
110.12
120.98
128.09
132.78
135.41
135.14
130.42
120.06
104.20
84.62
64.30
46.35
32.82
24.13
19.24
16.58
15.05
14.62
16.20
20.76
28.39
37.72
46.17
51.04
50.74
45.51
37.16
28.01
19.42
11.04
1.09
-12.50
-30.55
-51.97
-74.03
-93.65
-108.86
-119.49
-126.77
-132.13
-135.88
-136.80
-132.70
-121.73
-103.71
-80.49
-55.28
-31.16
-9.73
9.35
27.71
46.78
66.52
85.04
99.44
107.30
108.05
103.37
96.24
89.48
84.23
79.64
73.56
64.15
51.20
36.55
23.28
14.20
10.39
10.69
12.42
12.86
10.73
6.76
3.06
1.70
3.26
6.30
7.98
5.57
-2.10
-13.96
-27.43
-39.84
-49.98
-58.66
-67.97
-79.78
-94.18
-108.90
-120.20
-124.58
-120.49
-109.13
-93.74
-77.90
-63.75
-51.16
-38.17
-22.48
-3.10
18.81
40.35
58.22
70.29
76.52
78.65
79.06
79.42
79.82
79.05
75.64
69.10
60.50
52.13
46.24
43.76
43.69
43.62
41.07
34.96
26.32
17.70
11.79
9.84
10.87
12.20
10.86
5.23
-4.14
-14.91
-24.30
-30.67
-34.40
-37.65
-42.95
-51.77
-63.58
-76.16
-86.80
-93.80
-97.21
-98.62
-99.84
-101.60
-102.79
-101.02
-93.95
-80.72
-62.59
-42.46
-23.40
-7.21
6.33
18.96
32.61
47.96
63.71
77.12
85.38
87.18
83.58
77.57
72.54
70.66
71.79
73.81
74.00
70.70
64.36
57.27
52.19
50.67
52.12
54.18
54.11
50.34
43.40
35.51
29.34
26.42
26.38
27.24
26.62
23.09
16.85
9.51
2.85
-2.34
-7.06
-13.53
-23.97
-39.10
-57.37
-75.46
-89.71
-97.83
-99.88
-97.85
-94.27
-90.58
-86.26
-79.25
-67.40
-50.01
-28.59
-6.27
13.63
29.23
40.74
50.01
59.18
69.33
79.71
88.22
92.53
91.42
85.47
76.77
67.79
60.20
54.08
48.21
41.03
31.84
21.44
11.88
5.39
3.11
4.37
6.93
8.14
6.28
1.42
-4.72
-9.87
-12.52
-12.84
-12.54
-13.84
-18.25
-25.79
-35.10
-44.40
-52.59
-59.83
-67.30
-76.18
-86.66
-97.35
-105.67
-108.88
-105.36
-95.33
-80.78
-64.54
-49.01
-35.23
-22.70
-10.03
3.87
18.90
33.55
45.59
53.28
56.34
56.11
54.81
54.29
54.99
55.77
54.76
50.52
43.11
34.13
25.97
20.58
18.44
18.48
18.84
17.99
15.69
13.01
11.56
12.37
15.01
17.59
17.75
13.84
5.95
-4.11
-13.83
-21.44
-26.91
-31.98
-39.08
-49.76
-63.57
-78.03
-89.76
-95.99
-95.85
-90.45
-82.02
-72.48
-62.42
-51.03
-36.97
-19.59
0.28
20.42
38.25
52.05
61.74
68.69
74.73
80.93
86.92
91.10
91.69
87.87
80.63
72.49
66.53
64.98
68.25
74.79
81.91
87.11
89.21
88.75
87.46
87.07
88.22
90.09
90.89
88.96
83.81
76.37
68.43
61.49
55.84
50.36
43.34
33.54
21.09
7.44
-5.49
-16.52
-25.88
-34.99
-45.28
-57.00
-68.50
-76.70
-78.38
-71.78
-57.39
-37.78
-16.48
3.47
20.57
34.94
47.71
59.82
71.20
80.61
86.29
86.99
82.85
75.52
67.48
60.84
56.33
52.95
48.72
41.84
31.96
20.40
9.51
1.42
-3.16
-5.16
-6.55
-9.15
-13.59
-19.08
-24.05
-27.27
-28.70
-29.68
-32.11
-37.44
-45.71
-55.50
-64.54
-70.97
-74.33
-75.82
-77.72
-82.11
-89.73
-99.49
-108.98
-115.68
-118.12
-116.39
-111.67
-105.20
-97.27
-87.00
-73.00
-54.46
-32.12
-8.34
13.79
31.72
44.56
53.28
59.95
66.55
73.86
81.13
86.69
88.96
87.54
83.46
78.73
75.22
73.64
73.09
71.61
67.17
58.83
47.32
34.68
23.32
14.77
9.02
4.60
-0.44
-7.52
-16.76
-27.21
-37.58
-47.27
-56.84
-67.62
-80.77
-96.27
-112.54
-127.13
-137.94
-144.40
-147.63
-149.66
-151.93
-154.14
-154.16
-149.09
-136.91
-117.87
-94.59
-70.90
-50.09
-33.40
-19.71
-6.59
8.04
24.47
40.79
53.87
61.02
61.56
57.29
51.62
47.89
47.59
49.83
51.96
51.28
46.74
39.52
32.42
28.12
27.66
29.80
31.79
30.93
26.08
18.29
10.01
3.61
-0.09
-2.29
-5.47
-11.87
-22.00
-34.23
-45.49
-53.07
-56.13
-56.41
-57.54
-63.18
-75.22
-92.66
-111.98
-128.65
-139.14
-142.16
-138.74
-131.06
-120.87
-108.37
-92.35
-71.42
-45.46
-16.48
11.87
35.92
53.65
65.62
74.32
82.62
91.92
101.39
108.55
110.80
107.12
98.73
88.58
79.86
74.36
71.67
69.58
65.45
57.73
46.89
35.07
25.00
18.38
15.06
13.14
10.17
4.49
-3.76
-12.93
-20.86
-26.27
-29.52
-32.38
-36.90
-44.08
-53.18
-62.22
-69.17
-73.47
-76.58
-81.35
-90.34
-104.07
-120.20
-134.34
-141.82
-139.88
-128.71
-111.05
-90.57
-69.95
-49.80
-28.99
-5.97
19.59
46.02
70.07
88.41
99.34
103.61
104.06
104.06
105.70
108.73
110.92
109.46
102.83
91.78
79.07
67.94
60.30
55.71
51.67
45.24
34.84
21.35
7.71
-2.67
-7.83
-8.42
-7.43
-8.56
-14.23
-24.34
-36.36
-46.93
-53.79
-57.11
-59.37
-63.90
-72.90
-86.12
-100.90
-113.51
-121.03
-122.68
-119.84
-114.91
-109.57
-103.65
-95.20
-81.79
-62.16
-37.31
-10.31
15.11
36.27
52.64
65.71
77.61
89.55
100.93
109.61
113.34
111.35
104.95
97.11
90.87
87.71
86.81
85.60
81.28
72.47
60.09
46.81
35.66
28.36
24.44
21.63
17.17
9.41
-1.37
-13.20
-23.60
-31.04
-35.85
-39.87
-45.36
-53.56
-63.96
-74.71
-83.88
-90.85
-96.88
-104.36
-115.31
-129.68
-144.78
-156.09
-159.23
-151.94
-135.10
-112.20
-87.58
-64.40
-43.44
-23.31
-1.84
22.13
47.66
71.96
91.66
104.63
110.93
112.71
112.89
113.46
114.49
114.32
110.87
103.25
92.56
81.66
73.57
69.90
69.81
70.48
68.54
61.98
51.15
38.58
27.49
20.04
16.12
13.53
9.18
0.96
-11.15
-25.05
-37.78
-47.17
-53.08
-57.45
-63.19
-72.52
-85.73
-101.04
-115.52
-126.56
-133.02
-135.46
-135.31
-133.59
-129.91
-122.48
-109.08
-88.49
-61.60
-31.41
-1.93
23.51
43.67
59.62
73.71
87.86
102.19
114.84
123.04
124.88
120.56
112.54
104.31
98.56
95.94
94.84
92.63
87.28
78.61
68.32
58.96
52.38
48.59
45.80
41.44
33.72
22.71
10.33
-0.72
-8.50
-12.98
-16.06
-20.48
-28.20
-39.23
-51.58
-62.39
-69.58
-73.13
-75.15
-78.78
-86.44
-98.52
-113.05
-126.52
-135.50
-137.96
-133.79
-124.35
-111.27
-95.54
-77.10
-55.32
-29.93
-1.89
26.56
52.47
73.41
88.39
98.17
104.69
109.97
114.95
119.20
121.29
119.87
114.74
107.14
99.28
93.18
89.56
87.49
84.93
79.98
72.01
62.08
52.30
44.62
39.61
36.10
31.89
24.95
14.73
2.43
-9.65
-19.49
-26.50
-31.92
-37.96
-46.58
-58.30
-71.86
-85.10
-96.13
-104.41
-110.84
-116.94
-123.52
-129.79
-133.40
-131.44
-121.93
-104.84
-82.29
-57.57
-33.68
-12.18
7.20
25.79
44.82
64.26
82.58
97.42
106.84
110.42
109.56
106.78
104.35
103.17
102.31
99.76
93.81
84.29
72.91
62.47
55.37
52.24
51.65
50.92
47.67
41.16
32.61
24.29
18.11
14.37
11.58
7.40
0.03
-10.63
-22.90
-34.19
-42.49
-47.49
-50.82
-55.25
-63.24
-75.66
-91.28
-107.34
-120.90
-130.02
-134.34
-134.66
-131.82
-125.79
-115.35
-98.83
-75.23
-45.32
-11.76
21.69
51.54
75.85
94.56
108.93
120.31
129.17
134.73
135.68
131.18
121.81
109.63
97.44
87.48
80.47
75.48
70.60
64.21
56.02
47.13
39.42
34.40
32.21
31.50
30.12
26.24
19.32
10.41
1.48
-5.71
-10.69
-14.61
-19.53
-27.30
-38.45
-51.90
-65.56
-77.59
-87.39
-95.86
-104.68
-115.03
-126.52
-137.07
-143.68
-143.94
-137.21
-125.01
-110.22
-95.64
-82.60
-70.51
-57.49
-41.84
-23.39
-3.94
13.45
25.98
32.57
34.27
33.68
33.46
35.10
38.34
41.68
43.52
43.13
41.11
38.97
38.32
40.01
43.74
48.36
52.45
55.04
55.91
55.45
54.17
52.22
49.15
44.13
36.44
26.06
13.84
1.32
-9.87
-18.67
-24.95
-29.42
-33.31
-37.74
-43.43
-50.57
-58.88
-67.81
-76.51
-83.93
-88.78
-89.80
-86.08
-77.32
-64.03
-47.38
-28.89
-10.06
7.97
24.56
39.51
52.84
64.52
74.22
81.32
85.14
85.37
82.41
77.47
72.13
67.80
65.12
63.73
62.63
60.76
57.55
53.16
48.20
43.28
38.57
33.69
28.01
21.14
13.21
4.94
-2.73
-9.10
-14.09
-18.23
-22.32
-27.01
-32.40
-38.08
-43.40
-48.01
-52.13
-56.63
-62.67
-71.10
-81.85
-93.76
-104.76
-112.54
-115.34
-112.45
-104.35
-92.28
-77.66
-61.43
-43.93
-25.05
-4.74
16.53
37.69
57.19
73.55
85.77
93.63
97.60
98.52
97.23
94.33
90.16
84.99
79.31
73.78
69.09
65.62
63.15
60.91
57.92
53.43
47.29
40.03
32.47
25.35
18.95
13.06
7.21
1.03
-5.55
-12.28
-18.82
-25.03
-31.11
-37.54
-44.81
-53.10
-62.20
-71.57
-80.75
-89.52
-98.03
-106.43
-114.39
-120.84
-124.03
-122.23
-114.39
-100.73
-82.70
-62.33
-41.40
-20.90
-1.01
18.44
37.38
55.06
70.23
81.66
88.67
91.53
91.31
89.40
86.98
84.57
82.05
78.99
75.11
70.65
66.36
63.11
61.40
61.00
60.96
60.02
57.18
52.19
45.62
38.48
31.72
25.62
19.74
13.16
5.05
-4.81
-15.88
-27.05
-37.21
-45.73
-52.77
-59.06
-65.55
-72.82
-80.82
-88.88
-95.94
-100.91
-102.93
-101.57
-96.69
-88.51
-77.37
-63.76
-48.31
-31.74
-14.88
1.46
16.60
30.11
41.83
51.81
60.14
66.82
71.74
74.70
75.59
74.58
72.08
68.67
64.81
60.61
55.72
49.42
40.99
30.01
16.69
1.89
-13.14
-27.07
-38.81
-47.79
-53.92
-57.52
-59.15
-59.47
-59.14
-58.82
-59.17
-60.82
-64.27
-69.75
-77.03
-85.55
-94.59
-103.74
-113.23
-123.83
-136.41
-151.12
-166.72
-180.57
-189.31
-190.00
-181.22
-163.44
-138.71
-109.73
-78.88
-47.77
-17.32
11.71
38.33
61.18
78.97
91.06
97.78
100.40
100.55
99.53
97.76
94.85
90.10
83.23
75.01
67.06
61.31
58.98
60.04
63.12
66.23
67.58
66.35
62.75
57.66
51.90
45.76
38.95
30.89
21.21
10.07
-1.85
-13.63
-24.45
-33.86
-41.77
-48.34
-53.77
-58.21
-61.75
-64.46
-66.41
-67.62
-67.94
-66.99
-64.18
-58.87
-50.64
-39.44
-25.76
-10.50
5.17
20.14
33.66
45.46
55.71
64.80
73.06
80.49
86.78
91.53
94.47
95.71
95.68
94.81
93.27
90.82
86.94
81.13
73.20
63.46
52.62
41.57
31.12
21.93
14.37
8.60
4.62
2.25
1.12
0.71
0.34
-0.73
-3.11
-7.16
-12.82
-19.67
-27.19
-35.15
-43.86
-54.02
-66.31
-80.67
-95.80
-109.25
-118.00
-119.56
-112.81
-98.43
-78.59
-56.17
-33.85
-13.44
4.37
19.78
33.39
45.70
56.76
66.12
73.12
77.37
79.06
79.04
78.51
78.48
79.38
80.93
82.40
83.05
82.58
81.10
78.92
76.21
72.78
68.16
61.95
54.11
45.02
35.34
25.71
16.50
7.87
-0.15
-7.36
-13.42
-17.92
-20.62
-21.64
-21.58
-21.39
-22.15
-24.79
-29.83
-37.25
-46.49
-56.59
-66.39
-74.67
-80.31
-82.24
-79.62
-71.92
-59.22
-42.33
-22.79
-2.49
16.79
33.79
48.03
59.67
69.13
76.61
81.77
83.87
82.14
76.49
67.90
58.45
50.64
46.56
46.98
51.09
56.89
62.06
64.84
64.61
61.76
57.17
51.64
45.53
38.80
31.32
23.12
14.56
6.17
-1.52
-8.17
-13.63
-17.88
-20.84
-22.47
-22.85
-22.46
-22.26
-23.49
-27.35
-34.43
-44.40
-55.93
-67.05
-75.66
-80.11
-79.48
-73.56
-62.64
-47.27
-28.23
-6.61
16.00
37.55
55.83
69.06
76.35
78.00
75.35
70.21
64.25
58.49
53.14
47.91
42.53
37.12
32.44
29.56
29.37
32.00
36.50
41.08
43.72
42.87
38.04
29.86
19.66
8.86
-1.64
-11.73
-21.87
-32.57
-43.80
-54.68
-63.70
-69.23
-70.33
-67.28
-61.60
-55.49
-50.99
-49.16
-49.86
-51.95
-54.00
-54.91
-54.28
-52.26
-49.16
-44.98
-39.33
-31.52
-20.98
-7.51
8.54
26.36
44.83
62.61
78.27
90.38
97.71
99.60
96.24
88.78
79.15
69.52
61.70
56.73
54.82
55.62
58.69
63.77
70.90
80.17
91.34
103.67
115.82
126.24
133.63
137.38
137.82
135.98
133.17
130.42
128.16
126.27
124.45
122.70
121.62
122.39
126.48
134.99
148.18
165.02
183.14
199.20
209.67
211.74
204.26
188.02
165.52
140.06
114.84
92.15
73.23
58.54
48.21
42.29
40.72
43.13
48.69
56.23
64.58
73.02
81.37
89.98
99.17
108.92
118.55
126.79
132.23
133.71
130.78
123.79
113.63
101.30
87.45
72.22
55.20
35.89
13.99
-10.21
-36.00
-62.39
-88.55
-114.14
-139.31
-164.62
-190.86
-218.76
-248.84
-281.03
-314.37
-346.88
-375.68
-397.64
-410.24
-412.33
-404.51
-388.78
-367.71
-343.48
-317.34
-289.60
-260.20
-229.37
-197.97
-167.37
-138.95
-113.56
-91.29
-71.62
-53.94
-38.04
-24.47
-14.12
-7.80
-5.54
-6.42
-8.86
-11.16
-12.12
-11.50
-9.87
-8.22
-7.48
-8.06
-9.77
-11.99
-14.10
-15.85
-17.62
-20.26
-24.70
-31.38
-39.92
-49.16
-57.69
-64.54
-69.67
-73.89
-78.37
-84.05
-91.16
-99.34
-107.92
-116.31
-124.01
-130.37
-134.35
-134.47
-129.23
-117.71
-100.05
-77.51
-52.10
-25.91
-0.67
22.52
43.05
60.62
74.93
85.62
92.39
95.08
93.96
89.75
83.52
76.45
69.46
62.98
56.91
50.84
44.43
37.75
31.40
26.35
23.45
23.02
24.57
26.89
28.47
28.03
24.86
18.93
10.70
0.68
-10.74
-23.33
-36.83
-50.61
-63.69
-74.93
-83.59
-89.78
-94.59
-99.77
-106.94
-116.76
-128.42
-139.62
-147.32
-148.76
-142.40
-128.54
-108.97
-86.33
-63.18
-41.31
-21.49
-3.70
12.45
27.43
41.57
55.05
68.00
80.39
91.98
102.23
110.38
115.62
117.40
115.56
110.55
103.38
95.37
87.92
81.97
77.78
74.82
72.07
68.48
63.41
56.82
49.09
40.62
31.50
21.57
10.65
-1.01
-12.57
-22.90
-31.08
-36.97
-41.45
-46.07
-52.41
-61.32
-72.54
-84.92
-97.03
-107.90
-117.22
-125.14
-131.59
-135.77
-136.14
-131.09
-119.88
-103.27
-83.42
-63.01
-44.01
-26.99
-11.08
5.07
22.16
39.55
55.42
67.67
75.13
78.30
79.17
80.24
83.23
88.29
94.09
98.67
100.54
99.38
95.95
91.40
86.55
81.49
75.74
68.74
60.25
50.39
39.47
27.75
15.36
2.49
-10.47
-22.94
-34.29
-44.01
-51.92
-58.18
-63.27
-67.96
-73.36
-80.76
-91.31
-105.57
-122.98
-141.76
-159.20
-172.38
-178.89
-177.45
-168.00
-151.55
-129.79
-104.67
-78.13
-51.72
-26.40
-2.32
20.94
43.99
67.02
89.42
109.86
126.75
138.92
146.05
148.72
147.93
144.75
139.92
133.96
127.34
120.54
113.97
107.89
102.25
96.78
91.18
85.09
78.05
69.33
57.99
43.24
24.99
4.27
-16.81
-35.61
-49.94
-58.81
-62.74
-63.42
-63.00
-63.37
-65.92
-71.60
-81.05
-94.64
-112.04
-131.67
-150.47
-164.35
-169.26
-162.75
-145.02
-118.98
-89.24
-60.35
-35.22
-14.29
4.08
22.30
42.13
63.68
85.42
104.97
120.26
130.33
135.47
136.67
134.94
130.84
124.51
116.17
106.55
96.88
88.49
82.02
77.09
72.42
66.48
58.45
48.68
38.63
30.14
24.54
22.09
21.77
21.78
20.23
15.77
7.90
-2.91
-15.47
-28.29
-39.97
-49.60
-56.91
-62.44
-67.37
-73.31
-81.85
-94.01
-109.66
-127.22
-143.75
-155.66
-159.78
-154.42
-139.93
-118.43
-92.99
-66.45
-40.63
-16.18
7.08
29.41
50.77
70.70
88.47
103.29
114.50
121.52
123.93
121.66
115.19
105.69
94.84
84.39
75.60
68.91
63.92
59.73
55.32
49.87
42.78
33.66
22.25
8.62
-6.63
-22.29
-36.79
-48.77
-57.66
-64.00
-69.15
-74.59
-81.27
-89.40
-98.85
-109.89
-123.67
-141.93
-166.13
-196.10
-229.26
-260.82
-284.92
-296.55
-293.12
-275.14
-245.73
-209.19
-169.36
-128.66
-87.98
-47.49
-7.69
29.86
62.77
88.58
105.88
115.03
117.97
117.29
115.13
112.38
108.74
103.54
96.73
89.51
84.15
83.09
87.69
97.51
110.33
123.01
132.73
137.98
138.77
136.21
131.62
125.84
119.03
110.94
101.41
90.79
79.81
69.35
59.82
51.05
42.34
32.93
22.42
10.95
-0.96
-12.89
-24.78
-37.04
-50.10
-63.89
-77.49
-89.17
-96.87
-98.92
-94.65
-84.47
-69.68
-51.87
-32.45
-12.24
8.35
29.07
49.48
68.72
85.72
99.49
109.48
115.84
119.25
120.64
120.73
119.82
117.83
114.67
110.54
106.05
102.05
99.07
96.93
94.69
91.04
84.90
76.16
65.69
55.05
45.73
38.42
32.64
27.10
20.28
11.24
-0.02
-12.61
-25.26
-36.95
-47.28
-56.49
-65.13
-73.68
-82.37
-91.20
-100.12
-109.13
-118.08
-126.42
-132.95
-135.96
-133.66
-124.90
-109.61
-88.93
-64.85
-39.53
-14.80
8.31
29.37
48.33
65.13
79.55
91.23
99.93
105.73
109.13
110.86
111.50
111.24
109.81
106.70
101.67
94.96
87.38
80.01
73.72
68.83
64.88
60.92
55.98
49.52
41.69
33.24
25.14
18.03
11.88
6.05
-0.38
-7.99
-16.71
-25.72
-33.89
-40.40
-45.21
-49.16
-53.69
-60.17
-69.39
-81.19
-94.51
-107.70
-119.01
-126.94
-130.54
-129.38
-123.50
-113.28
-99.28
-82.23
-63.07
-42.90
-22.80
-3.68
13.96
30.05
44.76
58.26
70.35
80.51
88.00
92.24
93.17
91.32
87.69
83.34
79.09
75.24
71.71
68.19
64.47
60.46
56.19
51.63
46.57
40.63
33.53
25.23
16.14
7.05
-1.16
-7.81
-12.73
-16.27
-19.09
-21.90
-25.18
-29.08
-33.64
-38.90
-45.07
-52.46
-61.33
-71.65
-82.90
-94.12
-104.01
-111.28
-114.90
-114.34
-109.63
-101.26
-89.89
-76.17
-60.59
-43.50
-25.35
-6.86
11.00
27.20
40.96
52.09
60.95
68.21
74.42
79.73
83.79
86.07
86.21
84.27
80.83
76.67
72.40
68.22
63.87
58.95
53.21
46.84
40.40
34.57
29.80
26.01
22.65
18.92
14.27
8.63
2.51
-3.37
-8.47
-12.87
-17.30
-22.74
-29.91
-38.84
-48.81
-58.77
-67.90
-76.00
-83.47
-90.82
-98.01
-104.16
-107.69
-106.98
-101.18
-90.61
-76.61
-60.86
-44.65
-28.38
-11.68
5.94
24.38
42.57
58.73
70.99
78.31
80.83
79.80
76.90
73.54
70.33
67.10
63.38
58.90
53.94
49.23
45.52
43.10
41.57
40.08
37.81
34.55
30.80
27.45
25.19
23.82
22.21
18.67
11.82
1.30
-11.86
-25.75
-38.28
-48.08
-54.97
-59.82
-63.93
-68.41
-73.77
-79.90
-86.43
-93.09
-99.84
-106.66
-113.15
-118.34
-120.81
-119.22
-112.95
-102.40
-88.93
-74.15
-59.30
-44.75
-30.05
-14.49
2.27
19.67
36.36
50.60
61.04
67.26
69.94
70.53
70.53
70.88
71.62
72.02
71.10
68.23
63.40
57.15
50.22
43.08
35.88
28.55
21.13
14.07
8.21
4.43
3.27
4.58
7.44
10.44
12.05
11.12
7.16
0.44
-8.23
-17.78
-27.30
-36.28
-44.63
-52.59
-60.36
-68.03
-75.40
-82.15
-87.99
-92.65
-95.89
-97.29
-96.21
-91.85
-83.54
-71.08
-55.03
-36.67
-17.64
0.53
16.89
31.16
43.52
54.18
63.06
69.70
73.62
74.62
73.14
70.12
66.66
63.55
61.00
58.78
56.49
53.99
51.57
49.78
49.04
49.25
49.67
49.11
46.42
41.08
33.49
24.82
16.50
9.65
4.52
0.53
-3.50
-8.76
-15.95
-24.98
-35.10
-45.22
-54.42
-62.29
-69.03
-75.29
-81.69
-88.34
-94.64
-99.36
-101.19
-99.21
-93.25
-83.83
-71.83
-58.04
-42.98
-27.03
-10.63
5.49
20.39
33.24
43.67
51.93
58.68
64.65
70.18
75.05
78.64
80.30
79.74
77.23
73.51
69.47
65.72
62.37
58.99
54.90
49.40
42.12
33.10
22.81
12.01
1.57
-7.65
-15.04
-20.19
-23.10
-24.06
-23.73
-23.01
-22.89
-24.30
-27.85
-33.64
-41.22
-49.75
-58.42
-66.85
-75.24
-84.24
-94.35
-105.28
-115.71
-123.44
-126.16
-122.41
-112.07
-96.42
-77.41
-56.91
-36.06
-15.21
5.62
26.18
45.65
62.77
76.29
85.52
90.58
92.21
91.32
88.59
84.31
78.56
71.69
64.51
58.25
54.21
53.19
55.01
58.56
62.05
63.71
62.40
58.00
51.30
43.62
36.13
29.34
22.89
15.75
6.88
-4.20
-16.96
-29.98
-41.49
-50.10
-55.31
-57.60
-58.03
-57.74
-57.61
-58.24
-60.09
-63.56
-68.79
-75.29
-81.77
-86.27
-86.86
-82.38
-73.03
-60.18
-45.75
-31.30
-17.36
-3.46
11.39
27.88
45.80
63.90
80.31
93.24
101.69
105.66
106.03
103.88
99.95
94.31
86.62
76.66
64.96
52.94
42.58
35.67
33.12
34.54
38.44
42.86
46.06
47.01
45.43
41.56
35.75
28.19
18.87
7.71
-5.12
-19.09
-33.32
-46.70
-58.29
-67.50
-74.33
-79.26
-83.06
-86.45
-89.78
-92.83
-94.94
-95.21
-92.87
-87.56
-79.42
-69.04
-57.20
-44.67
-32.05
-19.69
-7.76
3.73
14.98
26.25
37.80
49.68
61.48
72.43
81.49
87.70
90.53
90.01
86.66
81.14
74.04
65.71
56.36
46.39
36.53
27.87
21.56
18.35
18.28
20.55
23.73
26.20
26.68
24.60
20.13
13.89
6.55
-1.57
-10.62
-21.03
-33.00
-46.21
-59.59
-71.66
-81.06
-87.08
-89.95
-90.60
-90.18
-89.44
-88.32
-86.13
-81.92
-75.11
-65.87
-55.10
-44.04
-33.67
-24.26
-15.31
-5.78
5.27
18.15
32.27
46.34
58.93
69.00
76.26
81.04
83.90
85.21
84.83
82.27
76.99
68.89
58.54
47.03
35.71
25.78
18.01
12.70
9.84
9.22
10.56
13.46
17.26
21.00
23.46
23.48
20.25
13.52
3.69
-8.44
-21.88
-35.67
-48.97
-60.98
-70.85
-77.81
-81.28
-81.21
-78.24
-73.59
-68.70
-64.66
-61.81
-59.61
-56.99
-52.95
-47.06
-39.67
-31.55
-23.35
-15.07
-6.03
4.81
18.07
33.49
49.80
65.08
77.46
85.73
89.61
89.60
86.54
81.19
74.00
65.29
55.49
45.47
36.54
30.15
27.33
28.30
32.30
37.87
43.37
47.55
49.80
50.10
48.61
45.23
39.45
30.60
18.39
3.50
-12.21
-26.09
-35.55
-39.11
-37.02
-31.31
-25.00
-21.10
-21.60
-26.94
-36.14
-47.31
-58.26
-67.05
-72.15
-72.64
-68.11
-58.78
-45.53
-29.77
-13.28
2.26
15.75
26.97
36.51
45.44
54.69
64.70
75.12
85.11
93.73
100.44
105.41
109.45
113.74
119.32
126.60
135.16
143.69
150.32
153.01
150.19
141.11
126.05
106.19
83.25
59.21
35.88
14.89
-2.37
-14.81
-21.71
-23.01
-19.49
-12.81
-5.07
1.82
6.85
10.22
13.14
17.09
22.98
30.72
39.18
46.80
52.13
54.26
52.77
47.45
38.20
25.20
9.34
-7.59
-22.96
-34.10
-39.16
-37.93
-31.91
-23.77
-16.28
-11.38
-9.64
-10.38
-12.35
-14.54
-16.65
-19.14
-22.71
-27.84
-34.37
-41.66
-48.95
-55.90
-62.65
-69.53
-76.53
-82.85
-87.01
-87.46
-83.50
-75.88
-66.77
-58.99
-54.74
-54.69
-57.75
-61.68
-64.36
-64.88
-63.95
-63.32
-64.74
-68.87
-74.94
-81.24
-86.03
-88.41
-88.55
-87.16
-84.69
-80.82
-74.48
-64.53
-50.58
-33.42
-14.83
3.18
19.14
32.66
44.30
55.01
65.42
75.42
84.14
90.38
93.24
92.65
89.45
85.07
80.94
77.88
75.76
73.69
70.57
65.72
59.35
52.35
45.85
40.47
35.95
31.24
25.14
17.10
7.70
-1.63
-9.23
-14.13
-16.60
-17.95
-19.94
-23.74
-29.51
-36.29
-42.60
-47.24
-49.79
-50.68
-50.92
-51.46
-52.76
-54.71
-56.76
-58.37
-59.22
-59.38
-58.97
-57.84
-55.30
-50.20
-41.49
-28.89
-13.45
2.56
16.36
25.77
30.19
30.81
29.99
30.06
32.23
36.18
40.46
43.50
44.57
44.02
42.89
42.03
41.44
40.23
37.21
31.77
24.41
16.54
9.67
4.42
-0.02
-5.50
-13.91
-26.06
-40.94
-56.07
-68.55
-76.26
-78.71
-77.05
-73.33
-69.58
-67.00
-65.84
-65.80
-66.55
-68.20
-71.22
-75.93
-82.05
-88.35
-93.08
-94.63
-92.35
-86.84
-79.58
-72.05
-64.81
-57.11
-47.24
-33.49
-15.28
6.32
28.76
48.98
64.51
74.36
79.08
80.27
79.64
78.23
76.13
72.74
67.46
60.20
51.75
43.36
36.24
30.87
26.87
23.29
19.17
14.25
9.05
4.57
1.62
0.23
-0.52
-2.03
-5.51
-11.38
-19.07
-27.43
-35.31
-42.18
-48.27
-54.30
-60.92
-68.30
-76.09
-83.62
-90.41
-96.49
-102.40
-108.78
-115.77
-122.63
-127.73
-129.11
-125.28
-115.93
-102.02
-85.32
-67.60
-49.85
-32.07
-13.65
5.73
25.49
43.91
58.75
68.20
71.80
70.63
66.92
62.93
60.02
58.20
56.43
53.43
48.49
41.95
34.97
28.96
24.86
22.81
22.20
22.19
22.18
22.11
22.33
23.20
24.66
25.94
25.82
23.17
17.58
9.65
0.77
-7.62
-14.80
-21.19
-28.03
-36.56
-47.13
-58.87
-69.92
-78.47
-83.59
-85.63
-85.83
-85.48
-85.04
-83.97
-81.06
-75.28
-66.46
-55.40
-43.43
-31.67
-20.42
-9.18
2.85
15.97
29.45
41.62
50.55
54.98
54.93
51.77
47.63
44.42
43.17
43.85
45.61
47.57
49.20
50.60
52.12
54.01
55.88
56.85
55.80
51.93
45.23
36.54
27.23
18.48
10.83
3.86
-3.48
-12.22
-22.85
-34.78
-46.68
-56.89
-64.18
-68.18
-69.41
-69.00
-68.11
-67.53
-67.48
-67.76
-67.99
-67.80
-66.86
-64.70
-60.68
-53.98
-44.01
-30.70
-14.84
1.97
17.75
30.70
39.83
45.27
48.19
50.24
53.01
57.38
63.37
70.27
77.10
83.01
87.57
90.67
92.27
92.16
89.95
85.37
78.59
70.40
62.01
54.61
48.79
44.29
40.12
35.17
28.74
20.92
12.54
4.68
-1.91
-7.19
-11.83
-16.82
-22.98
-30.56
-39.22
-48.25
-57.01
-65.18
-72.82
-80.11
-86.94
-92.72
-96.36
-96.69
-92.91
-85.00
-73.70
-60.22
-45.64
-30.56
-14.99
1.24
18.02
34.60
49.66
61.72
69.81
73.83
74.58
73.35
71.30
69.10
66.86
64.43
61.73
59.03
56.83
55.55
55.19
55.16
54.45
52.08
47.51
40.99
33.48
26.27
20.42
16.37
13.74
11.61
9.04
5.50
1.09
-3.59
-7.90
-11.56
-14.88
-18.54
-23.17
-28.98
-35.62
-42.45
-48.94
-54.97
-60.84
-66.83
-72.77
-77.76
-80.23
-78.63
-71.97
-60.44
-45.32
-28.61
-12.24
2.51
15.26
26.34
36.28
45.33
53.27
59.61
64.04
66.77
68.55
70.30
72.69
75.68
78.64
80.66
81.08
79.82
77.42
74.71
72.33
70.42
68.47
65.68
61.29
55.06
47.33
38.87
30.43
22.31
14.27
5.78
-3.52
-13.38
-22.87
-30.73
-35.95
-38.23
-38.18
-36.94
-35.72
-35.23
-35.54
-36.19
-36.55
-36.16
-34.90
-32.84
-30.01
-26.10
-20.45
-12.28
-1.15
12.66
28.04
43.28
56.68
67.21
74.78
80.22
84.76
89.34
94.26
99.14
103.30
106.35
108.51
110.50
113.11
116.63
120.53
123.70
125.09
124.46
122.82
122.28
125.25
133.36
146.71
163.41
180.18
193.30
199.84
198.57
190.27
177.28
162.55
148.62
136.79
126.97
118.01
108.33
96.53
81.58
62.87
40.20
14.07
-13.86
-40.69
-62.82
-77.28
-83.08
-81.97
-77.69
-74.17
-73.41
-74.53
-74.39
-69.60
-58.63
-42.82
-25.77
-11.71
-3.79
-3.22
-9.55
-21.34
-36.96
-54.82
-73.24
-90.30
-103.89
-112.05
-113.61
-108.81
-99.56
-89.06
-80.90
-77.70
-79.88
-85.37
-90.38
-91.25
-86.44
-77.50
-68.44
-63.70
-65.65
-73.18
-82.07
-87.22
-85.14
-75.80
-62.46
-49.94
-42.46
-42.32
-50.04
-65.10
-86.23
-110.83
-134.49
-151.54
-157.35
-150.97
-136.28
-120.50
-110.40
-108.56
-111.90
-113.79
-107.66
-90.13
-61.90
-26.25
12.74
51.16
85.02
109.93
121.78
118.56
101.91
76.75
49.44
24.93
5.32
-9.63
-20.71
-27.26
-26.95
-17.32
1.70
26.13
48.47
60.45
56.70
37.29
7.76
-23.52
-49.13
-65.58
-73.59
-76.42
-77.03
-76.33
-73.34
-66.93
-57.68
-48.54
-43.78
-46.81
-58.28
-75.56
-93.66
-107.16
-112.10
-107.26
-94.17
-76.21
-57.01
-38.99
-22.73
-7.42
8.04
23.81
38.66
50.51
57.61
59.69
58.27
55.99
55.31
57.29
61.21
65.06
66.69
65.05
60.67
55.28
50.79
48.14
46.85
45.33
41.92
35.98
28.34
20.91
15.72
13.76
14.60
16.64
18.05
17.62
15.25
11.60
7.53
3.47
-0.84
-6.12
-13.04
-21.84
-32.20
-43.44
-54.99
-66.70
-78.91
-92.08
-106.18
-120.04
-131.28
-136.79
-133.94
-121.81
-101.84
-77.41
-52.45
-29.89
-10.55
6.59
23.21
40.11
56.19
68.73
74.65
72.00
61.06
44.25
25.21
7.44
-6.76
-16.69
-22.90
-26.49
-28.38
-29.08
-28.79
-27.93
-27.38
-28.32
-31.76
-37.79
-45.40
-52.73
-57.91
-60.04
-59.58
-58.06
-57.24
-58.23
-61.03
-64.75
-68.21
-70.62
-71.90
-72.64
-73.73
-76.04
-80.19
-86.50
-94.93
-105.05
-115.87
-125.81
-132.82
-134.75
-129.89
-117.39
-97.56
-71.83
-42.43
-11.94
17.15
42.90
64.20
80.88
93.55
103.25
110.89
116.85
120.92
122.62
121.82
119.14
115.97
113.89
113.97
116.16
119.33
121.88
122.52
120.91
117.74
114.41
112.27
112.15
114.03
116.98
119.45
119.64
115.97
107.54
94.45
77.83
59.61
42.06
27.32
16.98
11.72
10.95
12.43
12.35
6.06
-10.21
-37.49
-72.90
-110.04
-141.35
-161.27
-168.60
-166.71
-161.27
-156.94
-154.95
-153.20
-148.65
-140.24
-130.22
-122.78
-120.98
-123.99
-126.77
-122.54
-106.69
-79.63
-46.79
-15.76
7.64
22.19
31.40
41.10
56.11
77.79
103.66
128.97
149.12
161.52
166.01
163.84
155.99
141.97
120.11
89.09
49.87
6.55
-34.48
-66.91
-87.17
-95.86
-97.08
-96.12
-96.72
-99.58
-102.80
-103.68
-100.79
-94.79
-87.71
-81.31
-75.57
-68.47
-57.02
-39.02
-14.36
14.65
44.17
70.40
90.88
105.12
114.16
119.65
122.90
124.29
123.48
119.99
113.98
106.58
99.65
95.00
93.50
94.48
96.01
95.65
91.64
83.75
73.33
62.61
53.66
47.32
42.97
38.93
33.49
25.73
16.10
5.94
-3.18
-10.36
-15.85
-20.76
-26.42
-33.66
-42.44
-52.17
-62.20
-72.35
-82.91
-94.19
-105.85
-116.50
-123.89
-125.64
-120.17
-107.33
-88.39
-65.48
-40.79
-15.95
8.23
31.43
53.33
73.20
89.91
102.21
109.36
111.59
110.15
106.87
103.47
100.82
98.68
96.09
91.99
86.06
78.89
71.76
65.85
61.47
57.85
53.36
46.29
35.66
21.80
6.13
-9.37
-23.09
-34.33
-43.40
-51.21
-58.52
-65.47
-71.60
-76.29
-79.50
-82.16
-85.93
-92.39
-101.96
-113.39
-123.88
-130.11
-129.53
-121.31
-106.41
-86.91
-65.00
-42.12
-18.82
4.78
28.27
50.54
69.98
85.02
94.99
100.42
102.85
104.16
105.74
107.97
110.35
111.93
112.00
110.49
107.94
105.04
102.14
98.87
94.31
87.51
78.11
66.68
54.52
43.07
33.14
24.43
15.73
5.63
-6.68
-20.89
-35.79
-49.93
-62.57
-74.04
-85.57
-98.44
-113.03
-128.38
-142.30
-152.23
-156.22
-153.60
-145.02
-131.91
-115.64
-97.02
-76.17
-53.03
-27.97
-2.15
22.61
44.53
62.62
77.07
88.92
99.31
108.64
116.27
120.86
121.29
117.46
110.60
102.86
96.37
92.25
90.22
88.90
86.61
82.31
75.99
68.57
61.28
54.86
49.22
43.49
36.54
27.61
16.73
4.61
-7.67
-19.31
-30.16
-40.75
-51.92
-64.24
-77.60
-91.23
-104.07
-115.30
-124.77
-132.74
-139.39
-144.21
-145.72
-141.94
-131.20
-113.04
-88.62
-60.41
-31.27
-3.55
21.63
44.27
64.86
83.60
99.80
112.01
118.64
118.96
113.77
105.39
96.79
90.39
87.02
85.67
84.28
80.91
74.87
66.99
59.03
52.60
48.20
45.02
41.48
36.31
29.29
21.38
14.19
8.82
5.14
1.68
-3.68
-12.46
-24.76
-39.07
-53.08
-64.87
-74.11
-82.15
-91.16
-102.62
-116.06
-128.88
-137.17
-137.42
-128.02
-109.77
-85.28
-57.58
-28.80
0.34
30.04
60.34
90.09
116.72
137.02
148.52
150.80
145.87
137.48
129.52
124.39
121.98
119.93
114.93
104.47
88.13
67.79
46.67
27.90
13.25
2.94
-3.78
-7.52
-8.15
-4.99
2.34
12.88
24.10
32.37
34.35
28.24
14.38
-5.13
-27.47
-50.27
-72.26
-93.27
-113.58
-133.12
-151.12
-166.07
-176.29
-180.65
-178.97
-172.08
-161.24
-147.39
-130.52
-109.57
-83.11
-50.35
-12.16
28.48
67.06
98.77
120.08
129.77
128.91
120.15
106.47
90.35
73.56
57.52
43.70
33.45
27.46
25.13
24.49
22.95
18.59
11.22
2.72
-3.76
-5.25
-0.25
10.66
25.19
40.28
53.11
61.64
64.63
61.32
51.26
34.42
11.50
-15.62
-43.96
-69.94
-90.49
-104.27
-112.46
-118.31
-125.71
-136.98
-151.23
-164.26
-170.12
-163.83
-143.63
-111.84
-73.58
-34.47
1.57
33.10
60.40
83.76
102.31
113.88
116.33
109.09
94.25
76.15
59.93
49.43
45.79
47.22
50.25
51.56
49.74
45.82
42.41
42.04
45.59
51.75
57.94
61.88
62.91
62.13
61.29
61.11
60.22
55.41
43.22
21.91
-7.08
-39.29
-68.86
-90.86
-103.37
-108.13
-109.57
-112.67
-120.62
-133.43
-148.15
-160.37
-166.28
-164.25
-154.92
-140.31
-122.19
-101.13
-76.56
-47.97
-16.24
15.75
43.82
64.16
75.06
77.69
75.47
72.42
71.19
71.91
72.63
70.72
64.76
55.64
46.29
40.19
39.47
43.72
50.21
55.50
57.58
57.10
57.15
61.36
71.44
85.58
98.75
104.79
99.24
81.47
54.84
25.16
-2.00
-23.47
-39.18
-51.39
-62.78
-74.83
-87.10
-97.86
-105.41
-109.47
-111.59
-114.55
-120.78
-130.78
-142.37
-151.27
-152.82
-144.07
-125.19
-99.36
-71.36
-45.46
-23.82
-6.00
9.98
26.07
42.83
59.25
73.54
84.47
92.04
97.33
101.47
104.66
105.86
103.55
96.92
86.75
75.41
65.74
59.65
57.16
56.44
54.84
50.25
42.06
31.21
19.53
8.62
-0.96
-9.83
-19.24
-30.12
-42.25
-54.06
-63.24
-67.83
-67.39
-63.38
-58.80
-56.82
-59.32
-66.15
-75.41
-84.81
-93.22
-101.38
-111.28
-124.38
-139.79
-153.72
-160.59
-155.53
-136.92
-107.43
-72.94
-39.95
-12.71
8.14
25.09
41.66
60.08
80.11
99.40
115.02
125.17
129.97
131.10
130.55
129.42
127.38
123.04
115.09
103.36
89.25
75.35
64.20
57.07
53.29
50.58
46.31
38.89
28.61
17.35
7.37
-0.27
-6.37
-13.13
-22.65
-35.36
-49.44
-61.71
-69.45
-72.09
-71.73
-72.06
-76.31
-85.59
-98.49
-112.31
-124.81
-135.56
-145.78
-156.81
-168.42
-177.80
-180.43
-172.13
-151.33
-120.29
-84.43
-50.12
-21.90
-0.73
16.01
32.78
53.05
77.15
101.80
121.55
131.52
129.76
117.96
100.43
81.83
65.28
51.62
39.89
28.47
16.08
2.13
-13.44
-30.35
-48.10
-65.87
-82.47
-96.40
-106.32
-111.44
-111.75
-108.13
-102.06
-95.17
-88.51
-81.99
-74.28
-63.45
-48.19
-29.02
-8.80
8.11
17.36
16.43
5.52
-12.65
-34.05
-54.92
-72.80
-86.67
-96.38
-101.82
-102.38
-97.07
-85.09
-66.54
-42.81
-16.19
10.82
36.46
60.09
82.05
102.93
122.76
140.62
154.87
163.94
167.15
165.23
160.16
154.41
149.93
147.43
146.18
144.58
141.06
134.93
126.76
118.06
110.37
104.47
99.88
95.21
88.88
80.01
68.89
56.77
45.09
34.67
25.15
15.25
3.55
-10.55
-26.27
-41.54
-53.99
-62.06
-65.90
-67.36
-69.16
-73.70
-82.11
-93.88
-107.32
-120.36
-131.26
-138.93
-142.72
-141.98
-135.88
-123.54
-104.50
-79.25
-49.40
-17.41
14.02
42.64
67.17
87.29
103.40
116.03
125.52
131.96
135.38
136.15
135.06
133.30
132.00
131.73
132.11
131.93
129.64
124.07
115.07
103.62
91.39
79.95
70.02
61.29
52.73
43.37
32.85
21.60
10.45
0.01
-9.84
-19.97
-31.54
-45.27
-60.94
-77.31
-92.64
-105.42
-115.06
-122.11
-127.90
-133.74
-140.21
-146.68
-151.57
-152.98
-149.58
-140.94
-127.45
-109.66
-87.72
-61.22
-29.73
6.32
44.91
82.47
114.79
138.44
152.03
156.44
154.18
147.99
139.69
129.81
118.09
104.47
89.88
76.23
65.62
59.24
56.65
55.85
54.23
49.85
42.42
33.37
25.09
19.64
17.77
18.58
20.18
20.66
19.01
15.30
10.18
3.95
-4.03
-15.27
-31.34
-52.73
-78.29
-105.34
-130.72
-151.96
-168.01
-179.14
-186.18
-189.50
-188.68
-182.60
-170.21
-151.28
-126.68
-98.06
-67.22
-35.39
-2.97
30.20
64.11
97.82
129.21
155.23
172.92
180.58
178.49
169.03
155.70
141.84
129.52
119.23
110.33
102.13
94.63
88.70
85.46
85.46
88.05
91.52
93.90
94.00
92.23
90.51
91.45
96.94
107.00
119.48
130.85
137.70
138.30
133.22
124.86
116.06
108.77
103.09
97.64
90.48
80.20
66.40
49.56
30.60
10.51
-9.74
-29.11
-46.43
-60.52
-70.62
-76.54
-78.75
-78.14
-75.59
-71.55
-65.81
-57.46
-45.27
-28.36
-6.75
18.18
43.85
67.20
85.61
97.78
103.93
105.25
102.98
97.69
89.13
76.73
60.56
41.89
23.11
7.05
-4.17
-9.83
-10.82
-9.13
-6.95
-5.91
-6.86
-10.20
-16.45
-26.72
-42.51
-64.79
-92.93
-124.05
-153.44
-176.27
-189.75
-194.80
-195.90
-198.93
-207.82
-222.08
-236.54
-243.77
-237.89
-217.60
-186.78
-152.27
-120.34
-93.74
-71.08
-48.49
-22.71
6.54
36.00
60.55
75.97
81.26
79.23
74.95
73.00
75.13
79.42
81.75
78.55
69.08
56.07
44.13
37.03
35.42
36.52
35.73
29.44
17.05
1.36
-13.02
-22.25
-25.29
-24.39
-23.78
-27.40
-36.70
-49.97
-63.21
-72.43
-75.80
-74.72
-73.12
-75.46
-84.36
-99.33
-117.15
-133.53
-145.25
-151.32
-152.78
-151.28
-147.37
-139.75
-125.82
-103.47
-72.87
-37.21
-1.80
28.11
49.59
63.12
71.87
79.53
88.03
96.52
102.10
101.88
95.13
84.05
72.75
65.00
62.10
62.20
61.40
56.03
44.77
29.33
13.42
0.56
-7.97
-13.76
-20.21
-30.33
-44.71
-60.95
-74.81
-82.56
-83.07
-78.43
-72.86
-70.36
-72.71
-78.71
-85.34
-89.86
-91.80
-93.37
-98.22
-108.95
-125.11
-142.65
-155.51
-158.43
-149.56
-131.38
-109.38
-89.19
-73.80
-62.31
-50.99
-35.93
-15.66
7.80
29.96
46.47
55.61
59.34
62.09
68.27
79.70
94.62
108.67
117.33
118.38
113.06
105.14
98.73
95.76
95.02
92.90
85.74
72.14
53.97
35.44
20.77
11.77
6.84
1.84
-7.45
-22.84
-42.57
-62.11
-76.53
-83.13
-82.88
-79.75
-78.63
-82.73
-92.14
-104.14
-115.01
-122.06
-124.84
-124.75
-123.43
-121.19
-116.35
-106.11
-88.30
-62.98
-32.92
-2.61
23.62
43.54
57.66
68.52
78.91
90.04
100.70
107.96
109.00
103.03
92.20
80.79
73.13
71.35
74.38
78.58
79.99
76.53
69.15
61.03
55.62
54.44
56.15
57.30
54.24
45.21
31.22
15.37
1.08
-9.82
-17.96
-25.89
-36.48
-51.10
-68.73
-86.53
-101.48
-112.18
-119.72
-126.97
-136.70
-149.49
-162.83
-171.87
-171.66
-159.63
-136.83
-107.46
-76.70
-48.33
-23.22
0.29
24.69
51.09
78.05
102.02
119.18
127.48
127.91
123.94
119.67
117.67
117.76
117.42
113.63
104.97
92.67
80.10
70.89
66.82
66.91
67.98
66.51
60.69
51.27
41.07
33.15
28.93
27.24
24.90
18.55
6.52
-10.07
-27.97
-43.55
-54.95
-63.19
-71.63
-84.06
-102.33
-124.99
-147.66
-165.00
-173.14
-171.36
-161.90
-148.32
-133.16
-116.51
-96.20
-69.46
-35.20
4.63
45.35
81.40
108.84
126.85
137.74
145.22
152.13
158.92
163.66
163.59
157.15
145.31
131.33
119.10
110.93
106.32
102.19
94.73
81.69
63.78
44.40
27.79
16.69
10.83
7.23
1.93
-7.61
-21.09
-35.59
-47.38
-54.23
-56.88
-58.77
-64.21
-76.06
-94.13
-115.28
-134.92
-149.25
-156.78
-158.57
-156.95
-153.75
-149.02
-140.96
-127.18
-106.32
-79.06
-48.06
-16.57
13.20
40.91
67.80
95.22
123.06
149.08
169.62
181.40
183.33
177.31
167.48
158.30
152.51
149.99
148.10
143.40
133.56
118.71
101.22
84.36
70.40
59.47
49.49
37.66
22.20
3.68
-15.16
-30.77
-40.82
-45.57
-47.68
-50.81
-57.59
-68.25
-80.75
-92.26
-101.09
-107.79
-114.76
-124.55
-137.82
-152.31
-163.46
-166.49
-158.70
-140.84
-116.62
-90.73
-66.42
-44.03
-21.25
5.02
36.34
71.30
105.71
134.52
154.29
164.79
168.97
171.19
174.76
180.26
185.42
186.73
181.76
170.72
156.48
142.90
132.60
125.41
118.53
108.26
92.31
71.26
48.38
27.79
12.18
1.36
-7.45
-17.85
-31.88
-48.78
-65.33
-77.69
-83.75
-84.43
-83.35
-84.99
-92.24
-104.86
-119.46
-131.13
-135.74
-131.78
-120.71
-105.87
-90.42
-75.77
-61.10
-44.35
-24.03
-0.57
23.45
44.50
59.86
69.18
74.44
78.78
84.55
91.90
98.70
101.93
99.61
92.19
82.66
75.02
72.17
74.39
79.10
82.32
80.78
73.61
62.67
51.39
42.68
37.27
33.35
27.67
17.65
2.89
-14.32
-30.30
-41.99
-48.73
-52.66
-57.50
-66.50
-80.54
-97.73
-114.55
-127.83
-136.32
-140.97
-143.74
-145.90
-146.77
-143.90
-134.46
-117.08
-92.83
-64.98
-37.43
-12.87
8.32
27.73
47.54
68.65
89.69
107.32
117.77
118.85
111.35
98.87
86.33
77.69
74.21
74.13
73.89
70.35
62.62
52.49
43.37
38.17
37.56
39.50
40.36
37.07
28.78
17.38
6.23
-1.84
-6.28
-9.16
-13.98
-23.68
-38.89
-57.62
-76.38
-92.21
-104.33
-114.45
-125.51
-139.53
-156.00
-171.66
-181.90
-183.19
-174.89
-159.60
-141.82
-125.65
-112.84
-102.44
-92.00
-79.57
-65.41
-52.13
-43.42
-41.92
-47.77
-58.48
-70.39
-80.94
-90.28
-101.39
-118.36
-143.64
-175.79
-209.20
-235.97
-249.22
-246.28
-229.68
-205.84
-181.80
-161.93
-146.14
-130.41
-109.17
-78.14
-36.40
13.23
65.42
114.29
155.20
185.56
204.71
212.99
210.89
198.67
176.78
146.55
110.71
73.14
37.77
7.20
-18.00
-38.95
-57.03
-72.24
-82.60
-84.79
-76.01
-55.74
-26.55
6.82
39.42
68.11
92.49
114.20
135.18
155.81
174.37
187.77
193.48
191.23
183.45
174.22
167.24
164.05
163.43
162.47
158.41
150.37
139.75
129.21
120.90
115.03
109.75
102.32
90.85
75.61
59.01
44.31
33.83
27.65
23.55
18.21
8.97
-4.76
-21.19
-37.11
-49.61
-57.53
-61.95
-65.49
-70.69
-78.64
-88.31
-97.15
-102.50
-102.94
-98.86
-91.88
-83.62
-74.51
-63.57
-49.03
-29.71
-6.09
19.55
43.94
64.40
79.98
91.82
102.27
113.48
126.05
138.56
148.31
152.74
150.88
143.90
134.50
125.54
118.52
112.93
106.74
97.81
85.33
70.43
55.66
43.54
35.15
29.47
23.99
16.17
4.94
-8.74
-22.39
-33.53
-41.16
-46.39
-51.91
-60.52
-73.52
-89.95
-107.04
-121.58
-131.50
-136.65
-138.48
-138.81
-138.46
-136.58
-131.05
-119.80
-102.08
-79.10
-53.52
-28.11
-4.50
17.40
38.89
61.13
83.86
105.01
121.41
130.22
130.52
123.79
113.30
102.61
93.86
87.07
80.46
71.75
59.69
44.91
29.59
16.33
6.70
0.41
-4.42
-9.99
-17.43
-25.95
-33.13
-36.35
-34.28
-27.86
-19.81
-13.34
-10.34
-10.61
-12.19
-12.87
-11.78
-10.20
-10.99
-17.07
-29.75
-47.91
-68.43
-87.52
-102.38
-112.02
-117.10
-118.82
-117.69
-112.95
-102.94
-86.24
-62.94
-35.04
-5.87
21.27
44.53
64.10
81.64
99.07
117.18
135.00
150.21
160.30
163.88
161.36
154.76
146.65
138.97
132.09
124.95
115.91
103.88
89.18
73.55
59.28
48.07
40.15
34.32
28.80
22.42
15.43
9.39
6.27
7.09
11.13
16.04
18.78
17.08
10.43
0.04
-11.97
-23.87
-35.12
-46.28
-58.08
-70.32
-81.27
-88.11
-88.15
-80.14
-64.98
-45.39
-24.66
-5.27
12.14
28.62
45.97
65.24
85.72
104.88
119.46
127.10
127.59
122.95
116.35
110.33
105.68
101.49
96.54
90.90
86.54
86.54
92.98
105.00
118.30
126.62
124.65
110.68
87.64
61.88
40.46
28.10
25.57
29.91
36.30
40.41
40.11
35.81
29.64
24.03
20.50
19.28
19.59
20.33
20.69
20.42
19.57
18.12
15.40
9.89
-0.57
-17.80
-42.04
-70.98
-99.81
-122.73
-135.24
-136.12
-127.98
-115.77
-104.18
-95.44
-88.70
-81.67
-72.85
-63.14
-55.42
-52.55
-55.09
-60.55
-64.67
-64.03
-58.24
-50.25
-44.64
-44.76
-50.73
-59.36
-66.01
-67.46
-63.72
-58.02
-54.82
-57.15
-64.79
-74.38
-81.47
-83.18
-79.92
-75.23
-73.71
-78.15
-87.78
-98.52
-105.26
-104.95
-98.49
-90.56
-86.94
-91.21
-102.41
-115.24
-122.79
-120.21
-107.32
-88.61
-70.71
-58.65
-53.24
-50.88
-46.00
-34.52
-16.47
3.87
20.36
28.47
27.92
22.77
19.18
21.75
30.97
43.07
52.20
54.00
48.20
38.87
32.04
32.20
39.56
49.74
56.15
53.62
41.34
23.33
6.18
-4.60
-7.63
-6.30
-6.68
-13.80
-28.66
-47.51
-64.03
-72.93
-73.08
-67.94
-63.47
-64.38
-71.38
-80.87
-87.29
-86.76
-79.67
-70.51
-65.23
-67.53
-76.30
-85.96
-89.44
-82.06
-64.23
-41.23
-20.41
-7.21
-2.36
-1.91
0.25
8.56
23.07
39.35
51.02
53.56
47.02
36.17
27.93
27.58
35.76
48.34
58.79
61.98
57.07
47.90
40.60
39.99
46.64
56.52
63.20
61.53
50.56
34.05
18.34
8.64
6.02
6.81
4.71
-5.37
-24.24
-47.66
-68.61
-81.06
-83.34
-78.94
-74.43
-75.60
-84.25
-97.27
-108.61
-112.92
-108.59
-98.49
-88.02
-81.60
-79.89
-79.36
-74.39
-60.79
-38.54
-12.07
11.91
28.09
35.36
37.19
39.39
46.56
59.19
73.35
82.87
83.03
73.48
58.68
45.60
40.08
43.72
53.21
62.44
66.02
62.35
54.29
47.33
46.13
51.67
60.66
67.34
66.86
58.04
44.08
30.68
22.70
21.36
23.43
23.06
15.21
-1.43
-23.49
-44.67
-59.18
-64.95
-64.70
-64.32
-69.40
-81.92
-99.03
-114.68
-122.84
-120.89
-110.66
-97.04
-84.78
-75.60
-67.22
-55.07
-35.33
-7.76
23.64
52.31
72.45
81.82
82.67
80.23
79.58
82.85
88.21
91.18
87.62
76.51
60.97
46.79
39.37
40.77
48.57
57.30
61.54
59.04
51.80
44.78
42.72
47.04
54.81
60.17
57.56
44.93
24.97
3.58
-13.36
-23.20
-27.83
-32.29
-41.54
-57.43
-77.46
-96.44
-109.69
-116.09
-118.69
-122.85
-132.54
-147.62
-163.46
-173.51
-173.06
-162.05
-145.20
-129.34
-119.63
-116.72
-116.50
-112.48
-99.23
-75.17
-43.24
-9.29
20.72
43.18
57.85
67.10
74.06
80.72
87.08
91.57
92.45
89.27
83.43
77.76
75.11
77.01
83.02
91.16
99.14
105.62
110.74
115.72
121.70
128.55
134.46
136.61
132.42
120.94
103.40
82.69
62.07
43.85
28.69
15.80
3.87
-7.94
-19.40
-29.40
-36.56
-40.02
-39.85
-36.90
-32.30
-26.80
-20.56
-13.20
-4.32
6.06
17.40
28.76
39.36
48.87
57.49
65.62
73.48
80.69
86.31
89.16
88.39
83.88
76.46
67.72
59.51
53.28
49.58
47.85
46.71
44.57
40.38
34.06
26.46
18.80
12.02
6.27
0.92
-4.94
-11.94
-20.00
-28.42
-36.35
-43.33
-49.65
-56.12
-63.58
-72.25
-81.65
-90.82
-99.13
-106.73
-114.62
-123.81
-134.42
-144.97
-152.59
-154.20
-147.84
-133.70
-113.98
-91.87
-70.07
-49.83
-30.91
-12.35
6.46
25.07
42.09
55.95
65.71
71.67
75.09
77.51
79.96
82.48
84.23
84.17
81.76
77.35
72.06
67.15
63.24
59.96
56.13
50.46
42.35
32.34
21.91
12.76
5.85
0.89
-3.54
-9.21
-17.28
-27.67
-39.10
-49.69
-57.93
-63.39
-66.89
-70.08
-74.68
-81.79
-91.35
-102.21
-112.51
-120.31
-124.09
-123.10
-117.22
-106.69
-91.82
-72.87
-50.28
-24.97
1.46
27.03
49.82
68.68
83.39
94.54
102.94
109.06
112.92
114.31
113.23
110.19
106.11
101.94
98.21
94.85
91.26
86.64
80.37
72.30
62.77
52.51
42.36
32.94
24.45
16.64
8.93
0.88
-7.62
-16.20
-24.29
-31.46
-37.68
-43.31
-48.78
-54.33
-59.86
-65.23
-70.63
-76.71
-84.24
-93.47
-103.52
-112.28
-117.06
-115.61
-107.08
-92.38
-73.71
-53.61
-34.03
-15.82
1.18
17.48
33.40
48.55
61.99
72.59
79.60
83.07
83.88
83.39
82.76
82.44
82.03
80.57
77.24
71.89
65.16
58.06
51.31
44.83
37.81
29.30
18.91
7.24
-4.31
-14.26
-21.79
-27.19
-31.61
-36.35
-42.25
-49.22
-56.47
-63.00
-68.20
-72.27
-76.11
-80.99
-87.95
-97.20
-107.91
-118.25
-125.93
-128.89
-125.86
-116.70
-102.17
-83.49
-61.84
-38.21
-13.45
11.42
34.94
55.46
71.46
82.13
87.73
89.51
89.24
88.53
88.37
88.89
89.64
89.94
89.34
87.68
84.99
81.27
76.23
69.51
60.89
50.69
39.81
29.51
20.84
14.12
8.78
3.64
-2.45
-9.93
-18.33
-26.53
-33.36
-38.38
-42.03
-45.42
-49.70
-55.52
-62.81
-71.04
-79.49
-87.48
-94.28
-98.89
-100.03
-96.38
-87.13
-72.45
-53.53
-32.30
-10.80
9.40
27.41
43.01
56.27
67.34
76.29
83.05
87.50
89.69
89.89
88.72
87.09
85.87
85.59
86.07
86.48
85.66
82.67
77.26
69.95
61.84
54.00
47.07
40.93
34.93
28.17
20.00
10.31
-0.36
-11.04
-20.77
-29.01
-35.91
-42.14
-48.57
-55.73
-63.65
-72.05
-80.71
-89.70
-99.16
-108.70
-117.00
-121.80
-120.65
-112.02
-96.02
-74.61
-50.74
-27.31
-6.18
12.07
27.85
41.86
54.45
65.41
74.10
79.89
82.63
82.84
81.63
80.22
79.40
79.09
78.44
76.29
71.79
64.91
56.55
48.00
40.35
33.99
28.54
23.21
17.36
10.83
3.92
-2.96
-9.75
-16.92
-25.22
-35.17
-46.59
-58.46
-69.33
-78.07
-84.56
-89.87
-95.80
-104.05
-115.13
-127.85
-139.54
-146.83
-146.92
-138.54
-122.36
-100.56
-75.90
-50.74
-26.51
-3.73
17.47
36.79
53.64
67.29
77.33
84.01
88.13
90.71
92.48
93.62
93.79
92.51
89.52
85.02
79.63
74.13
69.12
64.72
60.53
55.82
49.96
42.74
34.57
26.22
18.37
11.13
3.93
-4.15
-13.77
-24.70
-35.85
-45.69
-53.13
-58.20
-62.15
-66.96
-74.40
-85.26
-98.98
-113.91
-127.85
-138.70
-144.87
-145.51
-140.44
-129.95
-114.73
-95.72
-73.96
-50.52
-26.34
-2.25
21.10
43.11
63.18
80.68
95.01
105.69
112.51
115.59
115.45
112.93
108.98
104.56
100.36
96.65
93.27
89.72
85.33
79.61
72.46
64.16
55.23
46.07
36.71
26.82
15.96
4.00
-8.64
-21.08
-32.42
-42.22
-50.66
-58.43
-66.25
-74.41
-82.76
-90.95
-99.01
-107.50
-117.17
-128.30
-140.02
-150.23
-156.21
-155.63
-147.40
-131.99
-110.90
-85.96
-58.67
-30.02
-0.82
27.87
54.51
77.29
94.64
105.76
110.89
111.31
108.83
105.24
101.82
98.97
96.35
93.21
88.91
83.35
77.06
70.88
65.43
60.71
55.99
50.17
42.31
32.10
19.89
6.43
-7.53
-21.56
-35.52
-49.26
-62.47
-74.64
-85.30
-94.44
-102.76
-111.56
-122.35
-136.15
-152.84
-170.86
-187.37
-198.95
-202.57
-196.55
-180.96
-157.54
-128.98
-97.90
-66.14
-34.45
-2.84
28.76
59.83
88.99
114.40
134.44
148.34
156.53
160.28
161.15
160.31
158.33
155.35
151.50
147.13
142.64
138.12
132.98
126.09
116.19
102.65
85.94
67.54
49.48
33.43
20.13
9.11
-1.00
-11.81
-24.50
-39.31
-55.56
-71.98
-87.44
-101.48
-114.54
-127.69
-142.03
-157.99
-175.11
-192.07
-207.17
-218.72
-225.29
-225.65
-218.73
-203.68
-180.13
-148.56
-110.37
-67.75
-23.18
21.10
63.35
102.35
137.13
166.77
190.35
207.09
216.76
219.87
217.69
212.04
204.69
196.86
188.86
180.19
169.92
157.31
142.33
125.70
108.67
92.39
77.53
64.00
51.16
38.16
24.36
9.49
-6.29
-22.60
-39.04
-55.32
-71.35
-87.23
-103.14
-119.36
-136.15
-153.81
-172.67
-192.96
-214.42
-235.83
-254.65
-267.23
-269.64
-258.91
-234.25
-197.48
-152.43
-103.67
-55.02
-8.70
34.64
75.11
112.63
146.32
174.68
196.27
210.43
217.75
219.79
218.40
214.97
209.99
203.15
193.91
182.17
168.47
153.91
139.59
126.08
113.27
100.62
87.68
74.54
61.86
50.47
40.82
32.53
24.41
14.85
2.55
-12.97
-31.12
-50.60
-70.02
-88.56
-106.40
-124.60
-144.54
-167.12
-191.89
-216.61
-237.57
-250.44
-251.63
-239.39
-214.39
-179.28
-137.73
-93.16
-48.13
-4.27
37.26
75.21
108.15
134.66
153.92
166.00
171.88
173.15
171.43
168.01
163.63
158.60
152.96
146.83
140.46
134.22
128.43
123.07
117.77
111.91
105.02
97.03
88.29
79.30
70.36
61.37
51.85
41.32
29.57
16.71
3.01
-11.38
-26.59
-42.90
-60.52
-79.34
-98.94
-118.64
-137.55
-154.53
-168.06
-176.32
-177.47
-170.21
-154.23
-130.44
-100.87
-68.18
-35.20
-4.38
22.52
44.66
62.15
75.82
86.72
95.50
102.01
105.46
105.02
100.71
93.87
86.77
81.64
79.50
79.57
79.54
76.74
69.45
57.65
42.93
27.65
13.82
2.46
-6.55
-14.04
-20.98
-28.11
-35.79
-44.05
-52.59
-60.78
-67.70
-72.25
-73.63
-71.75
-67.54
-62.74
-59.27
-58.22
-59.19
-60.30
-58.73
-51.83
-37.93
-16.92
9.79
39.66
69.52
96.28
117.48
131.74
138.95
140.06
136.54
129.60
119.73
106.62
89.63
68.48
43.72
16.82
-10.38
-36.41
-60.87
-84.70
-109.87
-138.50
-171.63
-208.34
-245.67
-279.59
-306.49
-324.54
-334.09
-336.89
-334.68
-328.08
-316.36
-298.40
-273.96
-244.40
-212.21
-179.69
-147.71
-115.43
-81.41
-45.30
-9.11
22.85
45.62
55.74
53.06
40.98
25.29
12.05
5.60
7.61
17.31
32.58
51.25
71.85
93.74
116.67
140.19
163.39
184.97
203.66
218.62
229.57
236.69
240.23
240.30
236.82
229.81
219.63
207.17
193.70
180.56
168.69
158.35
149.11
140.13
130.59
120.11
108.86
97.36
86.08
75.06
63.87
51.80
38.40
23.82
8.86
-5.32
-17.75
-28.13
-36.94
-45.29
-54.51
-65.73
-79.51
-95.71
-113.41
-130.94
-146.17
-156.77
-160.75
-156.83
-144.82
-125.68
-101.39
-74.54
-47.76
-23.17
-1.89
15.96
30.99
43.89
54.93
63.76
69.73
72.49
72.44
70.78
69.04
68.34
68.94
70.19
71.00
70.44
68.17
64.49
60.00
55.20
50.12
44.41
37.56
29.26
19.62
9.22
-1.17
-10.92
-19.82
-28.17
-36.69
-46.18
-57.22
-70.00
-84.32
-99.76
-115.89
-132.31
-148.40
-162.99
-174.15
-179.39
-176.34
-163.67
-141.77
-112.79
-80.01
-46.60
-14.67
15.12
43.22
70.32
96.50
120.89
141.93
158.05
168.34
172.82
172.35
168.07
161.07
152.05
141.53
129.91
117.73
105.60
94.07
83.39
73.38
63.53
53.22
42.06
30.12
18.00
6.59
-3.36
-11.58
-18.52
-25.13
-32.46
-41.18
-51.22
-61.86
-72.19
-81.65
-90.41
-99.38
-109.68
-121.90
-135.46
-148.37
-157.73
-160.73
-155.69
-142.71
-123.55
-100.70
-76.29
-51.39
-25.99
0.31
27.52
54.79
80.55
103.13
121.34
134.80
143.74
148.59
149.68
147.17
141.30
132.66
122.31
111.56
101.52
92.72
84.77
76.58
66.86
54.84
40.68
25.59
11.32
-0.58
-9.45
-15.77
-20.78
-25.88
-31.97
-39.15
-46.88
-54.44
-61.41
-67.90
-74.43
-81.67
-90.10
-99.91
-111.00
-123.08
-135.57
-147.47
-157.28
-163.03
-162.73
-154.91
-139.11
-116.08
-87.57
-55.86
-23.21
8.54
38.17
64.96
88.52
108.62
125.01
137.38
145.45
149.08
148.48
144.27
137.43
129.06
120.11
111.17
102.45
93.90
85.49
77.32
69.63
62.62
56.18
49.87
42.96
34.80
25.15
14.33
3.04
-8.03
-18.57
-28.80
-39.25
-50.27
-61.69
-72.71
-82.33
-89.95
-95.79
-100.97
-107.07
-115.27
-125.64
-136.88
-146.51
-151.82
-150.78
-142.73
-128.46
-109.70
-88.29
-65.56
-42.13
-18.12
6.26
30.39
53.24
73.70
91.01
105.03
116.11
124.75
131.20
135.27
136.53
134.65
129.80
122.76
114.67
106.63
99.21
92.23
84.97
76.58
66.62
55.27
43.35
31.91
21.80
13.26
5.97
-0.85
-7.93
-15.66
-23.89
-32.02
-39.36
-45.46
-50.39
-54.71
-59.26
-64.87
-72.16
-81.47
-92.86
-106.02
-120.15
-133.77
-144.71
-150.43
-148.74
-138.60
-120.57
-96.74
-70.07
-43.36
-18.40
4.35
25.47
45.85
65.89
85.00
101.65
114.03
120.74
121.55
117.50
110.53
102.76
95.75
90.08
85.49
81.33
77.12
72.76
68.46
64.30
59.99
54.88
48.32
40.16
30.91
21.54
12.92
5.30
-1.89
-9.71
-19.06
-30.08
-41.98
-53.34
-62.84
-69.89
-74.93
-79.21
-84.25
-91.15
-100.10
-110.33
-120.30
-128.22
-132.57
-132.43
-127.50
-117.97
-104.22
-86.68
-65.86
-42.50
-17.78
6.79
29.62
49.50
65.85
78.77
88.80
96.50
102.19
105.77
106.93
105.43
101.36
95.28
88.07
80.69
73.79
67.50
61.50
55.27
48.44
41.08
33.64
26.70
20.60
15.24
10.20
4.94
-0.90
-7.44
-14.62
-22.46
-31.11
-40.74
-51.33
-62.45
-73.32
-83.15
-91.53
-98.76
-105.77
-113.52
-122.39
-131.58
-139.03
-142.10
-138.52
-127.38
-109.60
-87.60
-64.28
-42.02
-21.85
-3.53
13.92
31.29
48.60
64.95
79.05
89.79
96.82
100.58
102.05
102.15
101.38
99.73
96.89
92.57
86.82
79.99
72.61
65.11
57.62
50.07
42.30
34.33
26.46
19.20
13.00
8.03
3.87
-0.32
-5.54
-12.45
-21.05
-30.58
-39.95
-48.31
-55.53
-62.37
-70.04
-79.65
-91.61
-105.34
-119.47
-132.18
-141.74
-146.76
-146.37
-140.22
-128.45
-111.59
-90.65
-66.89
-41.75
-16.61
7.31
29.06
48.01
63.75
76.15
85.28
91.34
94.67
95.65
94.80
92.65
89.81
86.86
84.18
81.86
79.63
76.95
73.28
68.35
62.34
55.72
48.92
41.95
34.28
25.08
13.77
0.51
-13.69
-27.26
-38.78
-47.55
-53.78
-58.35
-62.26
-66.06
-69.74
-72.85
-74.99
-76.14
-76.76
-77.52
-78.71
-79.77
-79.10
-74.45
-63.75
-46.03
-21.79
7.24
39.06
72.37
106.94
143.09
180.56
217.65
251.24
277.82
295.08
302.85
303.15
298.95
292.71
285.30
276.04
263.61
247.17
227.09
204.91
182.65
161.95
143.58
127.24
111.90
96.12
78.53
58.26
35.20
10.15
-15.51
-40.31
-63.15
-83.64
-101.85
-117.85
-131.40
-141.98
-149.39
-154.32
-158.47
-163.93
-172.04
-182.49
-193.47
-202.47
-207.74
-209.00
-207.15
-203.03
-196.18
-184.48
-165.16
-136.51
-99.47
-57.78
-16.66
19.30
47.90
69.86
87.76
104.14
119.99
134.24
144.58
148.93
146.56
138.26
125.54
109.58
90.21
65.88
34.49
-4.92
-50.52
-96.95
-136.41
-161.07
-166.34
-153.00
-127.28
-98.59
-75.76
-63.94
-63.63
-72.16
-86.66
-106.19
-131.66
-163.68
-200.15
-235.32
-261.64
-273.06
-268.23
-251.06
-228.81
-208.61
-194.38
-186.11
-181.46
-178.24
-176.15
-176.89
-182.37
-192.82
-205.68
-215.99
-218.13
-207.66
-182.90
-145.18
-98.21
-46.75
4.69
53.04
96.93
136.26
171.17
201.01
224.28
239.32
245.59
244.55
239.14
232.63
226.53
219.82
209.48
192.34
167.27
136.24
103.62
74.21
51.07
34.43
22.15
11.38
0.24
-11.24
-21.46
-28.48
-31.48
-31.51
-31.25
-33.85
-41.49
-54.39
-70.94
-88.57
-105.20
-119.85
-132.49
-143.08
-150.49
-152.30
-145.61
-128.58
-101.66
-67.84
-31.54
3.14
34.02
61.19
86.14
110.09
132.65
151.57
163.79
167.13
161.65
149.94
136.09
123.98
115.62
110.62
106.84
101.81
94.13
84.10
73.31
63.61
55.93
49.92
44.26
37.72
29.96
21.89
15.15
11.16
10.26
11.39
12.43
11.06
5.43
-5.63
-22.86
-47.03
-78.86
-118.43
-164.27
-212.72
-258.40
-295.47
-319.49
-328.73
-324.56
-310.52
-290.82
-268.84
-246.39
-223.74
-200.31
-175.48
-149.07
-121.55
-93.83
-66.99
-41.89
-18.92
2.00
21.20
38.87
54.82
68.50
79.36
87.27
92.75
96.89
100.77
104.94
109.06
112.11
112.94
110.97
106.57
100.98
95.68
91.66
88.99
86.81
83.87
79.18
72.54
64.56
56.25
48.44
41.39
34.69
27.57
19.38
9.95
-0.41
-11.19
-22.02
-32.80
-43.46
-53.45
-61.41
-65.16
-62.36
-51.39
-32.11
-6.05
24.11
55.39
85.42
112.75
136.65
156.56
171.64
180.73
182.80
177.66
166.35
151.17
135.07
120.75
109.84
102.52
97.83
94.46
91.59
89.25
88.18
88.95
91.25
93.63
93.97
90.54
82.83
71.81
59.13
46.00
32.23
16.23
-4.03
-29.67
-59.87
-91.83
-121.64
-145.61
-161.27
-167.85
-166.04
-157.56
-144.75
-130.14
-116.12
-104.49
-96.07
-90.52
-86.41
-81.83
-74.91
-64.35
-49.66
-31.17
-9.96
12.39
34.13
53.68
70.11
83.31
93.85
102.50
109.75
115.53
119.28
120.48
118.99
115.31
110.42
105.34
100.72
96.58
92.45
87.72
81.95
75.09
67.48
59.61
51.83
44.19
36.41
28.11
19.07
9.52
0.10
-8.46
-15.70
-21.79
-27.51
-33.91
-41.76
-51.12
-61.35
-71.45
-80.75
-89.25
-97.61
-106.47
-115.76
-124.24
-129.67
-129.66
-122.65
-108.55
-88.73
-65.39
-40.67
-16.04
7.73
30.13
50.37
67.07
78.61
83.85
82.79
76.86
68.59
60.64
54.84
51.56
49.89
48.25
45.37
40.94
35.60
30.49
26.35
23.13
19.96
15.72
9.74
2.29
-5.53
-12.41
-17.54
-21.03
-23.74
-26.76
-30.69
-35.46
-40.51
-45.35
-50.14
-55.73
-63.41
-74.15
-88.10
-104.21
-120.47
-134.37
-143.63
-146.72
-143.10
-133.21
-118.15
-99.25
-77.79
-54.82
-31.23
-7.82
14.63
35.43
54.18
70.80
85.32
97.68
107.44
113.77
115.75
112.91
105.66
95.41
84.19
74.00
66.06
60.42
56.12
51.80
46.43
39.77
32.42
25.32
19.13
13.83
8.73
2.89
-4.26
-12.53
-20.91
-28.09
-33.03
-35.53
-36.39
-37.13
-39.40
-44.35
-52.34
-62.95
-75.37
-88.78
-102.49
-115.78
-127.58
-136.33
-140.18
-137.59
-127.93
-111.93
-91.50
-69.04
-46.65
-25.38
-5.23
14.43
34.08
53.34
70.85
84.78
93.60
96.84
95.33
90.78
85.04
79.32
74.01
68.88
63.69
58.58
54.05
50.70
48.63
47.27
45.54
42.42
37.50
31.27
24.94
19.77
16.41
14.38
12.15
7.78
-0.16
-11.89
-26.22
-41.02
-54.25
-64.74
-72.70
-79.39
-86.36
-94.63
-104.16
-113.88
-122.15
-127.40
-128.53
-125.03
-116.81
-103.94
-86.65
-65.38
-41.13
-15.43
9.70
32.32
51.04
65.41
75.95
83.66
89.50
93.87
96.61
97.28
95.66
92.12
87.59
83.22
79.84
77.72
76.50
75.51
74.21
72.38
70.09
67.42
64.14
59.67
53.21
44.15
32.41
18.57
3.77
-10.72
-23.89
-35.22
-44.77
-52.95
-60.24
-66.94
-73.19
-79.06
-84.78
-90.79
-97.44
-104.60
-111.28
-115.62
-115.48
-109.32
-96.96
-79.82
-60.38
-41.21
-23.93
-8.76
5.21
19.17
33.79
48.65
62.50
73.84
81.68
85.96
87.54
87.72
87.65
87.87
88.21
88.04
86.67
83.69
79.09
73.13
66.03
57.88
48.65
38.43
27.72
17.41
8.54
1.86
-2.64
-5.86
-9.27
-14.28
-21.62
-30.93
-40.94
-50.05
-57.14
-62.17
-66.26
-71.29
-79.06
-90.46
-104.97
-120.60
-134.50
-143.81
-146.52
-142.03
-131.04
-115.13
-95.98
-74.90
-52.59
-29.34
-5.49
18.41
41.43
62.51
80.59
94.90
104.91
110.41
111.50
108.65
102.79
95.18
87.27
80.24
74.77
70.83
67.74
64.58
60.52
55.30
49.33
43.52
38.83
35.75
33.95
32.34
29.54
24.47
16.78
6.91
-4.20
-15.55
-26.46
-36.70
-46.33
-55.48
-64.28
-72.90
-81.74
-91.34
-102.25
-114.44
-126.82
-137.20
-142.69
-140.69
-130.05
-111.62
-88.16
-63.26
-40.03
-19.98
-2.79
13.09
29.32
46.68
64.57
81.39
95.25
104.81
109.80
110.93
109.47
106.70
103.49
100.23
97.06
94.10
91.62
89.84
88.63
87.27
84.56
79.25
70.75
59.46
46.79
34.54
24.11
15.84
8.96
2.02
-6.28
-16.41
-27.80
-39.16
-49.11
-56.87
-62.50
-66.90
-71.25
-76.56
-83.36
-91.61
-100.84
-110.29
-118.93
-125.47
-128.41
-126.33
-118.21
-103.92
-84.36
-61.33
-37.02
-13.39
8.39
28.07
46.13
63.20
79.55
94.81
108.03
118.05
124.03
125.86
124.21
120.29
115.34
110.28
105.49
100.91
96.35
91.72
87.14
82.82
78.90
75.29
71.71
67.93
63.91
60.00
56.78
54.76
54.04
54.19
54.42
53.88
52.17
49.48
46.51
44.11
42.79
42.47
42.52
42.23
41.33
40.57
41.81
47.58
60.25
80.85
108.33
139.52
170.05
195.87
214.55
225.72
230.56
230.59
226.63
218.53
205.74
188.29
167.50
145.86
126.18
110.41
98.96
90.78
84.14
77.68
71.03
64.83
60.22
58.01
58.27
60.23
62.75
64.90
66.41
67.57
68.92
70.73
72.68
73.93
73.49
70.68
65.42
58.32
50.24
41.94
33.65
24.96
15.10
3.30
-10.74
-26.69
-43.73
-60.92
-77.63
-93.75
-109.82
-126.78
-145.75
-167.72
-193.13
-221.44
-250.81
-278.14
-299.71
-312.22
-313.91
-305.17
-288.37
-266.99
-244.58
-223.80
-206.17
-192.20
-181.79
-174.50
-169.69
-166.56
-164.23
-161.86
-158.84
-154.81
-149.72
-143.81
-137.71
-132.28
-128.43
-126.56
-126.31
-126.39
-125.18
-121.43
-115.05
-107.21
-99.85
-94.74
-92.58
-92.73
-93.61
-93.66
-92.13
-89.58
-87.50
-87.73
-91.60
-99.43
-110.44
-122.91
-134.64
-143.42
-147.53
-146.01
-138.79
-126.55
-110.41
-91.63
-71.30
-50.26
-29.07
-8.02
12.86
33.74
54.81
75.95
96.32
114.34
128.02
135.73
136.87
132.25
123.74
113.48
103.13
93.36
84.03
74.68
65.08
55.48
46.43
38.49
31.86
26.37
21.58
17.10
12.72
8.47
4.55
1.15
-1.81
-4.71
-8.23
-13.08
-19.66
-27.82
-36.80
-45.66
-53.74
-61.14
-68.77
-77.79
-88.87
-101.54
-114.01
-123.79
-128.64
-127.36
-120.17
-108.30
-93.09
-75.36
-55.17
-32.20
-6.49
20.99
48.27
72.82
92.42
105.89
113.42
116.25
116.07
114.27
111.57
108.02
103.42
97.71
91.27
84.74
78.62
72.92
67.13
60.48
52.51
43.50
34.45
26.72
21.28
18.28
16.84
15.42
12.52
7.30
-0.06
-8.62
-17.19
-25.06
-32.32
-39.75
-48.22
-58.19
-69.40
-81.07
-92.38
-102.94
-112.73
-121.73
-129.42
-134.60
-135.77
-131.76
-122.39
-108.51
-91.60
-72.96
-53.22
-32.20
-9.41
15.22
40.85
65.75
87.75
104.99
116.42
122.11
122.99
120.42
115.69
109.67
102.74
94.98
86.47
77.43
68.40
60.02
52.81
47.00
42.41
38.60
35.12
31.69
28.32
25.07
21.88
18.31
13.66
7.19
-1.42
-11.77
-22.83
-33.37
-42.63
-50.70
-58.58
-67.68
-79.07
-92.86
-107.98
-122.40
-133.95
-140.90
-142.55
-139.07
-131.11
-119.18
-103.30
-83.05
-58.06
-28.55
4.24
38.01
69.96
97.31
117.99
130.97
136.31
135.04
128.93
120.21
111.13
103.51
98.31
95.36
93.54
91.15
86.56
78.82
68.05
55.32
42.26
30.42
20.68
12.99
6.44
-0.30
-8.35
-18.27
-29.75
-41.93
-53.80
-64.68
-74.50
-83.62
-92.52
-101.40
-110.06
-118.19
-125.84
-133.74
-143.14
-155.12
-169.76
-185.51
-199.32
-207.57
-207.22
-196.84
-176.90
-149.33
-116.66
-81.21
-44.68
-8.22
27.18
60.34
89.85
114.37
133.02
145.85
153.72
158.03
159.99
160.12
158.20
153.67
146.31
136.70
126.24
116.48
108.43
102.05
96.37
90.09
82.36
73.12
63.04
52.89
43.05
33.21
22.63
10.61
-3.01
-17.69
-32.40
-46.08
-58.12
-68.67
-78.48
-88.54
-99.77
-112.61
-127.07
-142.82
-159.26
-175.50
-190.17
-201.36
-206.70
-204.09
-192.18
-170.99
-141.92
-107.30
-69.72
-31.34
6.44
42.87
77.44
109.52
137.96
161.34
178.36
188.45
192.15
191.08
187.36
182.72
178.00
172.93
166.64
158.42
148.24
136.80
125.11
113.86
103.04
92.13
80.57
68.22
55.63
43.70
33.16
24.04
15.50
6.14
-5.34
-19.52
-35.89
-53.09
-69.51
-84.09
-96.87
-108.99
-122.18
-137.94
-156.65
-177.03
-196.12
-209.98
-214.72
-207.70
-188.28
-157.93
-119.66
-77.00
-33.19
9.40
49.09
84.58
114.64
138.20
154.71
164.55
169.09
170.23
169.63
168.08
165.38
160.74
153.52
143.94
133.20
123.09
115.20
110.30
108.05
107.27
106.54
104.69
101.03
95.27
87.25
76.80
63.79
48.35
31.09
13.04
-4.58
-20.86
-35.51
-48.88
-61.59
-74.07
-86.22
-97.56
-107.69
-116.74
-125.37
-134.27
-143.34
-151.08
-154.80
-151.62
-139.68
-119.00
-91.54
-60.18
-27.66
4.24
34.65
62.92
87.91
107.79
120.50
124.75
120.77
110.46
96.86
83.04
71.14
61.91
54.95
49.45
44.91
41.56
40.19
41.55
45.73
51.89
58.22
62.49
62.54
56.86
44.89
27.15
5.11
-19.08
-43.16
-65.24
-84.22
-100.01
-113.42
-125.82
-138.67
-153.01
-169.34
-187.44
-206.44
-224.77
-240.18
-249.98
-251.35
-242.20
-221.89
-191.77
-154.98
-115.58
-77.23
-42.14
-10.81
17.45
43.44
67.23
88.02
104.62
116.18
122.58
124.29
121.76
115.07
103.97
88.44
69.50
49.43
31.42
18.55
12.63
13.52
19.20
26.58
32.75
36.04
36.36
34.95
33.49
33.14
34.04
35.31
35.65
34.02
30.12
24.43
17.78
10.85
3.71
-4.03
-12.99
-23.49
-35.32
-47.82
-60.18
-71.87
-82.73
-92.68
-101.25
-107.25
-108.82
-103.99
-91.54
-71.64
-45.99
-17.23
11.96
39.71
65.22
88.46
109.49
127.90
142.74
152.89
157.76
157.71
154.07
148.65
143.06
138.04
133.42
128.43
122.40
115.25
107.53
100.05
93.29
86.95
79.94
71.00
59.30
45.07
29.55
14.48
1.36
-9.20
-17.56
-24.80
-31.95
-39.54
-47.36
-54.78
-61.22
-66.71
-72.04
-78.48
-87.15
-98.28
-110.78
-122.39
-130.34
-132.25
-126.96
-114.73
-96.91
-75.22
-51.21
-25.99
-0.45
24.32
46.81
65.36
78.64
86.22
88.82
88.09
85.95
83.94
82.80
82.45
82.45
82.35
82.08
81.85
81.87
82.04
81.85
80.50
77.32
72.14
65.32
57.68
50.02
42.73
35.60
27.92
18.84
7.82
-5.00
-18.81
-32.36
-44.51
-54.75
-63.35
-71.15
-79.18
-88.11
-98.03
-108.45
-118.49
-127.09
-133.11
-135.32
-132.54
-123.84
-108.96
-88.58
-64.34
-38.49
-13.31
9.48
29.01
45.16
58.26
68.69
76.68
82.29
85.67
87.18
87.62
87.97
89.14
91.56
94.94
98.31
100.32
99.74
95.95
89.22
80.53
71.22
62.29
54.09
46.24
37.90
28.31
17.16
4.70
-8.43
-21.53
-34.07
-45.74
-56.27
-65.37
-72.74
-78.28
-82.44
-86.36
-91.59
-99.57
-110.85
-124.58
-138.55
-149.73
-155.38
-153.88
-145.22
-130.77
-112.53
-92.28
-71.05
-49.12
-26.38
-3.01
20.31
42.40
62.11
78.80
92.64
104.32
114.58
123.64
130.99
135.83
137.68
136.92
134.95
133.57
134.13
136.81
140.49
143.32
143.73
141.27
136.69
131.53
127.23
124.33
122.32
120.01
116.21
110.25
102.12
92.21
80.87
68.20
54.13
38.64
22.02
4.81
-12.35
-28.98
-44.71
-58.88
-70.17
-76.35
-74.81
-63.44
-41.90
-12.29
20.94
51.99
75.44
87.84
88.88
81.53
71.15
63.92
65.09
77.50
101.01
132.87
168.74
204.05
234.98
258.90
274.36
280.78
278.22
267.44
249.87
227.57
202.80
177.56
153.11
129.93
107.76
86.01
64.09
41.54
18.09
-6.43
-32.14
-59.37
-88.71
-120.90
-156.29
-194.03
-231.62
-265.27
-291.18
-307.31
-314.65
-317.02
-319.35
-325.23
-334.93
-345.28
-351.23
-348.61
-336.17
-316.08
-292.51
-269.39
-248.66
-229.88
-211.24
-191.14
-169.00
-145.09
-119.45
-91.13
-58.50
-20.75
20.56
60.89
94.02
114.59
120.62
114.64
102.58
91.08
84.48
83.14
83.67
80.90
70.51
51.08
24.64
-4.48
-31.58
-53.62
-70.13
-82.60
-92.87
-101.52
-107.22
-107.63
-101.06
-88.01
-71.48
-55.80
-44.67
-39.53
-39.18
-40.71
-41.19
-39.04
-34.47
-28.99
-24.43
-22.02
-21.84
-23.00
-24.15
-24.05
-22.11
-18.35
-13.18
-6.86
0.97
11.25
25.21
43.69
66.42
91.59
115.93
135.48
146.87
148.65
141.92
129.80
116.18
103.95
94.08
85.85
78.23
71.23
66.29
65.16
68.18
73.03
75.03
69.05
51.85
23.67
-12.16
-50.87
-88.52
-123.26
-155.30
-185.75
-215.10
-242.50
-265.86
-282.72
-291.09
-289.97
-279.19
-259.11
-230.38
-193.84
-150.72
-102.81
-52.29
-1.53
47.17
91.82
131.03
164.48
193.13
218.87
243.42
267.09
288.07
303.02
308.89
304.73
292.40
275.46
257.13
238.56
218.73
195.89
169.59
141.70
115.81
95.31
81.59
73.53
68.42
63.58
57.46
49.96
41.75
33.24
24.28
14.44
3.93
-5.79
-12.20
-12.91
-7.30
2.48
11.73
14.97
8.29
-8.84
-33.38
-60.21
-84.31
-102.72
-114.96
-122.29
-126.15
-126.94
-123.88
-115.77
-102.14
-84.27
-65.00
-47.81
-35.26
-27.66
-22.97
-17.83
-9.55
2.17
14.83
24.39
27.56
23.85
16.03
8.75
6.03
8.96
15.12
19.88
18.99
10.97
-2.08
-15.64
-25.25
-28.87
-27.88
-26.18
-27.84
-34.84
-45.96
-57.71
-66.42
-70.43
-70.95
-71.16
-74.09
-80.60
-88.74
-94.94
-96.24
-92.28
-85.71
-80.73
-80.53
-85.14
-91.12
-93.23
-87.18
-72.05
-50.84
-29.07
-11.92
-1.87
2.29
4.27
7.92
14.94
24.04
31.83
34.97
32.16
24.87
16.31
9.44
5.02
1.20
-5.37
-17.16
-33.86
-52.04
-66.61
-73.40
-71.39
-63.21
-53.79
-47.91
-47.98
-53.34
-61.29
-69.29
-76.80
-85.80
-99.65
-120.87
-149.20
-181.29
-212.20
-237.92
-257.51
-273.45
-289.99
-310.60
-335.89
-363.37
-388.87
-408.83
-421.76
-428.19
-429.47
-426.34
-418.30
-404.19
-383.25
-355.95
-324.03
-289.75
-255.05
-220.98
-187.76
-155.24
-123.20
-91.51
-60.10
-28.85
2.45
33.85
65.10
95.67
124.91
152.28
177.66
201.29
223.62
245.09
266.06
286.97
308.40
330.81
353.88
375.94
393.73
403.28
401.35
386.93
361.90
330.26
296.52
263.88
233.47
204.86
177.33
151.04
127.20
107.21
91.44
78.44
65.40
49.53
29.69
7.22
-14.31
-30.86
-39.66
-40.53
-35.61
-28.00
-19.89
-11.39
-0.77
14.17
34.28
58.08
82.11
102.51
116.88
125.36
130.23
134.51
140.12
146.86
152.60
154.58
150.99
142.01
129.65
116.61
104.88
94.71
84.79
73.14
58.54
41.36
23.40
6.92
-6.62
-17.37
-26.75
-36.41
-46.90
-57.12
-64.74
-67.57
-64.94
-58.27
-50.57
-45.01
-43.48
-46.02
-51.15
-57.00
-62.37
-67.16
-71.87
-76.69
-80.75
-82.06
-78.25
-67.76
-50.69
-29.03
-5.99
15.22
32.48
45.34
54.74
62.04
68.19
73.13
76.09
76.37
74.17
70.99
69.20
71.10
77.75
88.36
100.52
111.16
117.85
119.73
117.62
113.31
108.33
103.04
96.35
86.47
72.05
53.09
31.27
9.12
-11.10
-28.39
-43.13
-56.43
-69.08
-80.75
-90.16
-95.86
-97.36
-95.69
-93.14
-92.21
-94.46
-99.78
-106.60
-112.70
-116.26
-116.49
-113.57
-108.03
-99.98
-88.79
-73.37
-53.14
-28.86
-3.01
20.75
38.90
49.52
53.09
52.24
50.39
50.18
52.27
55.52
58.02
58.54
57.44
56.54
57.94
62.75
70.33
78.54
84.85
87.63
86.84
83.83
80.46
77.99
76.49
74.90
71.76
66.16
58.31
49.37
40.81
33.32
26.39
18.33
7.29
-7.62
-25.44
-43.38
-57.84
-65.93
-66.83
-62.09
-54.88
-48.34
-44.15
-42.00
-40.22
-37.16
-32.19
-25.88
-18.91
-10.70
1.02
19.32
45.81
78.66
112.03
137.83
149.05
142.96
122.57
95.31
69.95
53.01
46.65
48.79
54.99
60.99
64.43
65.11
64.03
62.16
59.43
54.97
47.80
37.79
25.96
13.99
3.22
-6.31
-16.12
-28.62
-45.89
-68.55
-95.28
-123.27
-149.30
-170.76
-186.35
-195.91
-199.84
-198.40
-191.23
-177.52
-156.56
-128.49
-94.84
-58.44
-22.70
9.46
36.58
58.93
77.96
95.27
111.45
125.85
137.00
143.63
145.54
143.83
140.25
136.34
132.61
128.41
122.54
114.15
103.46
91.79
81.03
72.59
66.66
61.98
56.49
48.38
37.12
23.74
10.38
-0.93
-9.38
-15.82
-22.20
-30.48
-41.34
-53.87
-66.05
-75.98
-82.99
-88.03
-92.96
-99.34
-107.36
-115.41
-120.81
-121.00
-114.72
-102.51
-86.31
-68.41
-50.45
-32.83
-15.03
3.54
22.61
40.66
55.29
64.35
67.04
64.59
59.87
56.17
55.75
58.91
64.03
68.68
70.94
70.38
68.03
65.55
64.06
63.43
62.40
59.46
53.81
45.83
36.81
28.05
19.88
11.46
1.20
-12.12
-28.42
-46.09
-62.53
-75.35
-83.47
-87.51
-89.41
-91.33
-94.57
-98.92
-102.91
-104.63
-102.78
-97.15
-88.59
-78.21
-66.63
-53.51
-37.94
-19.28
1.89
23.48
42.37
55.66
61.98
62.12
58.65
54.72
52.69
53.19
55.25
57.20
57.83
57.15
56.25
56.48
58.30
60.74
61.66
58.90
51.63
41.09
30.26
22.40
19.33
20.27
21.92
19.98
11.12
-5.32
-27.01
-49.84
-69.82
-84.77
-94.81
-101.59
-106.71
-110.55
-112.14
-110.11
-104.14
-95.77
-88.05
-84.04
-85.05
-89.64
-94.07
-93.86
-85.93
-69.95
-48.39
-25.33
-4.63
11.54
23.22
31.88
39.19
45.80
51.07
53.78
53.29
50.53
47.94
48.41
53.68
63.19
74.11
82.61
85.78
82.98
76.06
68.19
62.05
58.42
55.95
52.26
45.40
35.02
22.44
9.69
-1.84
-12.24
-22.91
-35.45
-50.36
-66.25
-80.16
-88.93
-90.86
-86.75
-79.75
-74.03
-72.87
-77.16
-85.17
-93.53
-98.96
-99.72
-96.04
-89.44
-81.42
-72.46
-61.92
-48.87
-33.22
-16.34
-0.80
10.86
17.44
19.84
20.71
23.23
29.57
39.86
52.18
63.62
71.71
75.61
76.37
76.12
76.78
78.84
81.07
81.14
76.91
67.60
54.25
39.20
24.85
12.49
1.72
-9.00
-21.22
-35.19
-49.45
-61.49
-69.12
-71.94
-71.67
-71.30
-73.43
-78.81
-86.06
-92.80
-97.43
-100.37
-103.95
-110.95
-122.60
-137.50
-151.90
-161.48
-163.43
-157.74
-146.99
-134.85
-124.07
-115.22
-106.65
-95.58
-79.69
-58.40
-33.15
-6.69
18.15
39.58
57.28
72.03
84.85
96.09
105.19
111.09
112.97
111.04
106.65
101.75
97.98
95.74
94.10
91.34
85.99
77.77
67.72
57.58
48.73
41.23
33.73
24.33
11.82
-3.20
-18.32
-30.35
-36.86
-37.51
-34.34
-30.76
-29.98
-33.60
-41.18
-50.86
-60.59
-69.23
-76.83
-84.07
-91.29
-97.70
-101.34
-99.81
-91.41
-76.01
-55.26
-31.83
-8.38
13.60
34.07
53.97
74.24
94.87
114.54
131.14
142.72
148.48
149.03
146.08
141.44
136.25
130.46
123.21
113.51
101.08
86.67
71.84
58.23
46.81
37.42
29.17
21.09
12.97
5.66
0.66
-0.80
1.38
5.80
9.99
11.38
8.28
0.41
-11.33
-25.57
-41.35
-58.52
-77.50
-98.56
-120.97
-142.69
-160.73
-172.10
-174.91
-168.93
-155.53
-136.70
-114.16
-88.74
-60.66
-30.24
1.36
31.90
58.59
79.13
92.66
100.01
103.30
104.83
106.02
106.95
106.54
103.50
97.25
88.45
78.88
70.55
64.82
61.71
60.10
58.41
55.61
51.68
47.46
43.88
41.18
38.52
34.35
27.31
17.09
4.72
-7.84
-18.70
-26.97
-33.24
-39.13
-46.51
-56.41
-68.53
-81.40
-93.13
-102.34
-108.70
-112.73
-115.15
-115.93
-114.02
-107.65
-95.29
-76.62
-52.91
-26.61
-0.31
24.26
46.72
67.67
87.86
107.30
125.09
139.74
150.09
156.02
158.66
159.94
161.75
165.10
169.69
174.22
177.11
177.46
175.41
172.06
168.66
165.86
163.17
159.14
152.04
140.55
124.28
103.59
79.34
52.49
24.12
-4.56
-32.20
-57.45
-79.51
-98.37
-114.86
-130.25
-145.97
-163.27
-183.18
-206.04
-230.90
-254.92
-273.55
-281.80
-276.20
-256.50
-225.78
-188.91
-150.11
-111.12
-71.32
-29.51
13.75
55.17
89.70
113.18
124.69
127.26
126.33
126.84
130.88
137.05
141.78
141.93
136.83
128.82
121.94
119.53
122.30
127.77
131.60
130.01
121.91
109.52
97.10
88.74
86.18
88.19
91.72
93.86
93.39
90.87
87.49
83.62
78.29
69.76
57.10
41.40
25.49
12.41
3.33
-3.92
-14.60
-35.02
-69.27
-116.50
-169.98
-218.84
-251.85
-261.72
-247.76
-215.70
-174.81
-133.79
-97.47
-65.95
-36.06
-3.76
33.76
77.35
126.14
177.95
229.37
275.66
311.05
330.10
329.63
310.06
275.55
232.66
188.02
146.39
109.86
78.44
51.31
27.93
8.26
-7.60
-20.26
-31.43
-43.70
-59.82
-82.21
-112.57
-151.74
-199.25
-252.50
-306.08
-352.09
-381.79
-388.54
-370.30
-330.50
-276.65
-216.94
-156.77
-96.85
-34.23
34.36
108.60
182.62
246.07
287.87
300.84
284.76
246.29
195.91
143.77
96.02
53.85
14.86
-24.39
-66.47
-112.57
-163.21
-218.69
-278.43
-339.50
-395.62
-438.07
-458.66
-453.19
-424.04
-379.94
-332.87
-293.67
-268.26
-256.27
-252.51
-250.17
-244.04
-232.14
-215.40
-195.94
-175.31
-153.77
-130.71
-105.78
-80.03
-55.88
-36.18
-22.82
-15.63
-12.54
-10.63
-7.50
-2.36
4.06
10.29
15.29
19.26
23.85
31.57
45.01
65.91
94.51
129.27
167.04
203.63
234.74
257.05
268.95
270.84
264.82
253.73
240.33
226.89
215.25
207.00
203.40
204.40
207.75
208.71
201.27
180.62
145.75
100.36
51.54
6.60
-30.10
-58.62
-82.29
-104.98
-128.58
-152.31
-173.94
-191.94
-206.68
-219.97
-233.20
-245.72
-254.68
-256.47
-249.01
-233.21
-212.64
-191.80
-173.85
-159.11
-145.28
-128.91
-107.34
-80.12
-49.12
-17.53
11.66
36.88
58.41
77.72
96.22
114.20
130.41
142.71
149.23
149.64
145.55
139.95
135.83
134.83
136.61
139.26
140.49
138.95
134.96
130.21
126.75
125.72
126.70
127.87
126.96
122.47
114.47
104.50
94.80
87.06
81.61
77.31
72.27
65.03
55.46
44.87
35.37
28.50
24.37
21.59
18.26
13.54
8.72
7.12
12.76
28.36
53.84
86.19
120.74
153.08
180.66
203.09
221.23
235.74
246.01
250.33
246.96
235.66
218.51
199.43
182.60
170.54
162.88
156.56
147.32
131.73
108.61
79.17
45.93
11.07
-24.64
-61.72
-100.93
-141.79
-181.98
-217.92
-246.50
-266.91
-281.54
-295.20
-312.78
-336.40
-363.57
-387.49
-399.63
-393.57
-368.18
-328.65
-284.55
-245.92
-219.14
-204.58
-197.13
-189.19
-174.37
-150.22
-118.58
-83.85
-50.14
-19.20
9.92
39.49
70.85
102.97
132.44
155.29
169.26
175.34
177.47
180.67
188.49
201.32
216.53
230.13
239.09
242.80
242.94
241.94
241.11
239.63
235.03
224.72
207.67
185.13
159.92
134.98
111.83
90.11
68.26
44.88
19.91
-5.16
-28.21
-47.94
-64.97
-81.97
-102.41
-128.74
-160.61
-194.42
-224.16
-243.68
-249.00
-239.85
-219.54
-193.37
-166.23
-140.93
-117.65
-95.06
-71.92
-48.42
-26.26
-7.67
6.20
16.07
24.28
33.45
44.88
57.85
70.01
78.90
83.46
84.70
85.08
87.01
91.24
96.33
99.35
97.53
89.94
78.06
65.12
54.25
46.94
42.24
37.47
29.95
18.52
4.27
-10.12
-22.02
-30.46
-36.87
-44.43
-56.50
-74.70
-97.86
-122.19
-142.66
-154.95
-156.93
-149.08
-133.72
-113.60
-90.63
-65.45
-38.04
-8.74
21.00
48.68
71.70
88.57
99.62
106.79
112.52
118.40
124.48
129.32
131.15
129.08
123.82
117.45
112.27
109.39
108.02
105.77
99.99
89.35
74.79
59.14
45.57
35.91
29.50
23.59
14.92
1.57
-15.98
-35.03
-52.24
-65.39
-74.52
-81.70
-89.76
-100.65
-114.50
-129.62
-143.45
-153.71
-159.06
-159.06
-153.53
-141.93
-123.27
-96.69
-62.32
-22.11
20.26
60.27
94.05
119.80
138.32
152.45
165.42
179.00
192.45
202.74
206.17
200.38
185.78
165.56
144.20
125.36
110.24
97.38
83.89
67.47
48.05
28.02
11.06
0.13
-4.17
-4.06
-3.37
-5.70
-12.68
-23.48
-35.66
-46.91
-56.45
-65.13
-74.62
-85.80
-98.43
-111.72
-126.00
-144.10
-170.98
-211.22
-265.54
-328.46
-388.02
-429.82
-442.39
-422.20
-375.80
-317.47
-263.71
-226.76
-210.54
-209.32
-212.01
-206.99
-186.35
-147.73
-93.60
-29.35
38.19
100.90
151.00
180.51
183.82
160.62
117.54
67.16
24.20
0.50
0.53
22.45
58.36
99.06
137.82
172.39
204.46
237.37
277.03
316.97
353.17
379.02
388.88
380.51
356.07
321.31
283.26
247.90
218.13
195.81
180.75
172.46
170.48
173.81
180.33
186.74
189.41
185.24
174.03
156.84
135.59
111.95
86.43
58.33
26.59
-9.16
-48.21
-87.75
-124.68
-156.48
-182.22
-203.09
-222.42
-244.93
-275.17
-315.66
-364.48
-415.10
-457.42
-481.08
-479.20
-451.11
-402.46
-342.59
-280.72
-222.48
-168.91
-117.41
-64.05
-5.94
57.15
122.16
183.29
233.43
266.32
278.85
272.41
252.48
226.44
200.91
179.67
163.43
150.79
139.56
127.51
112.64
93.45
69.85
44.35
21.99
9.06
9.82
23.80
45.10
64.27
71.90
62.10
34.29
-7.27
-55.77
-104.28
-147.78
-184.01
-213.20
-237.34
-259.39
-282.44
-308.92
-339.60
-372.76
-403.83
-426.10
-432.50
-418.01
-381.76
-327.60
-262.82
-195.22
-130.41
-70.68
-16.00
33.41
75.38
105.70
120.15
117.16
99.43
73.39
46.81
25.90
13.57
9.14
10.04
14.03
20.54
30.72
46.37
68.48
96.30
127.75
160.35
192.18
222.09
248.83
270.22
282.86
282.95
268.00
238.40
197.95
152.92
110.19
75.10
50.29
35.47
28.05
24.02
18.88
8.51
-9.96
-37.17
-71.10
-107.36
-140.62
-166.79
-184.71
-196.62
-206.90
-219.41
-234.85
-249.78
-257.70
-251.85
-228.33
-187.59
-134.02
-74.04
-14.35
38.93
80.30
105.17
110.91
98.27
71.80
38.28
3.51
-30.42
-65.70
-106.31
-154.05
-205.66
-253.08
-286.79
-300.24
-292.63
-268.71
-235.90
-200.90
-167.64
-137.48
-110.69
-87.89
-70.61
-60.57
-58.36
-62.66
-70.42
-77.93
-82.20
-82.09
-78.45
-73.39
-68.99
-66.19
-64.21
-60.88
-53.60
-40.40
-20.70
4.62
33.70
64.56
95.90
127.45
159.97
194.87
233.53
276.58
323.35
371.59
417.84
458.19
489.36
509.54
518.70
518.17
509.84
495.38
475.93
452.35
425.74
397.76
370.48
345.73
324.34
305.59
287.36
266.82
241.47
210.12
173.32
133.13
92.18
52.74
15.86
-18.91
-53.16
-88.96
-128.43
-173.33
-224.54
-281.39
-340.77
-396.99
-442.78
-471.38
-478.89
-465.78
-436.69
-398.44
-357.61
-318.51
-282.51
-248.79
-215.74
-182.23
-148.27
-114.84
-83.26
-54.48
-28.53
-4.63
18.33
41.10
63.61
85.31
105.75
125.42
146.06
170.27
200.28
236.38
275.93
313.90
344.87
365.74
377.35
383.96
390.87
400.98
412.74
420.70
418.35
401.71
371.47
332.26
289.81
247.72
206.08
162.33
113.70
59.18
0.15
-60.43
-119.48
-174.94
-226.31
-274.57
-321.84
-370.65
-422.97
-478.94
-535.91
-588.38
-629.22
-651.81
-652.36
-631.08
-591.90
-540.77
-483.68
-425.09
-367.67
-312.81
-261.38
-214.03
-170.91
-131.27
-93.48
-55.70
-17.03
21.65
57.66
87.52
108.47
119.85
123.57
123.35
123.16
125.77
131.90
140.44
149.38
156.84
161.77
163.96
163.78
161.81
158.78
155.53
153.11
152.64
154.96
160.24
167.80
176.24
183.93
189.44
191.97
191.40
188.23
183.24
177.35
171.33
165.77
160.95
156.92
153.62
151.02
149.16
148.18
148.10
148.75
149.81
151.03
152.43
154.30
156.96
160.31
163.51
165.10
163.33
156.78
144.59
126.67
103.34
75.01
41.95
4.24
-38.00
-84.31
-133.29
-182.22
-227.12
-263.65
-288.52
-300.87
-302.96
-299.51
-295.90
-296.05
-301.14
-309.44
-317.66
-322.48
-321.74
-314.38
-299.82
-277.31
-246.00
-205.89
-158.84
-109.00
-61.90
-22.64
5.88
23.79
33.68
38.91
41.96
43.47
42.75
38.70
30.84
19.59
5.90
-9.24
-24.85
-39.72
-52.23
-60.37
-62.18
-56.34
-42.68
-22.36
2.27
28.18
52.44
73.07
89.87
104.39
119.16
136.22
155.73
175.46
191.86
201.92
205.02
203.27
200.25
198.93
200.46
204.18
208.83
213.36
217.19
219.58
219.20
214.65
206.19
197.12
193.70
202.51
226.73
263.40
303.52
335.46
349.85
343.16
318.42
282.71
243.47
205.71
171.44
140.86
114.09
91.94
75.37
64.11
55.77
46.33
31.67
9.57
-19.46
-52.41
-85.19
-114.64
-139.73
-162.00
-184.89
-212.64
-248.65
-293.92
-345.67
-397.15
-439.02
-461.94
-459.93
-432.52
-384.75
-324.95
-261.13
-198.17
-136.75
-74.66
-9.20
60.57
132.91
203.89
268.64
322.73
362.93
387.65
396.93
392.37
376.50
352.36
322.76
289.88
255.06
218.73
180.71
140.50
97.51
51.42
2.34
-49.07
-101.73
-154.39
-205.96
-255.87
-304.26
-352.12
-401.07
-452.45
-506.24
-560.08
-609.30
-648.23
-672.17
-679.20
-670.62
-649.76
-620.00
-583.19
-539.46
-488.25
-429.94
-366.66
-301.97
-239.51
-181.73
-129.34
-81.92
-38.86
-0.15
33.53
61.16
82.05
96.25
104.80
109.60
113.07
117.54
124.47
133.75
143.58
150.97
153.04
148.46
138.20
125.24
113.03
103.64
96.41
88.27
75.52
56.21
31.95
7.85
-9.16
-13.17
-1.71
23.22
55.93
89.08
116.02
132.63
138.17
135.16
128.45
123.69
125.65
136.67
155.83
179.29
201.70
218.19
226.29
226.59
222.00
215.83
209.93
203.30
192.66
174.43
147.38
114.61
83.90
65.85
70.13
101.32
156.30
224.54
291.46
343.58
372.93
379.01
367.36
345.93
321.32
296.73
272.27
246.83
220.17
193.95
171.13
154.41
144.50
139.41
135.00
126.54
110.39
85.14
51.69
12.22
-31.18
-77.30
-125.60
-175.29
-224.23
-268.90
-305.60
-332.49
-351.18
-366.83
-386.31
-415.30
-455.62
-503.88
-552.17
-590.62
-610.61
-607.48
-581.59
-537.47
-481.79
-420.90
-359.12
-298.29
-238.38
-178.37
-116.87
-52.61
15.12
85.70
156.03
219.91
268.65
293.47
289.13
256.98
205.85
149.68
102.76
74.51
66.14
70.85
77.32
74.40
55.17
18.40
-32.28
-90.73
-150.40
-205.45
-250.90
-282.52
-297.50
-295.30
-278.47
-252.16
-222.56
-194.61
-170.33
-148.36
-124.92
-95.93
-59.10
-15.28
31.47
75.09
109.44
130.22
136.05
128.73
112.52
92.93
75.22
63.03
57.64
57.86
60.73
62.82
61.53
56.05
47.50
38.22
30.84
27.39
28.88
35.49
46.73
61.68
78.79
96.01
110.95
121.59
126.91
127.26
124.12
119.56
115.35
112.34
110.24
107.83
103.69
96.95
87.81
77.54
67.89
60.26
54.95
51.16
47.42
42.48
35.85
28.10
20.38
13.85
9.08
5.83
3.39
0.95
-1.99
-5.63
-10.15
-15.97
-23.63
-33.44
-44.91
-56.45
-65.54
-69.53
-66.58
-56.50
-40.84
-22.33
-3.94
12.06
24.55
33.43
39.15
42.12
42.44
40.05
34.99
27.81
19.62
11.83
5.66
1.69
-0.32
-1.20
-1.87
-2.85
-4.03
-4.80
-4.46
-2.65
0.32
3.59
6.18
7.41
7.22
6.05
4.53
2.94
0.98
-2.10
-7.09
-14.22
-22.98
-32.26
-40.90
-48.28
-54.55
-60.31
-66.00
-71.21
-74.58
-74.36
-69.32
-59.51
-46.44
-32.44
-19.57
-8.71
0.57
9.57
19.41
30.31
41.40
51.18
58.29
62.22
63.36
62.72
61.30
59.66
57.74
55.09
51.41
46.97
42.67
39.81
39.37
41.40
44.78
47.64
48.16
45.44
39.79
32.51
24.99
18.01
11.30
3.94
-5.00
-15.73
-27.61
-39.45
-50.19
-59.41
-67.36
-74.64
-81.52
-87.47
-91.19
-91.07
-85.94
-75.74
-61.70
-45.93
-30.66
-17.34
-6.28
3.28
12.60
22.61
33.45
44.35
54.11
61.80
67.18
70.87
73.85
76.83
79.82
82.00
82.32
80.13
75.76
70.46
65.78
62.71
61.08
59.65
56.76
51.33
43.48
34.38
25.56
17.92
11.25
4.47
-3.60
-13.33
-23.92
-33.83
-41.60
-46.65
-49.66
-51.95
-54.80
-58.54
-62.22
-64.06
-62.19
-55.80
-45.75
-34.33
-24.30
-17.57
-14.31
-12.95
-11.20
-7.44
-1.68
4.51
8.99
10.38
8.93
6.32
4.63
5.13
7.67
10.91
13.25
13.84
13.04
12.42
14.05
19.67
29.54
42.06
53.99
61.68
62.79
57.48
48.63
40.48
36.68
38.32
43.67
49.31
52.27
51.63
48.74
45.83
44.16
42.85
39.32
30.88
16.46
-2.57
-22.83
-40.47
-52.78
-59.20
-61.34
-62.06
-64.18
-69.33
-77.52
-87.33
-96.56
-102.82
-103.97
-98.39
-85.39
-65.42
-40.41
-13.71
10.62
28.72
38.03
37.95
29.75
16.06
0.10
-14.89
-26.03
-30.96
-28.24
-17.67
-0.59
20.36
41.83
60.58
74.18
81.26
81.63
76.13
66.45
54.83
43.66
34.81
29.08
25.91
23.62
20.38
15.27
9.05
4.02
3.11
8.43
20.30
37.10
56.08
74.59
91.14
105.60
118.69
130.88
141.30
147.31
145.30
132.31
107.96
75.33
40.36
9.63
-12.32
-24.56
-29.53
-31.00
-31.70
-32.09
-31.04
-27.77
-23.57
-21.94
-26.81
-39.99
-59.40
-79.39
-93.03
-95.07
-84.25
-63.72
-39.82
-19.73
-9.07
-10.46
-23.16
-43.83
-67.84
-90.63
-108.82
-120.57
-125.67
-125.29
-121.58
-116.96
-113.08
-109.99
-105.57
-95.99
-77.26
-47.25
-7.18
38.25
82.06
117.14
138.23
143.33
134.05
114.83
91.48
69.11
50.36
34.80
19.90
3.03
-16.73
-38.23
-59.49
-79.45
-98.87
-119.33
-141.18
-161.78
-175.89
-178.13
-166.28
-142.90
-114.33
-87.62
-67.25
-53.46
-43.22
-32.61
-19.56
-4.94
7.99
15.63
16.06
10.29
1.95
-4.23
-4.33
3.48
18.59
38.28
58.57
74.85
83.03
80.85
69.17
52.58
38.44
34.46
45.66
72.23
109.38
149.30
183.95
207.45
217.10
213.22
198.38
176.63
152.67
130.96
114.33
102.90
93.82
82.12
62.39
30.53
-14.88
-71.80
-135.04
-197.09
-249.83
-286.73
-305.02
-306.90
-299.14
-290.85
-290.32
-302.16
-325.97
-356.81
-387.21
-409.72
-418.86
-412.30
-390.80
-357.38
-316.07
-270.49
-223.06
-174.73
-125.61
-75.69
-25.68
22.78
67.58
106.80
139.45
165.54
185.70
200.78
211.70
219.71
226.66
235.06
247.36
265.06
288.09
315.05
344.10
374.15
405.27
437.85
471.06
501.84
525.62
538.36
538.96
530.08
516.84
503.97
493.19
482.51
467.76
445.38
414.59
377.79
339.00
301.57
266.64
233.18
199.36
164.10
127.88
92.34
59.13
28.93
1.04
-26.37
-55.26
-86.68
-120.26
-154.36
-186.85
-216.35
-242.88
-267.56
-291.56
-314.76
-335.19
-349.67
-355.13
-349.81
-333.51
-306.96
-271.00
-226.34
-173.96
-115.90
-55.27
4.59
61.36
114.61
165.09
213.25
257.73
294.99
320.55
330.97
325.46
306.18
277.45
244.03
209.74
176.64
145.11
114.34
83.21
50.95
17.53
-16.33
-49.57
-81.35
-111.51
-140.69
-170.05
-200.72
-233.12
-266.52
-298.88
-327.32
-348.76
-360.70
-361.86
-352.54
-334.78
-312.49
-291.31
-277.73
-277.64
-293.94
-324.61
-362.15
-395.35
-412.90
-407.50
-378.40
-330.69
-272.71
-212.20
-153.79
-98.65
-46.24
3.72
50.21
91.37
126.02
154.45
178.17
198.66
215.80
227.21
229.18
218.47
194.18
