1.589022077000000000e+09
-2.999999999999999889e-02
5.059999999999999609e+00
1.791000000000000014e+01
7.934000000000000341e+01
2.282500000000000000e+02
-4.865000000000000000e+02
-5.900000000000000355e+00
1.561500000000000057e+02
4.678000000000000114e+01
4.049999999999999822e+00
1.300000000000000044e-01
7.600000000000000089e-01
3.259999999999999787e+00
1.321000000000000085e+01
1.775000000000000000e+01
-1.823000000000000043e+01
4.440000000000000391e+00
6.748999999999999488e+01
2.406599999999999966e+02
-1.313000000000000114e+02
-6.167000000000000171e+01
-1.706100000000000136e+02
-8.015800000000000409e+02
5.636699999999999591e+02
1.115699999999999932e+02
1.024000000000000021e+01
7.704999999999999716e+01
9.676000000000000512e+01
1.294000000000000057e+02
-1.921899999999999977e+02
-5.323899999999999864e+02
-1.498000000000000043e+01
1.764699999999999989e+02
1.883300000000000125e+02
3.788999999999999773e+02
-2.021000000000000085e+01
-5.354500000000000455e+02
-1.048900000000000006e+02
3.354399999999999977e+02
-2.146399999999999864e+02
9.551999999999999602e+01
1.153299999999999983e+02
-1.615399999999999920e+02
8.298000000000000398e+01
1.944799999999999898e+02
4.799999999999999822e-01
1.559300000000000068e+02
2.748600000000000136e+02
-1.728899999999999864e+02
-1.242099999999999937e+02
1.635900000000000034e+02
-2.529300000000000068e+02
-1.403600000000000136e+02
1.101400000000000006e+02
1.004699999999999989e+02
-3.788000000000000256e+01
1.023799999999999955e+02
-1.369399999999999977e+02
-1.074399999999999977e+02
1.178299999999999983e+02
5.620000000000000107e+00
-1.786500000000000057e+02
1.441100000000000136e+02
6.931999999999999318e+01
-9.748000000000000398e+01
9.381999999999999318e+01
1.126099999999999994e+02
-1.401999999999999957e+01
6.653000000000000114e+01
1.670099999999999909e+02
2.551000000000000156e+01
-4.044300000000000068e+02
-1.329900000000000091e+02
3.097099999999999795e+02
-2.400800000000000125e+02
1.256700000000000017e+02
-2.157000000000000028e+01
-2.578000000000000114e+02
3.464999999999999858e+01
5.122999999999999687e+01
1.926599999999999966e+02
-2.925400000000000205e+02
8.660999999999999943e+01
-1.711899999999999977e+02
3.884000000000000341e+01
5.056600000000000250e+02
-4.527000000000000313e+01
-3.935600000000000023e+02
2.783899999999999864e+02
-7.245999999999999375e+01
-6.122200000000000273e+02
-1.155300000000000011e+02
-1.265699999999999932e+02
1.077600000000000051e+02
2.176200000000000045e+02
-2.633999999999999986e+01
1.343899999999999864e+02
1.751800000000000068e+02
3.258700000000000045e+02
3.338199999999999932e+02
2.958999999999999986e+01
-9.912999999999999545e+01
-1.462700000000000102e+02
8.932999999999999829e+01
-1.138599999999999994e+02
-2.775299999999999727e+02
-1.122000000000000064e+01
3.813000000000000114e+02
3.727000000000000313e+01
-2.598000000000000043e+01
-6.643999999999999773e+01
-8.015800000000000409e+02
-1.066000000000000014e+01
1.396899999999999977e+02
2.406200000000000045e+02
1.550000000000000044e+00
-1.101400000000000006e+02
2.490999999999999943e+02
5.200000000000000000e+01
-1.703199999999999932e+02
1.743899999999999864e+02
2.687000000000000099e+01
-1.494000000000000057e+02
1.687100000000000080e+02
1.790800000000000125e+02
5.935000000000000142e+01
-1.135400000000000063e+02
-2.157599999999999909e+02
1.491999999999999993e+01
3.292999999999999972e+01
7.559999999999999432e+01
-9.967000000000000171e+01
-7.417000000000000171e+01
2.368899999999999864e+02
-5.811999999999999744e+01
-1.559699999999999989e+02
9.843999999999999773e+01
-1.012300000000000040e+02
1.326999999999999957e+01
-4.400000000000000022e-01
-1.033999999999999986e+01
-1.044500000000000028e+02
4.738000000000000256e+01
1.888100000000000023e+02
1.238900000000000006e+02
-2.050399999999999920e+02
-1.588100000000000023e+02
-1.415600000000000023e+02
-5.540299999999999727e+02
-2.801000000000000156e+01
1.353100000000000023e+02
2.539000000000000057e+01
3.687599999999999909e+02
1.640399999999999920e+02
-1.635999999999999943e+02
3.047300000000000182e+02
3.914000000000000057e+01
2.689999999999999947e+00
-1.079500000000000028e+02
9.468000000000000682e+01
-3.390199999999999818e+02
-4.386899999999999977e+02
-1.535900000000000034e+02
6.657999999999999829e+01
3.606200000000000045e+02
-1.461100000000000136e+02
2.492000000000000171e+01
-1.545500000000000114e+02
2.772799999999999727e+02
3.153999999999999915e+01
-7.731000000000000227e+01
2.726800000000000068e+02
6.331000000000000227e+01
-6.943999999999999773e+01
-3.431000000000000227e+01
4.206000000000000227e+01
-9.918000000000000682e+01
1.137199999999999989e+02
-7.043000000000000682e+01
-1.188599999999999994e+02
1.157500000000000000e+02
1.591599999999999966e+02
2.737500000000000000e+02
3.868999999999999773e+01
-1.802800000000000011e+02
-1.230699999999999932e+02
1.942999999999999972e+01
1.235499999999999972e+02
-1.746699999999999875e+02
-3.308299999999999841e+02
3.176700000000000159e+02
-1.183799999999999955e+02
-5.206699999999999591e+02
-8.851999999999999602e+01
-1.241099999999999994e+02
5.789999999999999858e+01
5.314700000000000273e+02
-4.388000000000000256e+01
-2.434499999999999886e+02
3.370099999999999909e+02
1.726100000000000136e+02
-3.883500000000000227e+02
1.263599999999999994e+02
2.314699999999999989e+02
-2.113100000000000023e+02
-1.941599999999999966e+02
2.890899999999999750e+02
-3.427000000000000313e+01
-6.767000000000000171e+01
1.426500000000000057e+02
5.313000000000000256e+01
-1.762500000000000000e+02
1.302899999999999920e+02
-6.342999999999999972e+01
-2.402700000000000102e+02
1.498300000000000125e+02
6.285000000000000142e+01
-1.678499999999999943e+02
1.555900000000000034e+02
5.785000000000000142e+01
-1.323499999999999943e+02
1.645200000000000102e+02
1.645699999999999932e+02
-2.723999999999999844e+01
1.409999999999999920e+00
-1.140600000000000023e+02
-1.860600000000000023e+02
2.519000000000000128e+01
7.210999999999999943e+01
-4.296999999999999886e+01
1.266000000000000014e+01
5.703000000000000114e+01
-5.353999999999999915e+01
-4.145000000000000284e+01
9.759999999999999432e+01
-4.440000000000000391e+00
-3.779999999999999805e+00
2.671000000000000227e+02
-7.548000000000000398e+01
-1.377500000000000000e+02
6.676999999999999602e+01
-3.168199999999999932e+02
-3.894499999999999886e+02
2.508999999999999986e+01
4.982599999999999909e+02
2.381999999999999886e+02
-6.648799999999999955e+02
-3.805899999999999750e+02
-1.113900000000000006e+02
1.516000000000000014e+01
1.833899999999999864e+02
1.732700000000000102e+02
1.831299999999999955e+02
3.587699999999999818e+02
3.087000000000000099e+01
-1.399499999999999886e+02
1.420600000000000023e+02
7.787999999999999545e+01
9.867000000000000171e+01
-3.640500000000000114e+02
-2.155800000000000125e+02
1.469600000000000080e+02
1.087699999999999960e+02
-8.689000000000000057e+01
6.318999999999999773e+01
1.465999999999999943e+02
-9.378000000000000114e+01
2.701999999999999957e+01
9.204999999999999716e+01
-9.400000000000000355e+00
1.371299999999999955e+02
-2.697300000000000182e+02
-1.345200000000000102e+02
7.512999999999999545e+01
1.071299999999999955e+02
4.719999999999999751e+00
1.903000000000000114e+01
1.045000000000000000e+02
-4.589999999999999858e+01
9.573999999999999488e+01
1.580399999999999920e+02
2.622799999999999727e+02
-4.095799999999999841e+02
-2.794999999999999929e+01
4.104999999999999716e+01
-7.826000000000000512e+01
1.855000000000000071e+01
1.238000000000000078e+01
3.333600000000000136e+02
2.552700000000000102e+02
-2.245999999999999943e+02
-6.744400000000000546e+02
-2.002400000000000091e+02
1.451899999999999977e+02
1.858199999999999932e+02
3.698899999999999864e+02
9.298999999999999488e+01
-1.742299999999999898e+02
-2.583999999999999986e+01
-7.846999999999999886e+01
-2.327599999999999909e+02
2.446399999999999864e+02
-9.162999999999999545e+01
-3.161999999999999886e+02
3.669999999999999929e+00
2.589999999999999858e+00
2.487000000000000099e+01
3.208999999999999773e+02
2.300200000000000102e+02
-1.589499999999999886e+02
1.632599999999999909e+02
4.021299999999999955e+02
-7.379999999999999893e+00
-5.649900000000000091e+02
9.139000000000000057e+01
3.031000000000000227e+02
-1.023799999999999955e+02
-5.372400000000000091e+02
3.403899999999999864e+02
-4.970699999999999932e+02
3.225699999999999932e+02
-9.831000000000000227e+01
-1.332400000000000091e+02
1.305099999999999909e+02
7.046999999999999886e+01
-1.353499999999999943e+02
2.291100000000000136e+02
5.717000000000000171e+01
-1.311200000000000045e+02
1.164099999999999966e+02
6.407999999999999829e+01
-1.518000000000000114e+02
9.931999999999999318e+01
2.873000000000000114e+02
-1.510300000000000011e+02
-1.217900000000000063e+02
6.357000000000000028e+01
-4.989999999999999858e+01
2.982000000000000028e+01
1.624600000000000080e+02
3.402000000000000313e+01
-7.823999999999999488e+01
8.676999999999999602e+01
-4.064999999999999858e+01
-1.353499999999999943e+02
8.289000000000000057e+01
2.725000000000000000e+01
-1.280399999999999920e+02
6.676000000000000512e+01
2.375000000000000000e+01
-9.234000000000000341e+01
3.256000000000000227e+01
4.243999999999999773e+01
-6.704000000000000625e+01
-4.670000000000000284e+01
4.996000000000000085e+01
-3.575000000000000000e+01
-8.715999999999999659e+01
8.565000000000000568e+01
1.508000000000000007e+01
-8.620000000000000284e+01
5.085000000000000142e+01
7.753000000000000114e+01
-5.735999999999999943e+01
-7.154999999999999716e+01
1.126099999999999994e+02
-1.490000000000000036e+01
-1.192699999999999960e+02
1.334600000000000080e+02
2.632999999999999829e+01
-7.451999999999999602e+01
4.347999999999999687e+01
7.007999999999999829e+01
-4.669999999999999929e+00
-9.957999999999999829e+01
1.049099999999999966e+02
3.250000000000000000e+01
-8.584000000000000341e+01
1.085000000000000000e+02
-1.644000000000000128e+01
-1.712000000000000099e+01
-1.483199999999999932e+02
1.252800000000000011e+02
1.360000000000000098e+00
-8.773000000000000398e+01
9.775000000000000000e+01
4.177000000000000313e+01
-1.174300000000000068e+02
1.316299999999999955e+02
4.064999999999999858e+01
-1.000499999999999972e+02
7.248999999999999488e+01
1.923999999999999844e+01
1.090000000000000080e+00
-5.528000000000000114e+01
7.356000000000000227e+01
7.980000000000000426e+00
-9.373999999999999488e+01
7.904999999999999716e+01
1.219999999999999929e+01
-9.862000000000000455e+01
7.712000000000000455e+01
5.417999999999999972e+01
-1.352999999999999936e+01
-6.269999999999999574e+00
4.821000000000000085e+01
-1.253999999999999915e+01
-8.078000000000000114e+01
5.577000000000000313e+01
1.758999999999999986e+01
-9.045000000000000284e+01
9.109999999999999432e+01
9.009000000000000341e+01
-3.499000000000000199e+01
8.060999999999999943e+01
-5.160000000000000142e+00
-7.581999999999999318e+01
-8.339999999999999858e+00
7.309000000000000341e+01
-5.684000000000000341e+01
-9.459000000000000341e+01
4.982999999999999829e+01
-2.290000000000000036e+00
-1.421599999999999966e+02
1.013900000000000006e+02
1.506000000000000050e+01
-7.657999999999999829e+01
4.602000000000000313e+01
5.571000000000000085e+01
-5.710999999999999943e+01
-3.731000000000000227e+01
8.681000000000000227e+01
-3.585000000000000142e+01
-1.350999999999999943e+02
1.144899999999999949e+02
1.612000000000000099e+01
-1.330200000000000102e+02
1.021899999999999977e+02
4.859000000000000341e+01
-7.312999999999999545e+01
-1.889999999999999902e+00
8.956000000000000227e+01
-2.650000000000000000e+01
-1.048400000000000034e+02
1.031700000000000017e+02
1.436999999999999922e+01
-1.300200000000000102e+02
1.291699999999999875e+02
3.221000000000000085e+01
-8.739000000000000057e+01
-2.339000000000000057e+01
4.000999999999999801e+01
-1.867000000000000171e+01
-4.738000000000000256e+01
6.512000000000000455e+01
-1.408999999999999986e+01
-1.153400000000000034e+02
9.851999999999999602e+01
2.535000000000000142e+01
-8.951999999999999602e+01
5.506000000000000227e+01
6.100000000000000000e+01
-4.572999999999999687e+01
-3.173999999999999844e+01
6.060999999999999943e+01
-5.882000000000000028e+01
-1.900000000000000000e+02
9.953000000000000114e+01
5.189999999999999858e+01
-6.640999999999999659e+01
7.306000000000000227e+01
3.112000000000000099e+01
-4.385999999999999943e+01
3.339000000000000057e+01
7.892000000000000171e+01
-2.164000000000000057e+01
-4.232999999999999829e+01
4.656000000000000227e+01
-1.520000000000000018e+00
-8.010999999999999943e+01
5.849000000000000199e+01
8.859999999999999432e+00
-5.195000000000000284e+01
9.037999999999999545e+01
1.036700000000000017e+02
1.349900000000000091e+02
4.228999999999999915e+01
1.237900000000000063e+02
-2.187599999999999909e+02
-2.293700000000000045e+02
-1.211999999999999922e+01
-5.768999999999999773e+01
-1.000499999999999972e+02
6.945999999999999375e+01
1.069999999999999929e+01
-1.473199999999999932e+02
9.198000000000000398e+01
5.682000000000000028e+01
-8.492000000000000171e+01
5.070000000000000284e+00
9.140000000000000568e+01
-5.817999999999999972e+01
-1.046700000000000017e+02
1.399199999999999875e+02
-1.680999999999999872e+01
-1.692599999999999909e+02
1.354699999999999989e+02
3.014000000000000057e+01
-7.331000000000000227e+01
2.941000000000000014e+01
5.972999999999999687e+01
-8.940000000000000568e+01
-1.286599999999999966e+02
8.951000000000000512e+01
9.079000000000000625e+01
-8.917000000000000171e+01
1.158400000000000034e+02
6.568999999999999773e+01
-8.237000000000000455e+01
2.937000000000000099e+01
8.001000000000000512e+01
-2.571999999999999886e+01
-1.132800000000000011e+02
9.131999999999999318e+01
7.049999999999999822e+00
-9.412000000000000455e+01
5.209000000000000341e+01
4.684000000000000341e+01
-3.884000000000000341e+01
-2.837999999999999901e+01
5.393999999999999773e+01
-1.185999999999999943e+01
-1.208100000000000023e+02
6.993999999999999773e+01
8.210000000000000853e+00
-6.035999999999999943e+01
1.689000000000000057e+01
5.157000000000000028e+01
-1.594999999999999929e+01
-7.182999999999999829e+01
7.973999999999999488e+01
-2.019000000000000128e+01
-1.052800000000000011e+02
8.551999999999999602e+01
6.239999999999999858e+01
-5.803000000000000114e+01
-1.735999999999999943e+01
6.495999999999999375e+01
-5.120000000000000107e+00
-7.942000000000000171e+01
9.053000000000000114e+01
2.667999999999999972e+01
-9.018000000000000682e+01
4.634000000000000341e+01
1.269999999999999929e+01
-6.097999999999999687e+01
-2.335000000000000142e+01
5.549000000000000199e+01
1.839000000000000057e+01
-7.215000000000000568e+01
9.373000000000000398e+01
5.921000000000000085e+01
3.071999999999999886e+01
-2.376999999999999957e+01
-6.953000000000000114e+01
-6.332000000000000028e+01
3.180000000000000160e+00
7.368999999999999773e+01
-1.794999999999999929e+01
-5.938000000000000256e+01
3.617999999999999972e+01
-5.500000000000000000e+00
-7.121999999999999886e+01
2.876000000000000156e+01
2.687000000000000099e+01
-4.827000000000000313e+01
-1.020199999999999960e+02
5.820000000000000284e+01
2.594000000000000128e+01
-8.562999999999999545e+01
4.161999999999999744e+01
5.685000000000000142e+01
-6.818000000000000682e+01
1.969999999999999973e+00
9.215999999999999659e+01
-7.190000000000000391e+00
-8.500000000000000000e+01
6.909999999999999432e+01
1.637000000000000099e+01
-5.496999999999999886e+01
4.532999999999999829e+01
7.042000000000000171e+01
-3.822999999999999687e+01
1.266000000000000014e+01
1.166299999999999955e+02
1.772800000000000011e+02
-8.307999999999999829e+01
-3.696000000000000085e+01
-8.643999999999999773e+01
-8.623000000000000398e+01
1.274000000000000021e+01
1.699999999999999956e+00
-5.767999999999999972e+01
8.039999999999999147e+00
5.078999999999999915e+01
7.530000000000000249e+00
-1.339399999999999977e+02
2.521000000000000085e+01
-5.790999999999999659e+01
-9.493000000000000682e+01
9.354999999999999716e+01
1.177399999999999949e+02
1.172000000000000064e+01
-1.531999999999999886e+02
4.110000000000000142e+01
-6.690999999999999659e+01
-3.902000000000000313e+01
9.500000000000000000e+01
5.940000000000000391e+00
-1.256400000000000006e+02
1.068700000000000045e+02
6.129999999999999893e+00
-1.238799999999999955e+02
1.028499999999999943e+02
5.452000000000000313e+01
-1.423000000000000114e+02
8.892000000000000171e+01
6.856999999999999318e+01
-9.123000000000000398e+01
4.427000000000000313e+01
6.698999999999999488e+01
-3.907000000000000028e+01
3.400000000000000244e-01
8.812999999999999545e+01
1.438000000000000078e+01
-1.305200000000000102e+02
4.370000000000000284e+01
6.164000000000000057e+01
-1.642599999999999909e+02
7.615000000000000568e+01
6.213000000000000256e+01
-1.334300000000000068e+02
7.768999999999999773e+01
5.710000000000000142e+01
-7.482999999999999829e+01
-4.546000000000000085e+01
8.675000000000000000e+01
-4.225000000000000000e+01
-1.397899999999999920e+02
1.251700000000000017e+02
3.889000000000000057e+01
-8.559000000000000341e+01
-7.299999999999999822e-01
1.607999999999999829e+01
-7.428000000000000114e+01
-1.023799999999999955e+02
1.652299999999999898e+02
8.001000000000000512e+01
-7.370000000000000284e+01
4.264000000000000057e+01
1.240699999999999932e+02
-4.527000000000000313e+01
-1.096599999999999966e+02
1.044699999999999989e+02
2.066000000000000014e+01
-1.895000000000000000e+02
1.805800000000000125e+02
9.400000000000000000e+01
9.048000000000000398e+01
-6.581000000000000227e+01
6.056000000000000227e+01
-9.293000000000000682e+01
-1.203400000000000034e+02
7.854999999999999716e+01
-2.739999999999999858e+01
-1.512800000000000011e+02
1.018799999999999955e+02
-3.032999999999999829e+01
-1.089500000000000028e+02
4.646999999999999886e+01
8.573999999999999488e+01
-7.862999999999999545e+01
2.362000000000000099e+01
7.998999999999999488e+01
-3.647999999999999687e+01
-7.670000000000000284e+01
1.136299999999999955e+02
1.855000000000000071e+01
-1.483199999999999932e+02
1.635900000000000034e+02
1.929999999999999938e+00
-1.569499999999999886e+02
1.814000000000000057e+02
3.765999999999999659e+01
-1.245499999999999972e+02
1.345200000000000102e+02
1.082600000000000051e+02
-8.498999999999999488e+01
4.450000000000000000e+01
8.231999999999999318e+01
-5.750000000000000000e+01
-3.742999999999999972e+01
7.389000000000000057e+01
-1.398000000000000043e+01
-1.418199999999999932e+02
-1.183599999999999994e+02
1.323000000000000043e+01
-3.895000000000000284e+01
1.877700000000000102e+02
1.023199999999999932e+02
-6.548999999999999488e+01
4.393999999999999773e+01
1.067399999999999949e+02
-5.190999999999999659e+01
-5.352000000000000313e+01
8.045999999999999375e+01
-1.980999999999999872e+01
-1.170999999999999943e+02
1.502100000000000080e+02
3.432000000000000028e+01
-4.628000000000000114e+01
1.048799999999999955e+02
1.266200000000000045e+02
1.928000000000000114e+01
-1.361200000000000045e+02
-5.025000000000000000e+01
-7.523000000000000398e+01
-8.860999999999999943e+01
4.307000000000000028e+01
-6.299999999999999822e+00
-7.051000000000000512e+01
3.935000000000000142e+01
5.652000000000000313e+01
-7.893999999999999773e+01
-1.207000000000000028e+01
5.321000000000000085e+01
2.342999999999999972e+01
-1.106599999999999966e+02
8.820999999999999375e+01
5.481000000000000227e+01
-1.186899999999999977e+02
-4.324000000000000199e+01
8.301999999999999602e+01
2.869000000000000128e+01
1.739999999999999858e+01
4.957999999999999829e+01
-4.332999999999999829e+01
-1.336999999999999886e+02
8.248000000000000398e+01
8.900000000000000133e-01
-1.203100000000000023e+02
1.090600000000000023e+02
3.293999999999999773e+01
-7.670999999999999375e+01
4.854999999999999716e+01
4.482999999999999829e+01
-7.226999999999999602e+01
1.141999999999999993e+01
8.126999999999999602e+01
-3.838000000000000256e+01
-3.229999999999999716e+01
8.606999999999999318e+01
-2.076999999999999957e+01
-9.601999999999999602e+01
7.940000000000000568e+01
-9.750000000000000000e+00
-1.469199999999999875e+02
9.248000000000000398e+01
1.837000000000000099e+01
-1.278499999999999943e+02
9.501000000000000512e+01
5.522999999999999687e+01
-9.901000000000000512e+01
5.450999999999999801e+01
6.543000000000000682e+01
-1.027600000000000051e+02
-2.839999999999999858e+00
1.381200000000000045e+02
-7.198000000000000398e+01
-1.485600000000000023e+02
1.968600000000000136e+02
-2.260000000000000142e+01
-2.589100000000000250e+02
2.184000000000000057e+02
4.082000000000000028e+01
-2.375699999999999932e+02
1.718799999999999955e+02
8.829000000000000625e+01
-1.375500000000000114e+02
8.671999999999999886e+01
2.764999999999999858e+01
-6.274000000000000199e+01
1.400600000000000023e+02
-2.083400000000000034e+02
-1.154300000000000068e+02
7.184999999999999432e+01
1.936999999999999886e+02
8.859999999999999432e+00
-1.448199999999999932e+02
6.904000000000000625e+01
-1.169999999999999929e+00
-1.763400000000000034e+02
1.723499999999999943e+02
6.589999999999999858e+00
-1.483700000000000045e+02
1.348000000000000114e+02
2.558999999999999986e+01
-9.990999999999999659e+01
6.495999999999999375e+01
7.731999999999999318e+01
-7.270999999999999375e+01
-6.556000000000000227e+01
1.227600000000000051e+02
-1.566000000000000014e+01
-1.504300000000000068e+02
1.215499999999999972e+02
3.091000000000000014e+01
-1.000999999999999943e+02
6.584999999999999432e+01
4.843999999999999773e+01
-7.331999999999999318e+01
-2.185000000000000142e+01
8.681999999999999318e+01
-2.105000000000000071e+01
-1.284499999999999886e+02
9.265000000000000568e+01
5.100000000000000089e-01
-7.976999999999999602e+01
3.028500000000000227e+02
7.853000000000000114e+01
-1.720399999999999920e+02
4.789999999999999858e+01
-5.052000000000000313e+01
-2.001500000000000057e+02
-2.056800000000000068e+02
2.455900000000000034e+02
2.399999999999999911e-01
-1.504900000000000091e+02
1.616500000000000057e+02
2.996000000000000085e+01
-2.583999999999999773e+02
-4.189000000000000057e+01
1.109699999999999989e+02
1.937999999999999901e+01
8.542000000000000171e+01
9.159000000000000341e+01
-5.986999999999999744e+01
-7.490999999999999659e+01
1.189899999999999949e+02
1.907000000000000028e+01
-1.157600000000000051e+02
8.279000000000000625e+01
9.740000000000000213e+00
-8.809999999999999432e+01
5.417999999999999972e+01
4.642999999999999972e+01
-3.939999999999999858e+01
-4.664999999999999858e+01
6.368999999999999773e+01
-1.600000000000000033e-01
-1.168100000000000023e+02
9.565999999999999659e+01
3.240999999999999659e+01
-1.112800000000000011e+02
8.168000000000000682e+01
2.771999999999999886e+01
-7.906000000000000227e+01
4.142999999999999972e+01
6.052000000000000313e+01
-4.632999999999999829e+01
-4.003000000000000114e+01
9.706000000000000227e+01
-6.280000000000000249e+00
-1.284099999999999966e+02
1.240300000000000011e+02
6.390999999999999659e+01
4.132999999999999829e+01
2.057400000000000091e+02
6.275000000000000000e+01
1.509999999999999964e+01
-2.997099999999999795e+02
-1.588400000000000034e+02
-9.257999999999999829e+01
-1.387899999999999920e+02
1.368700000000000045e+02
1.272000000000000064e+01
-8.887000000000000455e+01
9.242000000000000171e+01
5.250999999999999801e+01
-4.821999999999999886e+01
-5.321999999999999886e+01
8.646999999999999886e+01
-1.419999999999999929e+00
-1.311100000000000136e+02
1.111299999999999955e+02
-8.349999999999999645e+00
-1.697599999999999909e+02
1.330200000000000102e+02
8.235999999999999943e+01
-9.976999999999999602e+01
6.440000000000000391e+00
1.482400000000000091e+02
-3.589000000000000057e+01
-1.196599999999999966e+02
1.535200000000000102e+02
3.108999999999999986e+01
-1.548000000000000114e+02
9.685999999999999943e+01
4.489000000000000057e+01
-2.401800000000000068e+02
1.161800000000000068e+02
3.603999999999999915e+01
-2.348999999999999844e+01
3.971000000000000085e+01
1.152500000000000000e+02
-3.953999999999999915e+01
-7.521999999999999886e+01
8.234999999999999432e+01
7.820000000000000284e+00
-1.325399999999999920e+02
8.762000000000000455e+01
2.830999999999999872e+01
-1.245799999999999983e+02
7.879999999999999716e+01
1.412700000000000102e+02
4.809999999999999609e+00
8.153000000000000114e+01
2.275699999999999932e+02
-1.940300000000000011e+02
-2.693899999999999864e+02
1.146400000000000006e+02
-1.015199999999999960e+02
-2.201999999999999957e+01
1.354799999999999898e+02
6.904999999999999716e+01
-2.591100000000000136e+02
3.030199999999999818e+02
6.357999999999999829e+01
-8.839999999999999858e+00
-2.766000000000000014e+01
1.097000000000000064e+01
-8.059999999999999432e+01
-1.870000000000000107e+00
-3.385999999999999943e+01
-1.491999999999999886e+02
-4.183000000000000114e+02
6.509999999999999432e+01
4.013500000000000227e+02
2.969000000000000128e+01
1.168799999999999955e+02
5.853999999999999915e+01
-4.347999999999999687e+01
3.247999999999999687e+01
1.178499999999999943e+02
-6.907999999999999829e+01
-9.998000000000000398e+01
5.853999999999999915e+01
6.615999999999999659e+01
-4.834000000000000341e+01
1.429600000000000080e+02
3.778999999999999915e+01
-1.984000000000000057e+02
1.436299999999999955e+02
4.838000000000000256e+01
-9.934000000000000341e+01
6.434999999999999432e+01
5.946000000000000085e+01
-9.132999999999999829e+01
5.565999999999999659e+01
5.889999999999999858e+01
-1.015900000000000034e+02
-2.532999999999999829e+01
8.260999999999999943e+01
-3.545000000000000284e+01
-8.943999999999999773e+01
6.361999999999999744e+01
-9.000000000000000000e+00
-1.109500000000000028e+02
-6.690000000000000391e+00
9.134000000000000341e+01
-3.076000000000000156e+01
-3.182999999999999829e+01
1.232099999999999937e+02
9.990000000000000213e+00
-1.555300000000000011e+02
1.065400000000000063e+02
3.435000000000000142e+01
-1.127300000000000040e+02
1.397400000000000091e+02
1.591399999999999864e+02
-1.632700000000000102e+02
5.517000000000000171e+01
1.277699999999999960e+02
6.976000000000000512e+01
-2.156999999999999886e+02
3.100600000000000023e+02
-1.125699999999999932e+02
1.085999999999999943e+02
-2.186899999999999977e+02
-2.321399999999999864e+02
4.059999999999999609e+00
2.648199999999999932e+02
-3.010000000000000142e+01
-2.126399999999999864e+02
1.304099999999999966e+02
1.267000000000000028e+02
2.437000000000000099e+01
2.460099999999999909e+02
-2.464000000000000057e+01
-3.681800000000000068e+02
7.084999999999999432e+01
2.411100000000000136e+02
-6.496999999999999886e+01
-7.192000000000000171e+01
9.123999999999999488e+01
-3.046000000000000085e+01
-8.740000000000000213e+00
1.093900000000000006e+02
-6.539000000000000057e+01
-2.210999999999999943e+01
1.253599999999999994e+02
-4.690999999999999659e+01
-4.221999999999999886e+02
1.805099999999999909e+02
3.169700000000000273e+02
1.867400000000000091e+02
-2.030900000000000034e+02
-1.174099999999999966e+02
1.395600000000000023e+02
-5.577000000000000313e+01
-3.276000000000000227e+02
9.140000000000000568e+00
2.680000000000000000e+02
-1.406200000000000045e+02
8.029999999999999716e+01
-2.687099999999999795e+02
-7.339000000000000057e+01
2.765799999999999841e+02
3.457300000000000182e+02
-1.733300000000000125e+02
-1.822299999999999898e+02
2.363799999999999955e+02
2.477199999999999989e+02
-5.883799999999999955e+02
-5.570000000000000284e+01
1.639600000000000080e+02
1.832400000000000091e+02
1.569600000000000080e+02
-2.271200000000000045e+02
-2.460000000000000000e+02
5.900000000000000355e+00
1.191599999999999966e+02
2.191999999999999886e+02
1.714399999999999977e+02
-1.848899999999999864e+02
-9.199999999999999289e+00
1.807100000000000080e+02
-6.092999999999999545e+02
-8.192000000000000171e+01
1.484600000000000080e+02
8.907999999999999829e+01
2.158300000000000125e+02
3.790099999999999909e+02
8.514000000000000057e+01
-5.038799999999999955e+02
8.570000000000000284e+01
1.839999999999999858e+01
-9.593000000000000682e+01
6.282000000000000028e+01
1.272600000000000051e+02
4.247999999999999687e+01
-5.645000000000000284e+01
2.780999999999999872e+01
7.410000000000000142e+00
-7.120999999999999375e+01
6.221999999999999886e+01
4.543999999999999773e+01
-8.746999999999999886e+01
6.179999999999999716e+01
5.132999999999999829e+01
-5.853999999999999915e+01
1.038000000000000078e+01
6.167999999999999972e+01
3.087999999999999901e+01
-9.839000000000000057e+01
-1.767000000000000171e+01
2.037999999999999901e+01
1.453000000000000114e+02
-2.680999999999999872e+01
-1.088199999999999932e+02
1.382299999999999898e+02
-1.411800000000000068e+02
1.605999999999999872e+01
4.565999999999999659e+01
6.239000000000000057e+01
-3.872099999999999795e+02
1.394499999999999886e+02
4.710600000000000023e+02
2.666399999999999864e+02
-2.428799999999999955e+02
6.135999999999999943e+01
8.320999999999999375e+01
-3.618600000000000136e+02
-2.121999999999999886e+02
1.594900000000000091e+02
1.052999999999999972e+02
-3.583600000000000136e+02
2.714499999999999886e+02
-1.069200000000000017e+02
-1.844000000000000128e+01
-8.509999999999999787e+00
1.105499999999999972e+02
9.451000000000000512e+01
2.210000000000000142e+01
9.201999999999999602e+01
1.376500000000000057e+02
-2.362800000000000011e+02
-1.386100000000000136e+02
-9.187000000000000455e+01
-1.735000000000000142e+01
-1.188000000000000078e+01
4.189800000000000182e+02
7.921999999999999886e+01
-1.448400000000000034e+02
-7.556000000000000227e+01
-2.541399999999999864e+02
3.959999999999999964e+00
1.373100000000000023e+02
-6.965999999999999659e+01
4.353000000000000114e+01
1.195300000000000011e+02
-3.338000000000000256e+01
9.870999999999999375e+01
1.496299999999999955e+02
-3.406999999999999886e+02
4.219999999999999751e+00
1.510600000000000023e+02
-2.896999999999999886e+01
6.095000000000000284e+01
2.380999999999999872e+01
-1.669000000000000128e+01
-1.246000000000000085e+01
-7.934000000000000341e+01
-7.742000000000000171e+01
2.446000000000000085e+01
1.650099999999999909e+02
1.446000000000000085e+01
4.072999999999999687e+01
3.200000000000000178e+00
-1.811599999999999966e+02
2.767000000000000171e+01
3.392999999999999972e+01
-1.064899999999999949e+02
-5.400000000000000000e+01
1.623799999999999955e+02
-8.581000000000000227e+01
-7.446999999999999886e+01
3.831000000000000227e+01
9.743000000000000682e+01
1.498700000000000045e+02
1.097900000000000063e+02
-2.407899999999999920e+02
-1.275699999999999932e+02
1.184300000000000068e+02
-1.388300000000000125e+02
6.192999999999999972e+01
1.465000000000000036e+01
-5.671999999999999886e+01
-8.915000000000000568e+01
7.614000000000000057e+01
3.359999999999999876e+00
-2.476999999999999957e+01
1.049000000000000057e+02
-2.158999999999999986e+01
-5.199000000000000199e+01
8.810999999999999943e+01
1.041999999999999993e+01
-2.594499999999999886e+02
2.135999999999999943e+01
1.389999999999999902e+00
4.063000000000000256e+01
-1.316000000000000014e+01
2.698199999999999932e+02
-1.279699999999999989e+02
1.547899999999999920e+02
-5.900000000000000355e+00
-2.176999999999999886e+02
6.726000000000000512e+01
8.768999999999999773e+01
-1.333300000000000125e+02
2.766000000000000014e+01
5.838000000000000256e+01
-4.174000000000000199e+01
6.584000000000000341e+01
1.047000000000000028e+02
-4.796999999999999886e+01
1.195600000000000023e+02
-4.857000000000000028e+01
-3.346999999999999886e+02
3.093500000000000227e+02
5.902000000000000313e+01
-2.769100000000000250e+02
-5.824400000000000546e+02
1.046400000000000006e+02
4.072400000000000091e+02
1.180300000000000011e+02
-1.588700000000000045e+02
-1.110000000000000000e+02
-5.454999999999999716e+01
5.525999999999999801e+01
9.590000000000000568e+01
-1.908300000000000125e+02
4.487099999999999795e+02
5.057000000000000028e+01
-2.878000000000000114e+02
1.104200000000000017e+02
-4.367999999999999972e+01
-8.795999999999999375e+01
2.144799999999999898e+02
-6.386999999999999744e+01
-3.048399999999999750e+02
2.506299999999999955e+02
1.067900000000000063e+02
-3.383000000000000114e+02
4.939000000000000057e+01
1.094800000000000040e+02
-7.914000000000000057e+01
1.224699999999999989e+02
3.471000000000000085e+01
-1.634399999999999977e+02
-8.623000000000000398e+01
-2.419999999999999929e+00
5.757999999999999829e+01
2.491200000000000045e+02
-4.315699999999999932e+02
2.176999999999999957e+01
2.425000000000000000e+01
6.865999999999999659e+01
2.919999999999999929e+01
-2.226999999999999886e+02
-7.299999999999999822e+00
3.472699999999999818e+02
2.767900000000000205e+02
-1.146200000000000045e+02
-3.581000000000000227e+01
4.554700000000000273e+02
2.211500000000000057e+02
-3.145199999999999818e+02
-5.578000000000000114e+01
3.345400000000000205e+02
-8.460999999999999943e+01
4.385000000000000142e+01
-2.912000000000000099e+01
-1.666800000000000068e+02
1.033799999999999955e+02
-2.328999999999999915e+01
-2.323999999999999844e+01
1.109200000000000017e+02
-5.310000000000000142e+01
-5.645599999999999454e+02
-1.542800000000000011e+02
2.656299999999999955e+02
3.438100000000000023e+02
-1.660800000000000125e+02
3.161200000000000045e+02
-1.129200000000000017e+02
-1.776899999999999977e+02
-8.009999999999999787e+00
-1.530500000000000114e+02
3.020000000000000018e+00
2.346299999999999955e+02
-3.353000000000000114e+01
-4.920000000000000284e+01
-7.835999999999999943e+01
5.490000000000000213e+00
1.634900000000000091e+02
1.140199999999999960e+02
1.027999999999999972e+02
7.623999999999999488e+01
2.419000000000000128e+01
-7.634000000000000341e+01
-1.128499999999999943e+02
2.840400000000000205e+02
-2.719999999999999929e+01
3.469300000000000068e+02
1.430600000000000023e+02
-2.673899999999999864e+02
-5.303200000000000500e+02
-3.059399999999999977e+02
2.730199999999999818e+02
6.241799999999999500e+02
-1.659900000000000091e+02
-5.361599999999999682e+02
5.757999999999999829e+01
3.875000000000000000e+02
1.184699999999999989e+02
-2.951999999999999957e+01
-4.059599999999999795e+02
4.689999999999999858e+01
-6.600000000000000311e-01
-6.500000000000000000e+01
3.049300000000000068e+02
8.810999999999999943e+01
-5.104399999999999977e+02
-6.096999999999999886e+01
1.777100000000000080e+02
-6.562000000000000455e+01
1.314799999999999898e+02
7.210999999999999943e+01
-4.631000000000000227e+01
-1.163000000000000078e+01
8.239000000000000057e+01
-1.240000000000000000e+02
-8.132999999999999829e+01
-1.137699999999999960e+02
-7.029000000000000625e+01
1.650600000000000023e+02
-1.080499999999999972e+02
-2.166500000000000057e+02
2.601200000000000045e+02
4.621399999999999864e+02
7.476999999999999602e+01
-1.835000000000000000e+02
-3.248000000000000114e+02
-4.882500000000000000e+02
1.330000000000000071e+00
4.661999999999999886e+02
-1.056000000000000050e+01
-2.714999999999999858e+01
-5.167100000000000364e+02
1.930999999999999872e+01
3.401700000000000159e+02
-2.240099999999999909e+02
-1.576100000000000136e+02
9.262000000000000455e+01
4.358999999999999773e+02
2.223899999999999864e+02
4.321299999999999955e+02
-1.084300000000000068e+02
-4.966000000000000227e+02
-4.175000000000000000e+02
1.622400000000000091e+02
2.649999999999999911e+00
-3.580000000000000071e+00
1.177999999999999936e+01
1.796000000000000085e+01
-3.065899999999999750e+02
2.007700000000000102e+02
1.956399999999999864e+02
-3.552400000000000091e+02
-3.714000000000000057e+01
-1.019800000000000040e+02
1.805600000000000023e+02
2.626299999999999955e+02
2.764900000000000091e+02
1.602500000000000000e+02
-1.058900000000000006e+02
-4.068999999999999773e+02
-4.730000000000000426e+00
2.287000000000000099e+01
-3.713000000000000256e+01
3.334000000000000341e+01
1.911100000000000136e+02
-3.115500000000000114e+02
1.192699999999999960e+02
3.295400000000000205e+02
-2.352199999999999989e+02
-4.550999999999999801e+01
-6.896999999999999886e+01
-1.786299999999999955e+02
1.317299999999999898e+02
2.760199999999999818e+02
2.468799999999999955e+02
-4.814999999999999858e+01
-1.219200000000000017e+02
-1.902500000000000000e+02
-4.516999999999999886e+02
2.969800000000000182e+02
-8.262000000000000455e+01
-5.939999999999999858e+01
-7.143999999999999773e+01
-2.439000000000000057e+01
1.685999999999999943e+01
1.329600000000000080e+02
-4.452300000000000182e+02
-7.131000000000000227e+01
1.890399999999999920e+02
9.745999999999999375e+01
1.551100000000000136e+02
-8.493000000000000682e+01
1.199500000000000028e+02
-9.059999999999999432e+01
-2.031699999999999875e+02
1.657700000000000102e+02
2.080000000000000071e+00
4.809000000000000341e+01
-2.185999999999999943e+01
1.041000000000000014e+01
-1.343499999999999943e+02
-1.031200000000000045e+02
1.610500000000000114e+02
5.136999999999999744e+01
1.942000000000000171e+01
5.872999999999999687e+01
-2.826600000000000250e+02
3.697999999999999687e+01
-1.870099999999999909e+02
1.140000000000000036e+01
-1.041400000000000006e+02
-2.111999999999999886e+02
1.743400000000000034e+02
8.245999999999999375e+01
-2.109300000000000068e+02
-3.001999999999999957e+01
7.845000000000000284e+01
-6.078999999999999915e+01
9.421999999999999886e+01
3.831000000000000227e+01
-1.364000000000000057e+01
1.062399999999999949e+02
-2.376999999999999957e+01
1.791500000000000057e+02
9.007999999999999829e+01
-5.780000000000000249e+00
-4.310000000000000142e+01
8.384000000000000341e+01
-1.988400000000000034e+02
-1.263199999999999932e+02
1.364300000000000068e+02
-5.293999999999999773e+01
2.864000000000000057e+01
-1.041000000000000014e+01
9.401999999999999602e+01
-2.684700000000000273e+02
-2.002700000000000102e+02
1.373700000000000045e+02
1.067699999999999960e+02
-9.171999999999999886e+01
1.428199999999999932e+02
9.343000000000000682e+01
-8.020000000000000284e+01
7.219999999999999751e+00
-3.263000000000000256e+01
-1.773000000000000043e+01
1.097900000000000063e+02
-6.111999999999999744e+01
5.977000000000000313e+01
5.092999999999999972e+01
-1.092999999999999972e+02
2.348000000000000043e+01
-2.264000000000000057e+01
-6.437999999999999545e+01
4.260000000000000142e+01
2.501000000000000156e+01
-5.036999999999999744e+01
7.573000000000000398e+01
5.485999999999999943e+01
-3.100000000000000000e+01
5.750999999999999801e+01
-4.935999999999999943e+01
-1.578499999999999943e+02
8.585999999999999943e+01
-4.289999999999999858e+01
-1.109099999999999966e+02
1.230400000000000063e+02
-2.089999999999999858e+01
-1.676599999999999966e+02
7.450000000000000000e+01
-6.124000000000000199e+01
-1.197199999999999989e+02
2.240399999999999920e+02
-1.805999999999999872e+01
-1.471599999999999966e+02
9.393000000000000682e+01
-4.746000000000000085e+01
-2.767900000000000205e+02
1.325099999999999909e+02
1.350999999999999979e+01
-1.343300000000000125e+02
1.166299999999999955e+02
1.744000000000000128e+01
-3.176000000000000156e+01
5.731000000000000227e+01
-2.100000000000000000e+01
-1.203400000000000034e+02
9.081999999999999318e+01
1.948999999999999844e+01
-1.665099999999999909e+02
1.922700000000000102e+02
4.422999999999999687e+01
-8.029999999999999716e+01
3.102400000000000091e+02
1.758499999999999943e+02
-2.681000000000000227e+02
-6.092999999999999972e+01
