1593203567.00
64.000000
-0.00
-0.00
-0.00
-0.00
-0.00
-0.00
-0.00
-0.00
-0.00
-0.00
0.00
0.01
0.01
-0.00
-0.03
-0.05
-0.05
0.00
0.13
0.36
0.66
1.01
1.37
1.72
2.06
2.40
2.79
3.24
3.80
4.42
5.06
5.66
6.20
6.68
7.15
7.68
8.31
9.14
10.09
11.04
11.88
12.56
13.14
13.76
14.65
15.96
17.91
20.32
22.90
25.38
27.58
29.57
31.68
34.32
37.81
42.54
48.15
54.10
59.83
64.97
69.58
74.14
79.34
85.71
93.76
103.00
112.62
121.73
129.77
136.75
143.30
150.75
157.77
166.64
177.95
191.79
206.97
220.57
228.25
225.36
208.53
176.87
132.76
80.05
23.07
-34.94
-92.44
-149.16
-205.23
-260.37
-313.74
-363.87
-409.83
-450.91
-486.51
-515.74
-537.22
-549.20
-549.93
-538.33
-514.20
-478.73
-434.03
-382.70
-327.36
-270.24
-213.05
-157.06
-103.34
-52.77
-6.35
35.05
70.79
100.64
124.76
143.65
157.99
168.44
175.58
179.78
181.35
180.60
177.86
173.54
168.04
161.67
154.67
147.15
139.21
130.96
122.61
114.40
106.52
99.04
91.88
84.81
77.61
70.16
62.60
55.23
48.45
42.55
37.52
33.06
28.69
23.97
18.71
13.14
7.76
3.14
-0.38
-2.86
-4.71
-6.52
-8.75
-11.63
-15.19
-19.35
-23.84
-27.98
-30.62
-30.22
-25.48
-16.01
-2.82
11.83
25.20
35.02
40.39
41.70
40.21
37.23
33.58
29.49
25.00
20.53
17.07
15.97
18.09
23.19
29.63
34.93
36.78
34.18
27.89
20.04
13.04
8.48
6.53
6.19
6.10
5.33
3.81
2.06
0.74
0.15
0.15
0.31
0.19
-0.46
-1.53
-2.68
-3.52
-3.82
-3.62
-3.26
-3.16
-3.62
-4.65
-5.85
-6.73
-6.83
-6.04
-4.57
-2.86
-1.33
-0.19
0.63
1.36
2.22
3.28
4.48
5.64
6.61
7.31
7.77
8.13
8.64
9.56
11.10
13.26
15.88
18.59
20.93
22.48
22.99
22.36
20.66
18.09
14.69
10.60
5.97
1.02
-3.95
-8.62
-12.65
-15.79
-17.92
-19.16
-19.72
-19.83
-19.72
-19.43
-18.91
-18.09
-16.93
-15.56
-14.17
-12.93
-11.92
-11.08
-10.31
-9.53
-8.71
-7.90
-7.14
-6.51
-6.05
-5.75
-5.59
-5.50
-5.43
-5.27
-4.99
-4.55
-4.03
-3.52
-3.18
-3.14
-3.42
-3.93
-4.42
-4.52
-3.94
-2.48
-0.15
2.75
5.77
8.46
10.52
11.89
12.73
13.29
13.76
14.24
14.65
14.83
14.64
14.07
13.24
12.35
11.57
10.83
10.13
9.40
8.63
7.85
7.19
6.74
6.56
6.54
6.48
6.21
5.62
4.74
3.69
2.61
1.54
0.47
-0.68
-1.93
-3.28
-4.65
-5.98
-7.21
-8.32
-9.32
-10.26
-11.24
-12.31
-13.53
-14.91
-16.46
-18.14
-19.84
-21.34
-22.29
-22.28
-20.94
-18.10
-13.92
-8.76
-3.18
2.32
7.34
11.70
15.33
18.27
20.54
22.20
23.28
23.78
23.68
22.98
21.75
20.08
18.17
16.19
14.26
12.44
10.72
9.13
7.66
6.29
4.96
3.58
2.08
0.50
-1.04
-2.37
-3.38
-4.13
-4.80
-5.66
-6.93
-8.65
-10.67
-12.72
-14.51
-15.86
-16.77
-17.38
-17.92
-18.64
-19.74
-21.28
-23.25
-25.46
-27.56
-29.11
-29.56
-28.49
-25.72
-21.38
-15.92
-9.89
-3.80
1.98
7.23
11.81
15.62
18.54
20.52
21.62
22.01
21.86
21.34
20.51
19.42
18.14
16.73
15.31
13.98
12.76
11.67
10.71
9.90
9.23
8.70
8.23
7.75
7.14
6.39
5.53
4.64
3.78
2.96
2.09
1.09
-0.11
-1.50
-2.99
-4.45
-5.76
-6.84
-7.68
-8.33
-8.89
-9.48
-10.27
-11.44
-13.13
-15.31
-17.81
-20.25
-22.16
-23.17
-23.03
-21.69
-19.19
-15.67
-11.28
-6.27
-0.98
4.16
8.74
12.45
15.22
17.15
18.41
19.13
19.33
18.98
18.04
16.58
14.77
12.83
10.96
9.25
7.68
6.16
4.62
3.06
1.55
0.22
-0.84
-1.63
-2.27
-2.95
-3.81
-4.90
-6.11
-7.27
-8.23
-9.00
-9.75
-10.69
-11.94
-13.44
-14.96
-16.24
-17.17
-17.89
-18.70
-19.97
-21.90
-24.39
-27.10
-29.50
-31.06
-31.41
-30.37
-27.93
-24.25
-19.56
-14.13
-8.30
-2.43
3.18
8.25
12.61
16.20
19.00
21.07
22.49
23.31
23.57
23.31
22.54
21.30
19.67
17.81
15.92
14.23
12.90
11.94
11.24
10.57
9.73
8.60
7.17
5.56
3.88
2.24
0.73
-0.62
-1.79
-2.81
-3.78
-4.85
-6.19
-7.92
-10.05
-12.37
-14.62
-16.52
-17.96
-19.06
-20.12
-21.49
-23.42
-25.92
-28.72
-31.31
-33.16
-33.85
-33.13
-30.96
-27.38
-22.60
-16.84
-10.36
-3.48
3.39
9.79
15.31
19.68
22.83
24.73
25.41
24.93
23.29
20.49
16.61
11.97
7.13
2.78
-0.90
-4.01
-6.89
-9.80
-12.70
-15.23
-16.81
-16.88
-15.24
-12.60
-10.01
-8.21
-7.40
-7.37
-7.84
-8.77
-10.33
-12.67
-16.36
-21.57
-27.90
-34.48
-40.58
-45.86
-50.44
-54.50
-54.25
-47.24
-33.61
-16.45
0.39
14.39
24.97
32.61
38.23
42.56
45.27
45.68
43.48
39.41
34.49
29.81
25.84
22.42
18.85
13.82
6.48
-2.96
-13.03
-21.59
-25.55
-23.27
-14.94
-2.25
12.02
25.16
35.19
41.20
43.13
41.62
37.44
31.63
25.41
19.69
14.63
9.45
2.83
-6.30
-17.51
-28.83
-36.96
-38.69
-32.71
-20.46
-5.75
6.89
14.24
16.08
14.64
13.63
16.37
24.64
37.43
51.78
64.47
73.67
79.86
84.62
89.79
96.31
104.12
111.40
115.57
114.90
106.28
89.55
65.90
37.27
3.89
-30.13
-59.49
-80.75
-93.41
-98.62
-97.08
-89.39
-76.54
-60.91
-45.60
-34.44
-30.70
-35.61
-47.40
-61.02
-70.75
-69.66
-53.64
-23.09
16.00
54.05
81.69
93.54
90.00
76.19
59.25
44.78
35.34
30.11
26.51
22.25
17.31
12.09
6.94
1.93
-3.28
-8.84
-14.65
-20.21
-24.86
-28.10
-29.85
-30.28
-29.76
-28.77
-27.75
-27.06
-26.89
-27.12
-27.27
-26.76
-25.01
-21.88
-17.75
-13.41
-9.76
-7.53
-6.91
-7.49
-8.48
-9.02
-9.07
-9.24
-10.58
-13.90
-19.21
-25.49
-31.06
-34.40
-35.06
-34.68
-35.91
-41.25
-51.69
-66.12
-81.54
-94.20
-100.96
-100.39
-93.83
-83.95
-73.38
-63.78
-55.77
-49.58
-45.70
-44.91
-42.91
-36.18
-21.94
0.31
28.07
56.26
78.88
91.43
93.22
87.71
79.97
74.10
71.36
70.25
68.43
64.78
59.97
55.68
53.21
52.74
53.15
53.70
54.44
55.48
56.15
54.41
47.88
35.63
19.16
2.45
-9.68
-14.16
-11.14
-3.57
4.52
10.12
12.41
12.08
10.06
6.58
0.86
-8.54
-21.36
-35.68
-48.59
-57.77
-62.28
-62.56
-59.73
-54.94
-48.99
-42.08
-34.60
-27.21
-20.92
-16.52
-14.25
-13.71
-14.01
-14.35
-14.21
-13.93
-14.19
-15.48
-17.71
-19.83
-20.94
-20.45
-18.36
-14.89
-10.99
-7.67
-5.85
-5.62
-6.46
-7.28
-6.50
-2.74
5.00
15.99
28.45
39.87
48.44
53.46
55.57
56.77
57.03
57.49
58.75
61.43
63.00
62.16
58.79
53.84
48.67
43.68
41.25
39.68
37.54
34.11
29.75
25.18
19.58
13.31
7.13
2.55
0.62
2.32
7.47
14.99
22.83
28.64
30.94
29.42
25.47
21.36
20.21
24.49
35.58
53.08
74.62
96.28
113.22
121.08
116.76
99.62
71.06
35.15
-2.05
-33.97
-55.57
-65.19
-64.82
-59.07
-52.68
-49.54
-50.01
-51.34
-49.97
-44.18
-35.18
-25.93
-19.36
-16.92
-20.49
-30.78
-47.37
-69.19
-95.05
-123.30
-151.42
-176.45
-195.93
-211.37
-225.02
-238.07
-250.11
-259.99
-266.26
-267.27
-261.47
-233.25
-178.25
-106.18
-34.69
22.95
62.65
86.90
100.40
107.37
110.82
110.08
104.74
96.31
87.75
81.59
78.98
80.54
84.69
89.94
93.30
93.06
89.71
85.38
82.13
80.93
80.98
79.98
75.30
63.88
44.97
21.04
-3.16
-24.56
-40.26
-49.56
-53.80
-55.01
-55.50
-56.45
-57.71
-58.43
-57.79
-54.92
-49.13
-39.72
-26.08
-8.50
11.72
32.45
51.33
66.47
77.35
84.52
89.24
92.87
95.97
97.93
97.32
92.89
84.55
74.01
64.05
57.38
55.46
57.80
62.37
66.65
68.78
68.21
65.65
62.29
59.16
56.79
55.22
54.15
53.14
51.66
49.16
45.18
39.42
31.84
22.63
12.04
0.31
-12.34
-25.48
-38.47
-50.50
-60.98
-69.80
-77.30
-83.83
-89.10
-91.79
-89.85
-81.44
-65.96
-44.56
-19.82
5.37
28.87
49.92
68.68
85.37
99.35
109.08
112.79
109.51
99.93
86.22
71.29
57.60
46.47
37.85
30.81
24.08
16.48
7.07
-4.75
-19.03
-35.06
-51.34
-65.92
-77.06
-83.82
-86.20
-84.73
-79.96
-72.12
-61.33
-48.19
-34.14
-21.32
-11.95
-7.64
-9.02
-15.94
-27.70
-43.30
-61.35
-79.94
-96.76
-109.65
-117.25
-119.33
-116.55
-109.83
-99.84
-86.81
-71.00
-53.25
-35.21
-18.92
-5.93
3.46
10.36
16.69
24.07
32.93
42.21
49.94
54.21
54.22
50.47
44.41
37.54
30.64
23.51
15.44
5.83
-5.19
-16.73
-27.49
-36.33
-42.75
-46.83
-48.94
-49.32
-47.80
-43.96
-37.54
-28.82
-18.83
-9.15
-1.35
3.53
5.37
4.84
3.04
0.90
-1.14
-3.21
-5.75
-9.16
-13.59
-19.03
-25.38
-32.65
-40.83
-49.74
-58.76
-66.91
-73.12
-76.75
-77.90
-77.42
-76.52
-76.09
-76.28
-76.37
-75.13
-71.49
-64.99
-56.03
-45.63
-35.04
-25.28
-16.83
-9.60
-2.95
3.92
11.76
20.93
31.40
42.88
55.07
67.94
81.80
97.06
113.78
131.14
147.29
159.71
166.13
165.35
157.82
145.51
131.25
117.71
106.66
98.69
93.26
89.32
85.77
81.90
77.47
72.60
67.43
62.06
56.61
51.25
46.40
42.64
40.62
40.74
42.91
46.36
50.04
53.17
55.64
57.98
61.03
65.40
71.24
78.29
85.80
93.28
100.47
106.88
111.18
111.27
105.22
92.35
73.87
51.62
27.95
4.96
-16.03
-34.66
-51.06
-64.86
-74.82
-79.29
-78.43
-73.46
-65.76
-56.32
-45.88
-35.38
-26.10
-19.87
-19.07
-27.94
-49.65
-84.10
-127.08
-171.91
-211.86
-242.27
-261.79
-262.13
-240.76
-203.77
-162.93
-127.40
-99.47
-77.07
-57.65
-40.13
-24.72
-13.47
-7.39
-5.39
-4.90
-3.84
-1.78
0.52
2.42
4.31
6.33
9.07
13.39
19.85
28.03
36.52
43.85
49.17
52.38
52.98
50.72
46.16
40.81
36.47
34.33
34.49
35.81
36.56
35.03
30.65
24.53
18.76
15.19
14.29
15.05
15.66
14.65
11.57
6.85
1.22
-5.03
-11.73
-18.37
-23.62
-25.40
-21.79
-12.18
1.86
16.93
29.11
35.22
34.43
28.32
19.40
9.71
0.29
-8.59
-16.72
-23.56
-28.33
-30.37
-30.01
-27.65
-24.31
-21.01
-18.36
-16.42
-14.88
-13.33
-11.45
-9.15
-6.58
-4.17
-2.26
-1.09
-0.69
-0.88
-1.41
-1.97
-2.45
-2.90
-3.55
-4.51
-5.69
-6.68
-6.98
-6.15
-4.06
-0.94
2.71
5.98
8.14
9.01
9.00
8.89
9.44
11.06
13.75
17.16
20.81
24.33
27.40
29.75
31.01
30.83
29.15
26.37
23.37
21.11
20.25
20.81
22.21
23.51
23.80
22.70
20.53
18.07
16.08
14.97
14.66
14.74
14.70
13.74
11.31
7.40
2.64
-1.96
-5.40
-6.98
-6.65
-5.08
-4.00
-5.05
-8.80
-14.46
-20.36
-24.81
-26.76
-26.13
-23.57
-20.82
-19.37
-19.74
-21.49
-23.94
-26.76
-30.02
-34.00
-35.05
-30.64
-21.27
-10.17
-0.23
7.60
13.92
20.01
26.09
32.81
39.02
42.97
43.42
40.28
34.46
27.23
20.32
15.02
11.92
10.10
8.22
5.31
1.14
-4.06
-10.08
-16.80
-24.09
-31.45
-38.35
-44.03
-47.69
-48.81
-47.57
-44.68
-40.83
-36.41
-31.34
-25.70
-19.78
-14.15
-9.44
-6.04
-3.80
-2.06
-0.08
2.55
5.51
8.02
9.37
9.37
8.55
7.89
8.31
10.14
12.97
15.83
17.68
17.83
16.04
12.54
7.77
2.37
-2.83
-6.82
-8.60
-7.60
-3.96
1.41
7.19
12.09
15.31
16.70
16.57
15.38
13.60
11.58
9.60
7.83
6.29
4.77
2.96
0.63
-2.16
-5.01
-7.35
-8.73
-9.08
-8.69
-8.05
-7.57
-7.42
-7.54
-7.83
-8.29
-9.14
-10.70
-13.14
-16.21
-19.17
-20.94
-20.57
-17.68
-12.73
-6.82
-1.23
3.18
6.27
8.54
10.73
13.28
16.07
18.55
20.05
20.25
19.30
17.75
16.22
15.09
14.35
13.73
12.91
11.74
10.41
9.29
8.75
8.85
9.29
9.53
9.07
7.76
5.90
4.09
2.81
2.14
1.67
0.70
-1.31
-4.44
-8.21
-11.89
-14.87
-17.03
-18.67
-20.25
-22.04
-23.93
-25.52
-26.51
-26.97
-27.41
-28.45
-30.40
-32.92
-35.10
-35.82
-34.25
-30.24
-24.38
-17.66
-11.01
-5.01
0.24
4.92
9.16
12.86
15.64
17.12
17.17
16.11
14.59
13.36
12.93
13.29
14.02
14.53
14.49
13.97
13.41
13.28
13.79
14.73
15.51
15.54
14.50
12.50
10.03
7.67
5.84
4.62
3.80
2.99
1.88
0.30
-1.74
-4.10
-6.67
-9.39
-12.31
-15.52
-19.09
-22.99
-27.04
-30.89
-34.16
-36.51
-37.77
-38.05
-37.54
-36.43
-34.79
-32.56
-29.82
-26.89
-24.33
-22.67
-21.99
-21.82
-21.31
-19.70
-16.85
-13.27
-9.74
-6.67
-3.64
0.30
6.03
13.59
21.81
28.83
32.91
33.32
30.63
26.25
21.64
17.75
14.80
12.49
10.57
9.07
8.33
8.64
9.94
11.69
13.01
13.05
11.29
7.81
3.31
-1.07
-4.14
-5.07
-3.84
-1.21
1.66
3.63
4.16
3.47
2.34
1.59
1.50
1.67
1.30
0.14
-1.40
-2.24
-1.09
2.85
9.37
17.27
24.81
30.45
33.99
36.02
37.55
39.34
41.54
43.65
44.90
44.60
42.42
38.94
34.65
29.63
23.73
17.11
10.87
7.08
8.23
12.23
17.20
21.04
22.24
20.09
14.86
7.71
0.29
-6.14
-11.05
-14.17
-15.82
-16.52
-16.72
-16.63
-16.29
-15.65
-14.84
-13.99
-12.91
-11.58
-10.14
-8.85
-7.88
-7.24
-6.79
-6.37
-5.63
-3.84
-0.38
4.97
11.58
17.89
21.72
21.57
16.21
6.31
-5.69
-16.71
-24.27
-27.44
-26.91
-24.39
-21.60
-19.55
-18.13
-16.38
-13.30
-8.25
-1.12
7.61
17.01
25.66
31.83
33.95
31.06
23.04
10.85
-3.42
-17.23
-28.33
-35.26
-37.66
-36.03
-31.33
-25.05
-18.95
-14.50
-13.04
-15.57
-22.24
-32.10
-43.05
-52.24
-57.36
-57.11
-51.17
-40.31
-25.99
-9.91
6.02
18.83
28.30
35.33
39.30
39.96
37.41
32.04
24.62
16.08
7.49
0.07
-5.55
-9.22
-10.93
-10.99
-9.92
-8.30
-6.63
-5.12
-3.55
-1.72
0.58
3.80
8.24
13.90
20.38
26.95
32.87
37.74
41.58
44.91
48.74
54.01
61.20
70.13
79.99
89.58
97.70
103.41
106.48
107.66
108.66
111.56
117.98
128.34
141.61
155.80
168.90
179.95
189.47
199.21
211.24
226.95
246.32
267.72
288.08
303.53
310.29
305.71
289.03
261.73
227.04
188.88
150.60
114.24
80.39
48.84
19.28
-8.26
-33.56
-56.58
-77.78
-98.15
-118.80
-140.62
-164.14
-189.72
-217.60
-247.75
-279.37
-310.37
-337.49
-356.98
-365.95
-363.40
-350.68
-330.80
-307.36
-283.29
-260.38
-239.37
-220.49
-203.82
-189.42
-177.08
-166.18
-155.81
-145.13
-133.76
-121.90
-110.11
-99.07
-89.10
-80.06
-71.42
-62.54
-52.96
-42.66
-32.00
-21.63
-12.19
-4.15
2.35
7.39
11.20
14.04
16.15
17.79
19.16
20.43
21.66
22.78
23.65
24.18
24.38
24.43
24.52
24.74
24.96
24.91
24.34
23.17
21.61
20.03
18.72
17.73
16.83
15.64
13.82
11.26
8.14
4.82
1.68
-1.11
-3.67
-6.29
-9.35
-13.02
-17.21
-21.57
-25.59
-28.79
-30.86
-31.71
-31.32
-29.74
-26.97
-23.01
-17.95
-12.04
-5.74
0.42
5.97
10.59
14.25
17.04
19.16
20.76
21.90
22.62
22.95
23.05
23.12
23.38
23.94
24.81
25.90
27.09
28.35
29.66
31.09
32.58
34.04
35.31
36.21
36.59
36.42
35.75
34.68
33.31
31.66
29.68
27.23
24.20
20.51
16.25
11.63
6.93
2.39
-1.89
-5.97
-10.02
-14.23
-18.66
-23.21
-27.59
-31.38
-34.14
-35.55
-35.40
-33.68
-30.49
-26.10
-20.86
-15.21
-9.59
-4.42
-0.02
3.46
6.01
7.75
8.87
9.52
9.82
9.81
9.54
9.06
8.51
8.03
7.79
7.85
8.20
8.73
9.28
9.73
10.02
10.19
10.27
10.28
10.17
9.88
9.35
8.55
7.50
6.23
4.84
3.44
2.19
1.18
0.46
-0.01
-0.33
-0.57
-0.73
-0.76
-0.59
-0.31
-0.12
-0.33
-1.21
-2.84
-5.09
-7.66
-10.16
-12.29
-13.80
-14.55
-14.41
-13.28
-11.12
-8.04
-4.34
-0.46
3.13
6.10
8.32
9.89
10.99
11.79
12.33
12.56
12.45
12.00
11.33
10.59
9.93
9.43
9.12
9.03
9.23
9.75
10.58
11.58
12.46
12.89
12.55
11.30
9.20
6.50
3.50
0.45
-2.54
-5.51
-8.60
-11.96
-15.64
-19.53
-23.39
-26.87
-29.68
-31.64
-32.84
-33.59
-34.34
-35.54
-37.45
-40.04
-42.88
-45.37
-46.86
-46.87
-45.08
-41.40
-35.74
-28.09
-18.41
-6.72
6.91
22.35
39.39
57.70
76.57
94.81
110.79
122.79
129.45
130.28
125.73
116.99
105.51
92.49
78.74
64.66
50.62
37.09
24.59
13.62
4.42
-3.03
-8.93
-13.49
-16.86
-19.13
-20.39
-20.82
-20.69
-20.32
-20.00
-19.93
-20.26
-21.03
-22.24
-23.79
-25.52
-27.20
-28.61
-29.68
-30.48
-31.21
-32.06
-33.12
-34.21
-34.94
-34.81
-33.43
-30.62
-26.46
-21.21
-15.19
-8.71
-2.13
4.18
9.78
14.20
17.14
18.49
18.45
17.41
15.83
14.09
12.41
10.93
9.68
8.71
8.10
7.94
8.35
9.39
11.06
13.15
15.37
17.33
18.68
19.24
19.01
18.16
16.91
15.45
13.77
11.75
9.25
6.16
2.55
-1.41
-5.50
-9.55
-13.43
-17.12
-20.57
-23.71
-26.41
-28.61
-30.24
-31.31
-31.82
-31.69
-30.81
-29.05
-26.37
-22.84
-18.66
-14.10
-9.44
-4.88
-0.61
3.24
6.58
9.30
11.36
12.76
13.54
13.77
13.49
12.74
11.57
10.11
8.55
7.10
5.94
5.14
4.63
4.28
3.95
3.60
3.26
3.03
2.98
3.08
3.19
3.15
2.87
2.35
1.72
1.15
0.75
0.59
0.60
0.66
0.65
0.45
-0.09
-1.03
-2.43
-4.24
-6.34
-8.46
-10.28
-11.46
-11.77
-11.10
-9.48
-7.05
-4.01
-0.61
2.92
6.32
9.37
11.91
13.80
15.03
15.65
15.82
15.74
15.54
15.30
14.94
14.31
13.35
12.12
10.82
9.73
9.06
8.83
8.89
9.00
8.91
8.49
7.77
6.86
5.89
4.95
4.02
3.01
1.76
0.16
-1.81
-3.99
-6.14
-7.99
-9.42
-10.48
-11.38
-12.39
-13.71
-15.41
-17.45
-19.78
-22.32
-24.98
-27.52
-29.61
-30.78
-30.68
-29.14
-26.30
-22.52
-18.26
-13.88
-9.59
-5.43
-1.43
2.34
5.68
8.33
10.11
11.03
11.30
11.24
11.18
11.26
11.41
11.40
10.99
10.11
8.90
7.64
6.63
6.00
5.74
5.66
5.58
5.39
5.08
4.73
4.41
4.13
3.82
3.41
2.86
2.15
1.27
0.27
-0.82
-1.95
-3.08
-4.15
-5.15
-6.09
-7.00
-7.95
-9.06
-10.37
-11.90
-13.55
-15.14
-16.42
-17.13
-17.05
-16.03
-14.07
-11.26
-7.82
-4.03
-0.20
3.38
6.49
9.01
10.88
12.11
12.72
12.76
12.32
11.53
10.54
9.49
8.49
7.52
6.56
5.64
4.82
4.25
4.02
4.11
4.33
4.41
4.09
3.31
2.22
1.08
0.15
-0.48
-0.89
-1.32
-1.96
-2.89
-4.06
-5.33
-6.55
-7.61
-8.48
-9.17
-9.75
-10.28
-10.93
-11.84
-13.12
-14.75
-16.52
-18.06
-18.95
-18.85
-17.64
-15.40
-12.38
-8.90
-5.24
-1.59
1.94
5.30
8.46
11.31
13.74
15.56
16.60
16.78
16.20
15.12
13.86
12.71
11.80
11.08
10.44
9.76
9.05
8.42
7.98
7.82
7.89
8.04
8.06
7.80
7.17
6.24
5.13
4.03
3.08
2.33
1.73
1.16
0.48
-0.40
-1.54
-2.89
-4.39
-5.96
-7.49
-8.94
-10.28
-11.55
-12.78
-14.00
-15.16
-16.11
-16.64
-16.52
-15.57
-13.72
-11.00
-7.58
-3.72
0.28
4.08
7.43
10.20
12.36
14.00
15.23
16.12
16.66
16.84
16.68
16.25
15.70
15.13
14.60
14.02
13.30
12.36
11.22
10.01
8.92
8.08
7.50
7.09
6.67
6.08
5.23
4.15
2.89
1.51
0.03
-1.53
-3.14
-4.73
-6.15
-7.28
-8.08
-8.65
-9.16
-9.84
-10.85
-12.21
-13.87
-15.71
-17.58
-19.32
-20.74
-21.63
-21.78
-21.04
-19.35
-16.72
-13.28
-9.21
-4.80
-0.36
3.76
7.32
10.24
12.57
14.46
16.01
17.22
17.97
18.13
17.65
16.62
15.28
13.89
12.68
11.79
11.25
11.01
10.95
10.93
10.75
10.27
9.42
8.25
6.89
5.49
4.16
2.94
1.80
0.65
-0.57
-1.91
-3.38
-4.94
-6.56
-8.19
-9.77
-11.25
-12.67
-14.08
-15.62
-17.37
-19.39
-21.60
-23.81
-25.76
-27.16
-27.75
-27.36
-25.93
-23.56
-20.38
-16.58
-12.23
-7.43
-2.26
3.07
8.19
12.68
16.18
18.60
20.10
21.08
21.99
23.21
24.93
27.20
29.93
32.89
35.71
37.91
38.96
38.45
36.33
32.92
28.92
25.08
21.97
19.79
18.25
16.80
14.82
11.96
8.25
4.06
-0.05
-3.62
-6.39
-8.35
-9.59
-10.22
-10.32
-9.93
-9.27
-8.80
-9.15
-10.92
-14.32
-18.97
-23.93
-27.98
-30.02
-29.49
-26.47
-21.60
-15.69
-9.49
-3.47
2.19
7.40
12.05
15.92
18.80
20.58
21.41
21.60
21.56
21.59
21.78
21.95
21.79
21.03
19.55
17.47
15.06
12.62
10.39
8.44
6.76
5.28
3.89
2.55
1.23
0.01
-0.98
-1.54
-1.53
-0.96
-0.03
0.90
1.37
1.01
-0.33
-2.60
-5.51
-8.70
-11.77
-14.46
-16.71
-18.65
-20.55
-22.65
-25.04
-27.59
-29.92
-31.55
-32.07
-31.27
-29.16
-26.03
-22.22
-18.08
-13.86
-9.67
-5.61
-1.77
1.68
4.50
6.50
7.62
7.97
7.87
7.69
7.64
7.82
8.08
8.21
8.01
7.46
6.64
5.73
4.95
4.39
4.08
3.92
3.78
3.53
3.08
2.42
1.57
0.57
-0.57
-1.83
-3.18
-4.55
-5.81
-6.85
-7.61
-8.16
-8.67
-9.32
-10.25
-11.47
-12.89
-14.40
-16.00
-17.77
-19.83
-22.19
-24.67
-26.87
-28.30
-28.55
-27.42
-25.01
-21.67
-17.85
-13.95
-10.22
-6.78
-3.67
-0.94
1.32
3.02
4.10
4.54
4.40
3.72
2.57
0.99
-1.01
-3.40
-6.15
-9.31
-12.99
-17.26
-22.12
-27.34
-32.48
-36.97
-40.37
-42.53
-43.68
-44.34
-45.12
-46.48
-48.51
-50.93
-53.14
-54.53
-54.79
-54.18
-53.60
-54.34
-57.60
-63.96
-73.03
-83.58
-93.83
-101.96
-106.47
-106.54
-102.32
-95.12
-87.36
-81.97
-81.29
-85.98
-94.61
-104.19
-111.64
-115.47
-116.56
-117.78
-122.39
-132.29
-146.93
-163.47
-178.04
-187.26
-189.30
-183.89
-172.10
-155.56
-135.77
-113.50
-88.56
-60.16
-27.46
9.39
48.71
86.50
116.81
133.18
130.88
108.65
69.26
18.75
-35.33
-85.04
-124.10
-148.79
-157.92
-152.24
-133.83
-105.73
-71.42
-34.00
6.41
50.84
100.10
154.02
211.92
272.76
334.79
395.15
449.91
498.37
539.47
570.81
589.36
593.99
586.82
571.83
552.34
529.65
509.16
494.73
487.01
483.70
482.36
481.69
480.29
475.59
464.82
454.53
452.78
464.38
488.60
521.52
558.65
595.43
627.31
601.15
488.19
299.80
82.80
-114.60
-267.73
-374.43
-443.90
-487.76
-515.76
-529.02
-525.74
-508.44
-485.48
-466.19
-456.06
-456.35
-466.49
-480.22
-489.08
-488.77
-481.80
-475.28
-474.81
-480.29
-486.53
-486.68
-475.45
-448.00
-403.93
-348.42
-290.25
-237.64
-195.27
-163.86
-141.11
-122.48
-101.21
-71.24
-29.72
22.30
80.82
139.95
192.85
233.15
256.55
262.07
251.21
226.51
190.84
147.37
99.27
49.33
-0.12
-47.10
-86.48
-111.08
-116.41
-103.81
-78.76
-47.60
-16.08
10.91
29.68
38.47
37.50
28.90
16.18
3.26
-7.22
-14.21
-17.57
-17.83
-15.84
-12.93
-10.11
-7.58
-4.67
-0.47
5.34
12.97
22.02
31.55
39.26
42.95
41.31
34.41
23.40
9.89
-3.36
-13.79
-19.93
-21.88
-20.25
-15.57
-7.97
2.55
15.62
31.88
51.54
73.35
90.75
95.70
83.78
57.84
28.84
1.07
-22.81
-41.21
-52.93
-57.24
-54.09
-44.47
-30.89
-17.29
-8.46
-6.82
-12.39
-22.99
-35.32
-45.62
-50.85
-49.70
-42.79
-32.31
-19.89
-6.86
5.60
16.23
24.29
29.69
32.77
33.75
32.17
27.83
20.78
11.74
2.31
-5.21
-8.81
-7.87
-3.86
0.20
1.64
-0.57
-5.19
-9.27
-9.58
-4.17
6.54
19.96
32.33
40.47
42.86
40.00
33.87
26.74
20.09
14.10
8.20
2.06
-3.73
-7.70
-8.36
-5.25
0.75
7.78
13.98
18.35
20.88
21.86
21.24
18.50
13.32
6.29
-0.97
-6.62
-9.35
-8.77
-5.49
-0.64
4.69
9.96
15.00
19.66
23.15
24.75
24.51
23.14
21.33
19.44
17.54
15.49
13.09
9.65
5.08
0.57
-1.92
-1.08
2.89
8.25
12.26
12.18
5.45
-8.42
-27.24
-47.42
-65.85
-80.39
-89.11
-89.94
-76.21
-47.36
-13.37
10.40
13.64
-3.92
-34.07
-64.66
-85.40
-92.05
-87.87
-79.60
-72.11
-65.76
-57.60
-45.53
-27.58
-5.18
17.67
36.29
48.48
55.69
61.29
67.66
74.66
78.04
75.74
68.51
59.06
50.78
46.22
45.59
46.87
47.32
45.30
41.00
35.44
29.77
23.58
16.78
9.47
1.81
-5.92
-13.28
-19.57
-24.32
-27.69
-30.19
-32.48
-35.30
-39.23
-44.30
-49.90
-54.96
-57.29
-56.22
-52.41
-47.43
-43.23
-41.40
-42.64
-46.64
-52.21
-57.66
-61.11
-60.44
-53.47
-38.88
-16.96
10.01
38.23
63.65
83.40
96.54
104.13
108.29
110.82
112.45
112.92
111.81
109.31
106.41
104.28
103.48
103.34
102.18
98.01
89.61
76.99
61.34
44.36
27.57
12.01
-1.62
-12.73
-20.94
-26.51
-30.80
-36.08
-44.68
-57.56
-73.39
-88.73
-99.47
-102.79
-98.59
-89.44
-79.14
-70.76
-65.26
-61.58
-57.80
-52.63
-46.14
-39.38
-33.34
-28.10
-22.67
-15.79
-6.93
3.09
12.33
18.69
21.07
19.92
17.03
14.67
14.50
16.84
20.73
24.42
26.30
25.52
22.30
17.70
13.08
9.50
7.34
6.37
6.02
5.72
5.20
4.44
3.58
2.62
1.42
-0.25
-2.51
-5.24
-8.06
-10.46
-12.13
-13.08
-13.78
-14.87
-16.82
-19.64
-22.79
-25.48
-27.11
-27.72
-28.07
-29.26
-32.06
-36.35
-41.04
-44.52
-45.39
-43.20
-38.53
-32.63
-26.73
-21.47
-16.74
-11.97
-6.65
-0.69
5.47
11.08
15.51
18.45
20.03
20.61
20.60
20.22
19.53
18.54
17.42
16.50
16.18
16.65
17.71
18.73
19.06
18.33
16.84
15.44
15.21
16.79
20.09
24.10
27.37
28.57
27.09
23.24
18.11
12.98
8.79
5.78
3.57
1.60
-0.46
-2.50
-4.16
-5.15
-5.52
-5.68
-5.98
-6.36
-6.18
-4.44
-0.30
6.37
14.83
23.59
30.98
35.80
37.70
37.21
35.31
32.87
30.31
27.49
24.05
19.84
15.10
10.50
6.79
4.51
3.80
4.41
5.93
7.96
10.29
12.79
15.27
17.26
18.00
16.56
12.31
5.37
-3.26
-11.95
-19.08
-23.75
-26.06
-26.89
-27.29
-27.85
-28.51
-28.81
-28.34
-27.07
-25.50
-24.35
-24.32
-25.84
-28.95
-33.37
-38.49
-43.51
-47.60
-50.07
-50.53
-48.93
-45.53
-40.79
-35.27
-29.59
-24.31
-19.85
-16.37
-13.67
-11.26
-8.60
-5.32
-1.44
2.55
5.91
7.94
8.31
7.29
5.57
4.04
3.33
3.56
4.40
5.29
5.82
5.89
5.72
5.58
5.57
5.50
5.00
3.77
1.80
-0.59
-2.93
-4.81
-6.14
-7.16
-8.27
-9.82
-11.78
-13.79
-15.30
-15.89
-15.53
-14.75
-14.34
-14.98
-16.87
-19.50
-21.87
-22.90
-21.92
-18.92
-14.43
-9.27
-4.06
0.90
5.64
10.25
14.69
18.61
21.59
23.34
23.98
23.97
23.91
24.23
24.93
25.59
25.61
24.61
22.70
20.52
18.96
18.73
19.99
22.14
24.11
24.75
23.35
19.91
15.00
9.51
4.12
-0.86
-5.48
-9.85
-13.89
-17.24
-19.40
-20.01
-19.06
-16.97
-14.48
-12.36
-11.24
-11.51
-13.24
-16.14
-19.62
-22.89
-25.09
-25.51
-23.73
-19.74
-13.83
-6.55
1.48
9.68
17.56
24.79
31.16
36.62
41.21
44.95
47.76
49.45
49.78
48.73
46.67
44.28
42.35
41.34
41.07
40.75
39.40
36.47
32.23
27.62
23.73
21.21
19.75
18.31
15.64
11.00
4.49
-3.04
-10.46
-16.91
-22.06
-26.09
-29.44
-32.46
-35.28
-37.79
-39.83
-41.39
-42.70
-44.19
-46.26
-49.04
-52.23
-55.22
-57.30
-57.94
-57.02
-54.81
-51.72
-48.02
-43.70
-38.46
-32.04
-24.51
-16.39
-8.59
-2.02
2.85
6.23
8.94
12.00
16.08
21.06
26.08
29.86
31.49
30.82
28.60
26.12
24.50
24.16
24.67
25.17
24.93
23.87
22.52
21.73
21.98
23.04
24.10
24.22
22.97
20.67
18.26
16.72
16.49
17.18
17.80
17.37
15.42
12.33
9.06
6.66
5.63
5.74
6.13
5.79
4.12
1.14
-2.57
-6.31
-9.60
-12.48
-15.29
-18.33
-21.50
-24.23
-25.72
-25.28
-22.80
-18.78
-14.14
-9.80
-6.32
-3.77
-1.83
-0.10
1.63
3.25
4.43
4.91
4.73
4.34
4.40
5.44
7.45
9.79
11.34
11.06
8.49
4.00
-1.34
-6.23
-9.81
-11.93
-13.11
-14.20
-15.88
-18.46
-21.87
-25.89
-30.33
-34.85
-38.77
-40.92
-39.95
-34.90
-25.88
-14.38
-2.98
5.56
9.34
7.98
2.65
-4.61
-11.71
-17.28
-20.85
-22.59
-22.90
-21.96
-19.68
-15.90
-10.70
-4.54
1.65
6.82
10.22
11.70
11.84
11.63
12.07
13.64
16.04
18.41
19.76
19.60
18.22
16.55
15.64
16.12
17.74
19.62
20.68
20.31
18.61
16.35
14.46
13.57
13.70
14.34
14.84
14.68
13.68
11.89
9.55
6.72
3.30
-0.94
-6.10
-11.89
-17.61
-22.42
-25.64
-27.09
-27.16
-26.64
-26.34
-26.74
-27.59
-28.13
-27.41
-24.78
-20.09
-13.80
-6.74
0.07
5.85
10.64
14.88
18.94
22.88
26.57
29.71
32.12
33.56
33.82
33.50
33.02
32.07
29.85
25.85
20.14
14.06
9.37
7.47
9.67
15.00
19.60
18.52
8.91
-8.19
-27.14
-40.68
-43.18
-31.33
-6.63
25.03
56.44
82.66
101.91
115.72
125.87
122.98
102.27
68.35
32.20
2.72
-13.93
-21.58
-23.96
-24.24
-24.61
-25.92
-27.01
-26.78
-24.77
-20.81
-15.53
-9.32
-3.30
1.19
4.49
7.42
10.06
11.74
11.85
9.90
6.57
2.61
-1.28
-3.81
-4.07
-2.43
-0.26
1.03
0.44
-1.82
-5.07
-8.41
-10.73
-11.32
-10.42
-8.95
-7.90
-7.94
-8.95
-10.47
-12.00
-13.19
-14.20
-15.69
-18.44
-22.77
-28.21
-33.61
-37.70
-39.77
-39.99
-39.34
-39.04
-39.94
-42.08
-44.78
-47.09
-48.28
-48.17
-46.98
-45.03
-42.35
-38.61
-33.35
-26.32
-17.78
-8.49
0.55
8.44
14.72
19.39
22.72
25.04
26.48
26.92
26.22
24.44
22.02
19.69
18.22
18.05
19.06
20.55
21.61
21.50
20.03
17.64
15.23
13.67
13.34
13.97
14.73
14.71
13.39
10.92
8.03
5.64
4.33
4.01
4.08
3.78
2.73
1.09
-0.62
-2.02
-3.25
-5.10
-8.56
-14.21
-21.77
-29.98
-37.08
-41.52
-42.61
-40.69
-36.80
-32.04
-27.01
-21.67
-15.60
-8.50
-0.58
7.43
14.54
20.02
23.68
25.85
27.19
28.23
29.12
29.65
29.45
28.30
26.40
24.31
22.71
22.10
22.44
23.13
23.32
22.33
20.02
16.82
13.48
10.67
8.56
6.84
4.95
2.58
-0.16
-2.78
-4.72
-5.77
-6.25
-6.88
-8.40
-11.14
-14.85
-18.85
-22.34
-24.82
-26.37
-27.52
-29.02
-31.40
-34.59
-37.96
-40.48
-41.22
-39.78
-36.40
-31.80
-26.70
-21.45
-16.00
-10.05
-3.49
3.33
9.65
14.66
17.94
19.63
20.34
20.79
21.37
21.99
22.26
21.78
20.51
18.78
17.19
16.29
16.28
16.89
17.52
17.56
16.74
15.24
13.63
12.50
12.12
12.22
12.16
11.27
9.33
6.66
4.03
2.23
1.54
1.59
1.50
0.35
-2.35
-6.35
-10.86
-14.88
-17.69
-19.06
-19.25
-18.72
-17.90
-17.09
-16.45
-15.98
-15.58
-14.90
-13.40
-10.48
-5.74
0.68
8.01
15.00
20.25
22.64
21.68
17.68
11.67
5.06
-0.66
-4.50
-6.23
-6.42
-6.09
-6.13
-6.82
-7.69
-7.81
-6.41
-3.49
0.15
3.16
4.42
3.63
1.40
-1.09
-2.80
-3.42
-3.50
-4.10
-6.11
-9.69
-14.03
-17.76
-19.61
-19.17
-17.04
-14.61
-13.29
-13.81
-15.98
-18.84
-21.40
-23.15
-24.29
-25.41
-26.87
-28.33
-28.78
-27.00
-22.22
-14.62
-5.26
4.36
12.96
19.83
25.00
28.94
32.18
35.03
37.42
39.06
39.60
38.83
36.81
33.98
31.06
28.93
28.46
30.23
34.32
40.25
47.01
53.34
58.12
60.77
61.60
61.78
63.23
67.96
77.29
91.02
106.86
120.45
126.14
118.59
94.76
55.42
5.60
-46.73
-93.09
-127.20
-146.53
-152.38
-148.34
-138.45
-125.95
-113.13
-101.91
-94.34
-92.25
-96.28
-104.95
-114.53
-120.20
-117.87
-105.78
-85.06
-59.02
-31.87
-7.18
12.88
27.75
38.05
44.90
49.34
51.99
53.07
52.58
50.65
47.74
44.58
41.90
40.00
38.66
37.25
35.15
32.18
28.74
25.63
23.53
22.64
22.59
22.66
22.23
21.02
19.21
17.21
15.32
13.47
11.28
8.28
4.30
-0.40
-5.11
-9.14
-12.12
-14.24
-16.15
-18.50
-21.66
-25.45
-29.29
-32.52
-34.76
-36.02
-36.55
-36.49
-35.68
-33.69
-29.97
-24.31
-17.05
-9.04
-1.34
5.14
9.89
12.90
14.41
14.77
14.29
13.26
12.09
11.42
12.02
14.53
19.17
25.50
32.46
38.65
42.86
44.42
43.39
40.43
36.44
32.11
27.67
22.94
17.68
11.94
6.26
1.49
-1.53
-2.48
-1.68
0.03
1.66
2.43
2.05
0.70
-1.12
-2.93
-4.46
-5.72
-6.94
-8.31
-9.85
-11.30
-12.28
-12.52
-12.13
-11.53
-11.35
-12.01
-13.39
-14.79
-15.22
-13.92
-10.81
-6.59
-2.42
0.67
2.16
2.23
1.42
0.17
-1.45
-3.74
-7.00
-11.13
-15.54
-19.38
-22.00
-23.46
-24.49
-26.12
-29.15
-33.50
-38.22
-41.69
-42.32
-39.21
-32.53
-23.41
-13.42
-3.94
4.35
11.43
17.75
23.61
28.90
33.19
36.03
37.38
37.76
38.04
38.95
40.63
42.50
43.60
43.20
41.21
38.30
35.52
33.75
33.20
33.38
33.46
32.79
31.26
29.23
27.23
25.55
24.04
22.24
19.67
16.09
11.54
6.20
0.28
-6.14
-13.06
-20.39
-27.82
-34.77
-40.46
-44.14
-45.28
-43.88
-40.56
-36.38
-32.52
-29.80
-28.37
-27.69
-26.87
-25.10
-22.10
-18.16
-13.94
-10.10
-7.02
-4.79
-3.32
-2.65
-2.94
-4.37
-6.96
-10.34
-13.90
-17.06
-19.54
-21.59
-23.84
-26.91
-30.91
-35.24
-38.62
-39.67
-37.42
-31.78
-23.60
-14.25
-5.05
3.24
10.54
17.35
24.19
31.19
37.91
43.56
47.38
49.08
48.92
47.56
45.62
43.35
40.57
36.96
32.50
27.69
23.44
20.61
19.57
19.94
20.75
20.91
19.74
17.21
13.85
10.43
7.65
5.77
4.63
3.78
2.74
1.18
-0.93
-3.35
-5.79
-8.12
-10.49
-13.31
-17.03
-21.78
-27.23
-32.61
-36.97
-39.54
-39.96
-38.26
-34.64
-29.31
-22.36
-13.88
-4.15
6.23
16.35
25.26
32.29
37.25
40.39
42.19
43.04
42.98
41.70
38.72
33.71
26.68
18.10
8.80
-0.32
-8.54
-15.53
-21.32
-26.20
-30.43
-34.12
-37.06
-38.94
-39.54
-38.93
-37.46
-35.61
-33.73
-31.91
-30.04
-27.99
-25.94
-24.28
-23.48
-23.68
-24.54
-25.28
-25.10
-23.57
-20.89
-17.79
-15.07
-13.22
-12.13
-11.10
-9.12
-5.26
0.95
9.37
19.27
29.63
39.45
47.98
54.83
59.74
62.43
62.41
59.21
52.61
43.04
31.56
19.69
8.99
0.74
-4.22
-5.55
-3.37
1.61
8.15
14.70
19.59
21.58
20.19
15.77
9.30
2.01
-4.99
-10.87
-15.21
-18.02
-19.61
-20.55
-21.37
-22.40
-23.59
-24.66
-25.31
-25.48
-25.50
-25.85
-27.01
-29.19
-32.29
-35.93
-39.77
-43.55
-47.08
-50.09
-52.13
-52.58
-50.80
-46.43
-39.60
-31.00
-21.70
-12.71
-4.71
2.14
8.05
13.26
17.68
20.81
22.10
21.30
18.84
15.68
12.95
11.34
10.79
10.65
10.12
8.83
7.08
5.60
5.12
5.88
7.49
9.13
10.04
9.89
8.98
7.95
7.40
7.41
7.49
6.80
4.68
1.11
-3.20
-7.14
-9.71
-10.63
-10.48
-10.46
-11.80
-15.15
-20.29
-26.26
-31.76
-35.65
-37.21
-36.27
-32.99
-27.72
-20.86
-12.91
-4.46
3.76
10.96
16.51
20.13
22.08
23.03
23.82
25.09
26.98
29.04
30.54
30.86
29.87
28.04
26.21
25.18
25.27
26.21
27.37
28.09
28.07
27.40
26.46
25.61
24.96
24.28
23.22
21.57
19.42
17.16
15.24
13.85
12.74
11.31
8.95
5.39
0.95
-3.57
-7.22
-9.44
-10.34
-10.72
-11.71
-14.20
-18.43
-23.84
-29.25
-33.38
-35.35
-34.92
-32.51
-28.75
-24.16
-18.92
-12.93
-6.09
1.37
8.86
15.62
21.09
25.14
28.08
30.48
32.75
34.92
36.60
37.28
36.61
34.66
31.95
29.17
26.90
25.31
24.15
22.97
21.42
19.48
17.47
15.85
14.92
14.54
14.24
13.42
11.75
9.33
6.60
4.13
2.23
0.81
-0.57
-2.39
-4.90
-7.96
-11.11
-13.81
-15.75
-17.05
-18.12
-19.52
-21.62
-24.44
-27.64
-30.71
-33.25
-35.09
-36.28
-36.94
-36.99
-36.06
-33.65
-29.37
-23.29
-16.05
-8.64
-2.03
3.28
7.44
11.03
14.72
18.75
22.72
25.87
27.46
27.27
25.75
23.84
22.37
21.68
21.42
20.86
19.35
16.73
13.41
10.16
7.60
5.94
4.95
4.13
3.07
1.59
-0.26
-2.40
-4.78
-7.48
-10.58
-14.05
-17.70
-21.20
-24.23
-26.62
-28.50
-30.39
-33.10
-37.46
-43.90
-52.18
-61.33
-69.97
-76.81
-81.25
-83.52
-84.50
-85.15
-85.94
-86.42
-85.29
-80.72
-71.05
-55.44
-34.22
-8.78
18.76
46.06
71.05
92.02
107.77
117.52
121.12
119.15
113.01
104.67
96.16
88.97
83.51
79.19
74.82
69.38
62.50
54.69
47.04
40.64
36.01
32.77
29.85
26.04
20.65
13.85
6.62
0.13
-4.92
-8.59
-11.64
-14.83
-18.48
-22.14
-24.95
-26.26
-26.16
-25.71
-26.41
-29.51
-35.20
-42.43
-49.19
-53.42
-53.89
-50.67
-45.05
-38.75
-33.15
-28.74
-25.07
-21.35
-17.08
-12.40
-8.04
-4.76
-2.80
-1.72
-0.56
1.50
4.67
8.45
11.85
14.04
14.76
14.45
13.98
14.14
15.23
16.90
18.41
19.07
18.51
16.89
14.73
12.60
10.89
9.75
9.11
8.88
8.96
9.32
9.88
10.50
10.97
11.17
11.15
11.14
11.38
11.95
12.65
13.06
12.84
12.09
11.60
12.74
17.06
25.60
38.28
53.46
67.89
77.23
77.07
64.51
39.59
6.05
-29.39
-59.10
-77.24
-81.75
-74.73
-61.03
-45.77
-32.33
-21.70
-13.37
-6.75
-2.17
-0.69
-3.08
-8.93
-16.45
-23.26
-27.60
-28.99
-28.28
-26.92
-26.16
-26.56
-27.91
-29.65
-31.28
-32.57
-33.52
-33.99
-33.68
-32.16
-29.22
-25.21
-20.94
-17.30
-14.80
-13.16
-11.43
-8.56
-3.95
2.08
8.26
13.17
15.60
14.95
11.56
6.79
2.93
2.81
9.05
22.89
43.53
67.11
86.92
95.54
87.79
63.24
27.06
-11.31
-41.55
-55.17
-48.98
-26.33
4.59
33.70
52.11
54.45
39.90
11.92
-21.79
-52.22
-72.09
-77.71
-69.64
-52.03
-30.87
-8.92
7.99
16.72
19.01
17.09
12.38
5.58
-2.15
-7.58
-8.61
-5.00
2.63
12.40
21.45
27.13
27.98
24.01
16.66
8.20
1.05
-2.37
-1.31
2.47
5.50
4.22
-3.21
-15.96
-30.95
-44.30
-52.63
-54.71
-51.85
-46.67
-41.60
-37.76
-34.80
-31.76
-27.80
-22.54
-16.29
-9.82
-3.75
1.76
6.85
11.62
15.78
18.69
19.81
19.00
16.74
14.11
12.35
12.32
14.10
17.02
19.98
22.00
22.58
21.88
20.46
18.91
17.54
16.26
14.77
12.87
10.62
8.30
6.18
4.17
1.84
-1.37
-5.73
-10.94
-16.22
-20.69
-23.87
-25.94
-27.65
-29.83
-32.87
-36.44
-39.60
-41.25
-40.58
-37.53
-32.63
-26.76
-20.67
-14.73
-8.94
-3.14
2.64
8.06
12.54
15.65
17.25
17.65
17.38
16.93
16.56
16.23
15.87
15.50
15.49
16.33
18.47
22.02
26.61
31.43
35.52
38.09
38.81
37.85
35.75
33.17
30.60
28.23
26.04
23.92
21.84
19.87
18.18
16.84
15.71
14.36
12.13
8.41
2.91
-4.13
-11.80
-18.72
-23.58
-25.57
-24.77
-22.12
-18.95
-16.43
-14.99
-14.22
-13.16
-10.89
-6.97
-1.64
4.34
10.04
14.66
17.60
18.35
16.54
12.11
5.62
-1.64
-7.99
-12.11
-13.87
-14.55
-16.25
-20.71
-28.06
-36.47
-42.93
-44.63
-40.38
-31.05
-18.98
-6.66
4.24
13.13
19.78
23.58
23.12
16.79
3.78
-14.94
-36.54
-57.15
-73.20
-82.54
-84.92
-81.70
-74.93
-66.55
-57.71
-48.65
-38.79
-27.13
-12.88
4.05
22.83
41.89
59.57
74.83
87.57
98.35
107.72
115.48
120.53
121.44
117.30
108.44
96.49
83.76
72.14
62.34
53.73
44.98
34.96
23.41
11.14
-0.54
-10.57
-18.74
-25.59
-31.84
-37.82
-43.10
-46.82
-48.29
-47.56
-45.52
-43.55
-42.77
-43.62
-45.76
-48.43
-50.89
-52.66
-53.52
-53.31
-51.86
-48.93
-44.39
-38.27
-30.89
-22.74
-14.36
-6.18
1.46
8.32
14.24
19.29
23.69
27.72
31.54
35.31
39.00
42.34
44.83
46.10
46.23
45.78
45.51
45.97
47.54
50.18
53.41
56.33
58.06
57.79
54.72
47.79
36.25
20.67
3.30
-12.48
-23.56
-28.02
-25.50
-16.86
-3.72
11.17
25.27
37.89
49.79
60.24
65.86
62.34
47.48
22.39
-8.37
-38.31
-61.53
-74.82
-78.62
-75.54
-69.43
-61.01
-50.59
-38.87
-26.89
-15.86
-6.82
-0.99
0.56
-2.76
-11.52
-26.68
-48.75
-76.41
-106.39
-132.02
-147.49
-150.06
-140.14
-121.24
-98.53
-76.70
-57.80
-41.20
-25.09
-8.61
7.83
24.45
42.14
62.07
84.79
110.08
136.64
161.77
181.31
184.36
164.01
123.03
73.24
26.73
-10.30
-38.01
-59.54
-77.35
-90.71
-94.53
-85.00
-59.68
-22.39
17.91
50.60
67.82
67.43
53.32
33.89
17.36
8.32
5.74
6.66
7.77
7.32
5.63
4.11
4.23
6.25
9.13
10.84
10.38
8.46
7.11
8.27
12.31
17.62
21.70
22.42
18.64
11.21
2.70
-3.45
-4.05
2.58
15.70
33.08
51.03
64.08
66.53
54.15
26.15
-13.81
-58.54
-99.77
-129.40
-142.06
-137.18
-117.74
-88.46
-53.68
-16.38
23.09
58.37
81.41
87.06
74.31
46.36
9.19
-31.35
-68.87
-98.53
-118.83
-130.62
-131.69
-122.80
-106.15
-84.88
-61.88
-38.97
-17.31
2.19
19.74
36.23
51.22
62.80
66.57
59.70
44.57
27.88
16.65
15.55
25.45
42.85
63.25
81.36
92.67
94.24
84.54
63.44
32.50
-5.88
-45.42
-77.33
-95.76
-99.54
-90.19
-70.04
-42.12
-10.85
17.73
37.30
43.38
35.22
16.94
-3.38
-17.45
-20.56
-13.23
-0.46
11.05
16.04
13.07
5.44
-0.84
-0.87
5.94
15.48
21.75
20.96
13.35
2.99
-4.43
-4.82
1.94
11.91
19.71
21.61
17.58
10.71
5.14
3.94
7.20
13.32
19.27
22.45
21.99
19.15
16.17
15.16
17.25
22.21
28.95
35.62
40.08
40.20
34.36
21.72
3.16
-18.38
-38.59
-53.05
-59.19
-57.77
-52.98
-49.50
-51.39
-59.92
-72.79
-85.35
-92.72
-91.93
-83.51
-70.21
-55.57
-42.16
-30.23
-17.90
-2.90
15.59
36.31
55.74
71.14
81.63
88.67
93.30
98.34
105.08
112.73
122.04
130.45
136.82
140.19
138.55
128.74
107.59
74.46
32.22
-12.50
-52.84
-83.17
-101.54
-110.13
-109.71
-105.73
-102.73
-104.96
-109.75
-114.13
-115.13
-111.00
-101.68
-88.52
-74.15
-58.14
-42.22
-27.66
-15.60
-5.63
3.37
12.15
20.87
28.83
35.43
39.29
39.32
34.38
24.95
13.06
1.79
-5.18
-4.59
5.79
25.64
50.55
71.68
82.01
81.42
74.42
65.38
56.37
47.81
39.30
31.11
23.97
19.30
18.20
20.57
25.38
31.12
35.81
36.63
30.70
16.09
-6.11
-31.67
-54.93
-71.20
-78.52
-78.00
-73.30
-66.29
-57.28
-45.11
-28.85
-10.01
7.14
17.48
17.77
8.14
-6.23
-18.69
-24.65
-23.50
-18.27
-13.28
-11.52
-13.25
-16.28
-17.40
-14.06
-5.48
7.49
22.71
37.35
48.66
54.68
54.75
48.15
36.38
20.54
1.60
-18.68
-37.18
-49.76
-53.16
-45.52
-29.10
-8.86
9.46
22.15
28.58
30.73
31.40
32.59
34.99
38.07
40.87
42.06
40.31
34.73
25.45
13.93
2.58
-6.40
-12.04
-14.94
-16.81
-19.40
-23.36
-27.83
-31.07
-31.47
-28.34
-22.13
-13.87
-4.42
5.78
16.60
27.66
37.98
45.86
49.57
48.19
42.31
33.84
25.24
18.41
13.98
11.21
8.84
5.95
2.67
0.21
0.28
4.18
12.04
22.69
34.12
44.37
52.13
57.26
60.44
62.74
65.07
67.93
71.49
75.88
81.78
89.43
98.18
106.13
110.61
109.17
100.74
86.28
68.43
50.30
34.08
20.42
8.33
-3.59
-16.23
-29.57
-43.08
-56.19
-68.69
-80.65
-92.12
-103.64
-115.57
-128.27
-142.23
-157.97
-175.26
-192.06
-203.93
-204.65
-189.33
-155.05
-102.63
-37.74
29.57
87.16
124.40
135.14
119.29
80.17
25.49
-34.55
-90.15
-134.53
-165.14
-183.08
-191.65
-194.74
-198.16
-205.01
-214.79
-224.76
-232.13
-235.60
-235.19
-231.62
-209.16
-162.11
-96.61
-27.50
31.06
71.88
94.07
100.38
95.38
84.45
70.30
54.58
41.79
36.15
39.90
52.60
71.55
93.26
115.20
130.93
137.15
134.89
127.58
118.80
110.92
104.56
99.56
95.73
91.89
88.01
85.27
85.03
89.39
98.78
112.13
127.03
139.98
146.32
142.67
128.11
104.35
72.75
39.73
10.76
-11.46
-26.93
-37.33
-44.27
-48.53
-50.37
-49.87
-47.10
-43.07
-38.90
-35.46
-33.16
-32.02
-31.85
-32.81
-35.32
-39.37
-44.47
-48.77
-49.84
-44.65
-32.15
-14.20
4.59
19.02
25.72
24.17
16.71
7.05
-1.55
-7.56
-10.97
-12.50
-12.31
-9.79
-4.45
3.12
11.04
16.88
18.77
16.09
9.58
1.21
-6.83
-13.12
-17.28
-19.73
-21.12
-22.06
-20.94
-18.10
-15.26
-14.35
-16.04
-19.08
-21.16
-20.19
-15.50
-8.14
-0.53
5.10
7.58
7.01
4.31
0.69
-3.07
-6.46
-9.11
-10.95
-11.79
-11.21
-8.65
-3.88
2.55
9.25
14.47
16.83
15.89
12.62
8.97
6.14
4.83
4.49
3.62
0.86
-4.09
-10.31
-16.12
-19.96
-21.38
-21.14
-20.77
-21.83
-24.96
-29.78
-35.31
-40.56
-44.90
-48.00
-49.38
-47.93
-42.17
-30.70
-12.91
10.26
36.19
61.25
81.89
95.75
102.41
102.78
98.74
92.59
86.31
81.31
78.30
77.36
77.90
79.07
79.15
76.25
69.13
57.82
43.98
30.68
21.57
16.74
16.23
17.71
16.89
10.07
-3.67
-22.03
-40.96
-56.83
-67.98
-74.50
-77.63
-78.18
-75.65
-69.00
-57.90
-43.75
-29.41
-18.02
-11.13
-8.43
-8.06
-7.69
-5.81
-2.13
2.68
7.69
12.24
16.29
19.82
22.54
23.87
22.82
18.66
11.27
1.34
-9.75
-20.29
-28.78
-34.29
-34.77
-29.27
-17.75
-1.04
19.22
40.71
60.66
76.24
85.20
86.50
80.34
68.31
52.84
36.42
20.98
7.58
-3.43
-12.15
-18.80
-23.84
-27.80
-31.35
-35.10
-39.42
-44.29
-49.16
-53.30
-56.07
-57.29
-57.15
-56.05
-54.35
-52.23
-49.65
-46.49
-42.73
-38.47
-34.01
-29.59
-25.29
-21.02
-16.63
-12.13
-7.70
-3.67
-0.31
2.26
4.11
5.47
6.47
7.10
7.24
6.81
5.90
4.77
3.61
2.51
1.45
0.31
-1.05
-2.55
-3.82
-4.28
-3.54
-1.81
0.13
1.31
0.92
-1.47
-5.51
-10.22
-14.18
-16.21
-16.10
-14.60
-12.49
-10.55
-9.37
-9.09
-9.57
-10.37
-11.38
-13.34
-17.56
-24.37
-33.68
-44.84
-56.01
-64.25
-66.08
-59.03
-43.36
-22.00
1.95
24.32
40.39
47.14
41.06
22.02
-3.64
-26.42
-39.78
-40.60
-31.76
-20.37
-12.92
-10.77
-10.94
-8.05
2.55
23.35
57.41
104.82
158.55
210.54
253.39
281.22
290.27
279.04
232.91
157.75
76.05
9.45
-34.02
-58.55
-72.42
-81.26
-87.06
-89.39
-85.12
-74.95
-65.12
-60.13
-61.77
-68.92
-77.84
-84.58
-86.93
-83.06
-74.81
-66.73
-62.43
-58.40
-51.94
-40.96
-25.23
-6.51
13.52
31.79
44.77
50.52
49.40
43.26
35.26
28.44
24.83
25.81
31.29
39.87
49.48
57.18
58.65
49.54
27.28
-6.72
-45.83
-79.85
-98.80
-97.10
-76.07
-43.44
-9.33
18.23
36.05
45.39
49.35
50.09
47.41
39.70
25.94
7.50
-11.98
-28.32
-39.04
-44.66
-47.70
-51.63
-59.08
-70.39
-83.10
-92.85
-95.01
-86.73
-68.23
-42.65
-15.30
8.64
26.08
36.81
42.66
45.56
46.10
43.10
35.10
21.35
3.57
-14.11
-26.77
-31.09
-26.90
-17.19
-6.31
2.95
10.04
16.98
26.77
41.23
59.44
78.04
92.94
98.08
93.60
82.60
68.49
53.05
36.21
17.45
-2.49
-21.22
-35.64
-43.26
-44.50
-42.61
-41.12
-42.54
-47.24
-53.34
-57.74
-57.63
-51.45
-40.27
-27.14
-15.72
-8.78
-7.18
-9.78
-14.28
-18.52
-21.16
-22.28
-22.64
-23.12
-23.58
-23.10
-20.47
-15.22
-8.17
-1.26
3.11
3.29
-0.80
-7.42
-14.01
-18.26
-19.07
-16.72
-12.32
-7.21
-2.54
0.84
2.27
1.28
-2.05
-6.81
-11.27
-13.41
-11.87
-6.61
0.97
8.71
14.75
18.39
20.21
21.66
24.15
28.44
34.46
41.48
48.52
54.71
59.43
62.23
62.77
60.82
56.31
49.39
40.60
30.82
21.03
12.00
4.15
-2.46
-7.74
-11.64
-14.07
-15.07
-14.84
-13.82
-12.52
-11.35
-10.45
-9.63
-8.91
-8.63
-9.36
-11.34
-14.21
-17.06
-18.86
-19.01
-17.23
-14.17
-11.04
-8.80
-7.53
-6.54
-5.11
-3.15
-1.27
0.63
2.41
3.71
4.45
5.18
6.74
9.47
12.93
16.29
20.55
26.31
33.19
40.34
47.32
54.14
60.66
66.58
71.75
78.78
89.55
103.86
119.65
134.14
144.46
147.94
142.90
116.86
68.84
10.20
-43.61
-84.05
-110.36
-124.65
-128.65
-123.63
-112.39
-95.26
-74.76
-55.31
-40.77
-32.01
-26.77
-21.52
-13.14
-1.68
13.64
31.02
46.08
53.73
50.55
36.00
12.38
-16.06
-44.33
-66.95
-81.20
-87.53
-88.39
-86.15
-82.03
-76.15
-68.31
-58.64
-47.25
-34.99
-22.97
-11.83
-1.50
8.23
16.75
22.24
22.36
15.99
4.06
-10.10
-21.89
-27.27
-24.85
-16.59
-6.86
-0.19
0.96
-2.95
-9.16
-14.39
-16.54
-15.48
-12.73
-10.33
-9.71
-10.84
-12.13
-10.98
-5.00
6.78
23.22
41.34
57.57
69.28
75.56
76.93
74.37
67.93
56.64
39.57
17.28
-7.43
-30.12
-46.40
-53.73
-51.49
-41.14
-25.27
-6.50
12.70
29.96
43.19
51.14
53.83
52.87
49.95
45.52
38.81
28.79
16.04
3.68
-3.39
-1.00
12.20
32.75
53.83
68.79
74.50
72.35
66.27
59.52
48.61
30.76
5.94
-21.91
-46.82
-63.75
-70.48
-68.69
-62.88
-57.69
-55.09
-54.61
-54.34
-52.29
-47.51
-40.65
-33.66
-29.02
-28.14
-30.44
-33.97
-36.17
-35.16
-30.37
-23.07
-15.95
-11.91
-12.78
-18.70
-28.59
-40.48
-51.68
-59.38
-60.38
-52.77
-36.70
-14.83
8.53
28.82
42.99
50.71
55.37
61.00
69.61
79.66
86.45
84.90
71.19
45.94
14.45
-14.40
-32.74
-36.89
-28.87
-15.53
-5.41
-4.75
-15.21
-33.78
-53.96
-70.07
-78.57
-78.08
-68.82
-52.05
-29.01
-1.37
28.79
60.06
90.96
120.83
149.11
174.07
191.69
197.93
190.14
158.26
106.67
48.78
-0.85
-33.60
-49.30
-56.88
-63.17
-71.93
-84.75
-103.09
-128.59
-162.15
-204.39
-247.97
-285.67
-309.01
-311.53
-275.67
-204.36
-120.79
-50.54
-5.27
17.30
24.92
25.56
23.83
20.93
15.96
8.99
2.14
-1.20
0.60
7.48
17.11
26.93
34.91
40.21
43.35
45.99
50.70
58.78
69.81
82.51
95.41
107.38
119.73
135.61
152.07
169.40
187.93
207.35
226.38
243.29
241.73
215.84
171.94
122.55
77.93
41.75
13.51
-8.42
-25.08
-37.24
-43.96
-46.30
-46.79
-48.68
-53.80
-61.68
-70.43
-77.93
-83.21
-85.44
-86.29
-89.37
-97.63
-111.67
-127.93
-140.65
-143.89
-134.54
-112.98
-84.31
-56.00
-33.89
-19.37
-9.40
0.68
13.60
27.99
39.60
43.17
35.66
18.34
-3.36
-22.23
-32.72
-33.48
-27.27
-18.78
-12.06
-8.76
-7.83
-6.66
-2.79
4.87
15.62
28.33
42.96
60.45
80.87
101.88
118.80
126.44
121.58
104.06
78.14
51.84
33.51
27.80
33.66
45.95
58.71
67.89
70.64
66.62
58.56
51.53
50.22
56.97
71.07
88.79
103.93
106.83
88.50
44.85
-21.78
-104.43
-193.89
-279.75
-351.31
-384.51
-361.59
-287.33
-188.67
-95.76
-26.16
17.13
40.92
55.41
68.79
82.77
94.43
100.65
99.33
89.15
69.12
40.40
6.90
-25.72
-54.67
-78.56
-95.88
-106.21
-110.48
-111.19
-110.26
-106.12
-99.46
-90.49
-80.30
-65.55
-43.48
-13.69
20.98
56.76
89.52
115.31
131.56
133.42
124.29
110.48
99.51
91.00
82.96
73.85
63.83
55.48
52.53
57.17
68.28
80.10
81.61
65.22
31.90
-8.38
-42.79
-64.00
-72.57
-74.83
-76.27
-77.00
-70.67
-50.23
-14.09
31.60
75.80
109.05
126.18
128.63
123.24
118.83
120.76
127.77
133.11
128.54
108.86
73.61
26.58
-27.07
-80.96
-128.09
-162.47
-179.03
-174.52
-149.13
-108.24
-62.12
-23.17
-1.15
0.43
-14.46
-35.81
-51.43
-51.28
-30.92
7.58
56.54
105.35
143.62
164.45
166.97
156.16
140.36
127.19
119.91
115.88
108.38
90.39
58.42
15.05
-31.60
-70.68
-92.41
-90.93
-65.15
-18.09
44.41
114.91
185.24
247.06
293.01
318.10
321.00
304.34
273.61
235.08
193.69
151.97
110.31
68.05
24.35
-21.81
-71.67
-126.50
-186.47
-249.30
-309.53
-359.57
-392.17
-403.17
-393.37
-368.21
-335.61
-302.86
-274.34
-250.84
-230.65
-211.54
-192.27
-173.15
-155.30
-139.61
-126.04
-113.66
-101.20
-87.78
-73.23
-58.23
-43.88
-31.25
-21.06
-13.42
-7.90
-3.76
-0.23
3.23
6.76
10.25
13.41
16.08
18.25
20.20
22.23
24.53
27.02
29.31
30.92
31.42
30.63
28.66
25.81
22.41
18.77
15.13
11.72
8.81
6.67
5.40
4.85
4.52
3.79
2.16
-0.52
-3.93
-7.40
-10.21
-11.88
-12.28
-11.64
-10.30
-8.57
-6.54
-4.23
-1.64
1.13
3.85
6.37
8.65
10.82
13.09
15.65
18.49
21.42
24.07
26.02
26.82
26.09
23.63
19.47
14.00
7.97
2.40
-1.64
-3.43
-2.73
0.04
4.10
8.52
12.58
15.84
18.08
19.18
18.99
17.38
14.40
10.41
6.05
2.04
-1.09
-3.21
-4.54
-5.51
-6.45
-7.38
-8.03
-8.01
-6.90
-4.59
-1.19
2.93
7.32
11.56
15.33
18.44
20.79
22.33
23.09
23.11
22.55
21.62
20.60
19.72
19.13
18.81
18.58
18.25
17.66
16.83
15.89
15.03
14.37
13.89
13.43
12.73
11.60
9.99
8.01
5.87
3.81
1.94
0.26
-1.33
-2.94
-4.59
-6.22
-7.72
-9.09
-10.45
-12.03
-14.02
-16.38
-18.76
-20.54
-21.08
-20.01
-17.41
-13.75
-9.73
-5.92
-2.60
0.30
3.00
5.68
8.32
10.68
12.46
13.47
13.75
13.54
13.21
13.02
13.03
13.13
13.10
12.78
12.18
11.44
10.76
10.26
9.87
9.40
8.63
7.46
5.99
4.44
3.03
1.87
0.91
-0.03
-1.16
-2.60
-4.33
-6.17
-7.94
-9.49
-10.85
-12.17
-13.65
-15.36
-17.14
-18.62
-19.31
-18.86
-17.16
-14.37
-10.84
-6.92
-2.83
1.33
5.54
9.70
13.59
16.93
19.49
21.17
22.15
22.71
23.18
23.71
24.24
24.58
24.52
23.99
23.15
22.31
21.78
21.71
21.95
22.17
21.97
21.15
19.73
17.99
16.25
14.67
13.23
11.65
9.69
7.22
4.39
1.49
-1.18
-3.44
-5.31
-6.94
-8.46
-9.92
-11.34
-12.65
-13.84
-14.87
-15.71
-16.25
-16.35
-15.83
-14.57
-12.54
-9.85
-6.71
-3.40
-0.22
2.59
4.91
6.73
8.15
9.27
10.12
10.71
11.00
11.05
10.99
10.94
10.98
11.05
11.05
10.90
10.61
10.30
10.11
10.08
10.14
10.12
9.82
9.14
8.08
6.71
5.11
3.33
1.42
-0.55
-2.52
-4.46
-6.39
-8.36
-10.42
-12.54
-14.63
-16.53
-18.16
-19.47
-20.57
-21.59
-22.69
-23.90
-25.14
-26.22
-26.84
-26.71
-25.61
-23.45
-20.26
-16.17
-11.34
-5.91
-0.02
6.16
12.37
18.29
23.53
27.81
30.98
33.10
34.37
35.03
35.22
34.99
34.33
33.19
31.61
29.69
27.57
25.34
23.04
20.66
18.20
15.66
13.06
10.47
7.90
5.33
2.70
-0.06
-2.98
-6.03
-9.14
-12.17
-15.03
-17.62
-19.94
-22.02
-23.88
-25.52
-26.90
-28.02
-28.94
-29.80
-30.75
-31.88
-33.10
-34.14
-34.67
-34.38
-33.14
-31.00
-28.15
-24.82
-21.18
-17.37
-13.52
-9.82
-6.55
-3.99
-2.36
-1.66
-1.70
-2.12
-2.58
-2.83
-2.80
-2.52
-2.05
-1.34
-0.25
1.44
3.89
7.18
11.17
15.52
19.75
23.37
26.11
27.89
28.82
29.09
28.92
28.46
27.70
26.61
25.13
23.26
21.04
18.44
15.42
12.10
8.68
5.37
2.26
-0.72
-3.81
-7.32
-11.51
-16.33
-20.96
-24.36
-25.79
-25.20
-23.13
-20.44
-17.93
-16.07
-14.94
-13.34
-10.00
-4.44
2.67
9.80
15.32
18.06
17.59
14.37
11.00
10.30
14.00
22.02
33.05
45.58
58.35
70.52
81.54
93.03
106.68
123.36
142.62
163.27
184.00
203.18
218.48
215.90
186.05
129.36
57.57
-13.58
-72.62
-114.81
-140.28
-151.71
-152.80
-145.82
-133.31
-118.51
-104.79
-93.97
-85.20
-75.82
-63.58
-48.42
-31.48
-15.27
-2.41
5.34
7.81
5.96
0.73
-7.76
-19.70
-34.00
-48.45
-60.22
-67.06
-67.95
-63.27
-54.39
-43.10
-30.87
-17.68
-3.32
12.06
27.41
41.16
51.81
58.52
60.27
57.49
50.29
38.64
23.05
4.95
-13.14
-28.32
-38.40
-42.65
-41.92
-37.98
-32.65
-26.47
-19.91
-13.38
-7.85
-4.59
-4.31
-6.51
-9.73
-12.22
-12.82
-11.67
-9.93
-9.11
-10.47
-14.39
-20.67
-28.55
-36.33
-41.85
-43.15
-39.16
-30.37
-18.86
-7.45
1.42
6.80
9.55
11.54
14.25
17.86
21.28
22.90
21.65
17.24
10.51
3.30
-2.04
-3.19
1.50
12.34
27.87
45.34
61.85
74.10
80.45
81.42
78.92
74.83
69.64
62.15
50.41
33.23
11.31
-12.46
-34.17
-50.42
-59.50
-61.61
-58.49
-52.49
-45.91
-40.50
-36.99
-35.37
-35.15
-35.58
-35.86
-35.18
-32.64
-27.43
-19.00
-7.21
7.39
23.65
40.05
55.17
68.14
78.72
87.21
94.07
99.59
103.68
105.85
105.46
102.04
95.58
86.63
76.12
65.05
54.23
44.00
34.27
24.71
14.84
4.23
-7.49
-20.62
-35.23
-50.95
-66.92
-81.69
-93.59
-101.04
-102.99
-99.33
-90.73
-78.45
-63.92
-48.41
-32.68
-17.18
-2.03
12.55
26.05
37.75
47.08
53.93
58.82
62.77
66.71
71.23
76.29
81.00
83.91
83.44
78.31
68.02
53.03
34.35
13.20
-9.37
-33.11
-57.57
-81.32
-101.86
-116.59
-123.93
-124.94
-122.42
-119.41
-118.71
-120.96
-124.39
-126.29
-124.92
-120.00
-113.70
-108.04
-103.47
-100.55
-98.85
-96.83
-92.25
-83.12
-67.78
-48.16
-27.91
-11.33
-4.66
-12.31
-34.45
-67.00
-103.85
-138.86
-171.07
-202.07
-218.57
-210.24
-175.05
-120.90
-59.44
-7.58
36.52
74.95
108.85
139.37
166.01
186.09
197.51
197.56
185.34
164.91
141.19
119.30
102.23
88.44
74.77
59.58
43.78
30.07
21.94
19.33
20.30
21.97
21.86
18.64
13.00
7.01
3.10
3.48
7.71
14.15
20.85
25.81
27.58
25.87
21.43
15.04
8.26
2.04
-3.02
-6.53
-8.51
-9.35
-9.53
-9.43
-9.18
-8.47
-7.11
-4.97
-2.02
1.66
5.78
10.05
14.20
18.16
22.05
25.99
30.05
34.20
38.46
42.79
47.03
50.78
53.44
54.26
52.58
47.99
40.45
30.24
17.92
4.19
-10.10
-24.11
-36.99
-48.09
-57.06
-63.82
-68.58
-71.61
-73.21
-73.71
-73.43
-72.81
-72.32
-72.37
-73.14
-74.56
-76.32
-77.93
-78.87
-78.79
-77.60
-75.59
-73.46
-72.06
-72.14
-73.93
-76.90
-79.75
-80.71
-77.90
-69.81
-55.62
-35.37
-9.95
19.06
49.59
79.45
106.78
130.54
150.77
168.56
185.46
202.67
220.23
236.71
249.69
256.73
256.45
249.03
236.04
219.52
201.02
181.04
159.25
135.14
108.54
79.77
49.49
18.43
-12.53
-42.20
-68.91
-90.73
-106.06
-114.35
-116.35
-113.90
-109.23
-104.28
-100.18
-97.28
-95.38
-93.93
-92.25
-89.68
-85.81
-80.70
-75.05
-69.97
-66.68
-66.05
-68.31
-73.02
-79.17
-85.46
-90.52
-93.19
-92.69
-88.78
-81.78
-72.50
-62.02
-51.38
-41.37
-32.36
-24.35
-17.10
-10.42
-4.34
0.92
5.01
7.70
9.05
9.50
9.72
10.39
11.98
14.54
17.86
21.50
25.05
28.10
30.37
31.60
31.66
30.56
28.54
26.10
23.81
22.14
21.27
20.99
20.79
20.14
18.66
16.29
13.31
10.12
7.09
4.32
1.72
-0.94
-3.70
-6.43
-8.70
-10.01
-10.02
-8.59
-5.93
-2.45
1.29
4.82
7.76
9.98
11.53
12.64
13.60
14.68
16.06
17.73
19.52
21.12
22.23
22.65
22.33
21.34
19.87
18.10
16.23
14.43
12.89
11.80
11.37
11.66
12.58
13.82
14.97
15.66
15.78
15.42
14.84
14.29
13.86
13.49
13.02
12.32
11.40
10.37
9.37
8.43
7.45
6.25
4.70
2.78
0.61
-1.62
-3.78
-5.83
-7.80
-9.66
-11.24
-12.21
-12.21
-11.04
-8.78
-5.82
-2.72
0.05
2.23
3.88
5.23
6.51
7.78
8.93
9.75
10.10
9.98
9.61
9.25
9.12
9.31
9.74
10.22
10.56
10.62
10.39
9.91
9.29
8.64
8.01
7.39
6.68
5.77
4.60
3.16
1.52
-0.21
-1.91
-3.52
-5.01
-6.40
-7.69
-8.94
-10.20
-11.56
-13.10
-14.86
-16.79
-18.69
-20.22
-21.00
-20.72
-19.25
-16.71
-13.44
-9.86
-6.34
-3.14
-0.36
2.02
4.02
5.63
6.85
7.64
8.00
7.95
7.53
6.80
5.82
4.73
3.69
2.84
2.28
2.02
2.00
2.09
2.18
2.15
1.93
1.46
0.78
-0.03
-0.86
-1.62
-2.34
-3.14
-4.20
-5.67
-7.52
-9.59
-11.59
-13.26
-14.50
-15.48
-16.55
-18.08
-20.32
-23.27
-26.60
-29.79
-32.25
-33.55
-33.42
-31.79
-28.70
-24.27
-18.64
-12.06
-4.84
2.62
9.92
16.77
22.96
28.40
33.03
36.79
39.60
41.38
42.08
41.69
40.25
37.86
34.70
30.97
26.94
22.89
19.06
15.66
12.85
10.75
9.38
8.64
8.26
7.85
7.06
5.69
3.82
1.72
-0.31
-2.08
-3.55
-4.83
-6.02
-7.06
-7.82
-8.19
-8.22
-8.19
-8.52
-9.50
-11.15
-13.12
-14.81
-15.59
-15.06
-13.18
-10.25
-6.76
-3.15
0.30
3.51
6.51
9.37
12.06
14.49
16.53
18.10
19.18
19.83
20.17
20.30
20.31
20.25
20.07
19.68
18.98
17.90
16.49
14.95
13.54
12.43
11.67
11.30
11.28
11.52
11.85
12.05
11.93
11.29
9.97
7.94
5.40
2.69
0.17
-1.95
-3.67
-5.06
-6.33
-7.81
-9.83
-12.39
-15.20
-17.88
-20.06
-21.49
-21.73
-20.69
-18.68
-16.40
-13.99
-11.29
-8.07
-4.31
-0.21
4.52
9.68
14.46
17.43
18.49
18.30
17.73
17.40
17.65
19.61
23.52
28.40
31.92
33.46
33.45
32.99
33.60
37.25
47.27
65.08
88.67
112.04
129.78
137.57
133.01
116.08
79.73
25.52
-36.42
-86.61
-121.05
-140.46
-146.65
-140.83
-125.54
-104.82
-82.00
-60.68
-44.20
-35.32
-32.92
-33.97
-35.59
-36.18
-35.38
-32.57
-28.04
-22.98
-19.52
-17.72
-16.52
-14.56
-10.87
-4.97
3.69
14.57
25.94
35.09
40.60
42.11
40.09
35.43
29.27
23.09
17.83
13.69
10.03
6.38
2.35
-2.37
-8.00
-14.60
-21.86
-29.30
-36.39
-42.67
-47.64
-51.05
-52.99
-53.89
-54.24
-54.36
-54.27
-53.78
-52.65
-50.73
-48.09
-44.88
-41.21
-37.09
-32.51
-27.47
-22.16
-16.88
-11.93
-7.52
-3.65
-0.21
2.93
5.81
8.35
10.39
11.84
12.66
12.94
12.80
12.35
11.65
10.73
9.64
8.44
7.25
6.16
5.24
4.45
3.71
2.90
1.94
0.86
-0.24
-1.19
-1.86
-2.24
-2.44
-2.64
-3.01
-3.60
-4.34
-5.01
-5.33
-5.00
-3.74
-1.39
2.06
6.46
11.54
17.06
22.85
28.95
35.46
42.53
50.13
58.01
65.69
72.55
77.93
81.26
82.10
80.19
75.52
68.32
59.10
48.63
37.83
27.63
18.72
11.41
5.55
0.67
-3.82
-8.38
-13.08
-17.68
-21.74
-24.86
-26.82
-27.60
-27.39
-26.44
-25.04
-23.52
-22.16
-21.17
-20.63
-20.51
-20.68
-21.01
-21.41
-21.86
-22.42
-23.14
-24.06
-25.23
-26.63
-28.25
-29.99
-31.75
-33.37
-34.72
-35.69
-36.19
-36.15
-35.48
-34.08
-31.94
-29.09
-25.62
-21.68
-17.43
-13.04
-8.71
-4.63
-1.03
1.87
3.92
5.12
5.62
5.70
5.69
5.86
6.30
6.92
7.50
7.85
7.90
7.73
7.48
7.31
7.22
7.06
6.64
5.78
4.48
2.89
1.26
-0.18
-1.33
-2.29
-3.26
-4.46
-6.03
-7.91
-9.91
-11.74
-13.13
-13.85
-13.78
-12.85
-11.06
-8.55
-5.49
-2.14
1.24
4.46
7.44
10.18
12.72
15.06
17.14
18.86
20.11
20.82
21.03
20.80
20.28
19.60
18.87
18.14
17.38
16.53
15.49
14.24
12.82
11.38
10.05
8.94
8.05
7.26
6.41
5.36
4.07
2.56
0.95
-0.66
-2.21
-3.66
-5.04
-6.30
-7.40
-8.30
-8.92
-9.26
-9.35
-9.27
-9.13
-8.96
-8.73
-8.28
-7.40
-5.85
-3.52
-0.48
3.01
6.60
10.01
13.09
15.89
18.53
21.11
23.54
25.57
26.91
27.36
26.90
25.70
24.05
22.23
20.45
18.80
17.26
15.69
13.91
11.65
8.72
5.02
0.64
-4.19
-9.09
-13.64
-17.53
-20.56
-22.69
-23.98
-24.59
-24.74
-24.62
-24.44
-24.31
-24.31
-24.43
-24.66
-24.99
-25.48
-26.18
-27.15
-28.32
-29.51
-30.48
-30.98
-30.85
-30.04
-28.56
-26.44
-23.71
-20.43
-16.70
-12.74
-8.78
-5.01
-1.56
1.59
4.54
7.35
10.00
12.34
14.19
15.37
15.83
15.67
15.06
14.23
13.37
12.53
11.74
10.95
10.19
9.51
9.00
8.71
8.63
8.65
8.65
8.54
8.34
8.11
7.87
7.61
7.24
6.64
5.78
4.73
3.59
2.51
1.53
0.59
-0.40
-1.45
-2.44
-3.09
-3.06
-2.09
-0.11
2.71
6.00
9.35
12.33
14.69
16.30
17.21
17.57
17.49
17.05
16.24
15.00
13.31
11.28
9.11
7.01
5.13
3.40
1.68
-0.23
-2.39
-4.70
-6.92
-8.83
-10.32
-11.40
-12.19
-12.81
-13.30
-13.62
-13.72
-13.58
-13.24
-12.82
-12.40
-12.02
-11.63
-11.13
-10.42
-9.45
-8.28
-7.05
-5.94
-5.07
-4.46
-3.92
-3.17
-1.88
0.18
3.02
6.44
10.10
13.71
17.07
20.14
22.94
25.40
27.32
28.43
28.50
27.49
25.58
23.09
20.31
17.40
14.37
11.14
7.68
4.09
0.56
-2.67
-5.44
-7.72
-9.64
-11.36
-13.02
-14.64
-16.13
-17.32
-18.07
-18.36
-18.25
-17.94
-17.59
-17.25
-16.87
-16.31
-15.45
-14.31
-13.05
-11.94
-11.16
-10.79
-10.66
-10.53
-10.11
-9.19
-7.66
-5.55
-2.90
0.20
3.62
7.18
10.67
13.84
16.50
18.49
19.73
20.20
19.91
18.95
17.41
15.45
13.20
10.79
8.35
5.92
3.57
1.35
-0.69
-2.50
-4.07
-5.39
-6.48
-7.33
-7.93
-8.25
-8.27
-8.02
-7.57
-7.02
-6.45
-5.87
-5.25
-4.52
-3.68
-2.80
-1.96
-1.29
-0.80
-0.46
-0.19
0.03
0.17
0.13
-0.19
-0.81
-1.63
-2.38
-2.78
-2.58
-1.67
-0.14
1.70
3.50
4.93
5.82
6.16
6.08
5.69
5.07
4.20
3.02
1.51
-0.25
-2.15
-3.97
-5.59
-6.90
-7.85
-8.44
-8.65
-8.52
-8.14
-7.62
-7.06
-6.54
-6.05
-5.48
-4.77
-3.85
-2.78
-1.64
-0.54
0.45
1.28
1.96
2.50
2.89
3.15
3.29
3.30
3.17
2.83
2.22
1.36
0.37
-0.53
-1.03
-0.89
-0.01
1.54
3.55
5.73
7.75
9.35
10.34
10.66
10.30
9.36
7.89
5.99
3.72
1.20
-1.43
-3.98
-6.31
-8.35
-10.12
-11.65
-12.95
-13.93
-14.51
-14.62
-14.36
-13.92
-13.54
-13.35
-13.34
-13.32
-13.11
-12.55
-11.62
-10.38
-8.96
-7.52
-6.15
-4.96
-3.99
-3.23
-2.68
-2.31
-2.12
-2.07
-2.15
-2.23
-2.18
-1.83
-1.04
0.24
1.96
4.08
6.53
9.28
12.25
15.23
17.92
19.98
21.16
21.41
20.88
19.77
18.23
16.28
13.82
10.75
7.10
3.08
-1.04
-4.95
-8.45
-11.47
-14.02
-16.19
-18.09
-19.86
-21.57
-23.24
-24.75
-25.91
-26.56
-26.68
-26.44
-26.17
-26.21
-26.79
-27.95
-29.52
-31.21
-32.77
-34.05
-35.14
-36.31
-37.99
-40.63
-44.56
-49.88
-56.36
-63.53
-70.78
-77.65
-83.96
-89.91
-96.02
-102.84
-110.62
-119.04
-127.18
-133.63
-136.90
-135.84
-130.04
-119.91
-106.59
-91.64
-76.44
-61.98
-48.68
-36.43
-24.69
-12.77
-0.08
13.69
28.51
44.22
60.52
76.93
92.90
107.78
120.96
131.91
140.21
145.65
148.48
149.05
147.45
143.51
136.94
127.72
116.29
103.62
90.98
80.48
73.66
70.82
70.84
71.88
72.27
70.99
67.77
62.93
58.90
57.86
60.64
66.33
73.14
79.52
84.54
87.82
89.23
91.66
97.66
107.88
120.68
133.43
144.09
151.66
155.99
157.45
160.61
169.94
187.66
212.95
243.13
275.64
308.41
339.89
345.73
310.27
233.75
133.66
32.11
-56.24
-125.69
-176.56
-211.63
-235.33
-248.55
-252.14
-249.09
-243.12
-238.08
-236.30
-238.53
-243.77
-250.34
-253.01
-247.09
-230.73
-205.68
-176.15
-143.90
-112.01
-81.02
-53.76
-32.10
-17.50
-10.30
-9.46
-12.80
-17.29
-20.67
-22.01
-22.60
-23.57
-25.65
-28.67
-31.40
-32.34
-30.62
-27.26
-24.58
-25.65
-31.66
-41.45
-51.80
-58.67
-58.66
-49.97
-33.02
-10.04
14.85
38.68
58.87
74.08
84.36
90.98
95.66
99.62
102.78
103.34
98.82
87.28
68.74
45.55
21.81
1.69
-12.34
-19.78
-22.82
-25.04
-28.70
-33.37
-36.79
-36.87
-33.43
-28.47
-24.88
-24.70
-27.84
-32.21
-35.06
-34.75
-31.64
-28.04
-26.98
-30.83
-39.92
-51.69
-61.84
-64.59
-56.32
-37.30
-12.11
12.13
28.65
33.91
28.92
18.20
7.27
-0.12
-2.79
-1.82
1.01
4.81
9.91
17.12
26.38
36.28
44.35
48.59
47.30
40.32
28.66
14.25
-0.37
-12.57
-19.97
-21.26
-16.79
-8.85
-0.86
3.58
2.50
-3.86
-13.34
-22.49
-27.88
-27.30
-20.49
-9.09
3.52
13.94
19.63
19.41
14.23
6.66
-0.53
-5.88
-8.89
-10.34
-10.78
-10.16
-7.87
-1.94
9.97
28.84
52.96
77.76
96.63
104.71
99.94
82.49
55.98
26.06
-1.59
-22.49
-31.83
-34.75
-37.04
-39.12
-41.59
-43.58
-43.82
-41.48
-37.40
-33.79
-33.30
-36.24
-41.69
-50.17
-61.53
-75.00
-88.69
-100.97
-110.74
-117.14
-117.93
-103.65
-72.44
-30.60
11.26
44.72
64.97
70.61
62.27
45.30
28.33
17.34
18.24
32.96
59.52
90.79
118.32
136.26
143.68
142.48
133.46
116.65
85.79
43.29
-2.53
-42.69
-71.95
-88.35
-92.01
-84.96
-69.86
-51.96
-32.18
-13.47
0.15
5.82
3.50
-4.29
-14.17
-22.97
-28.58
-28.86
-24.71
-18.67
-13.04
-8.58
-4.94
-2.03
-0.72
-2.90
-9.78
-22.30
-39.78
-59.69
-78.20
-91.36
-95.79
-89.15
-70.34
-39.72
-0.48
42.01
81.59
113.12
133.73
143.10
142.87
135.64
124.25
111.02
97.87
86.10
75.97
66.21
54.56
39.17
20.40
1.35
-13.24
-19.23
-15.42
-4.27
9.35
20.75
27.64
30.54
31.57
32.31
32.66
31.17
26.83
20.61
15.40
14.36
18.68
26.22
32.25
31.69
21.88
3.96
-17.48
-36.77
-49.92
-56.57
-59.91
-64.70
-74.58
-89.99
-108.15
-124.78
-136.46
-141.85
-141.40
-136.04
-126.40
-113.11
-98.03
-85.07
-79.18
-83.59
-96.82
-111.84
-118.63
-108.97
-80.92
-40.19
2.71
37.59
59.16
68.50
70.87
71.92
74.52
78.04
79.97
78.24
72.89
65.96
60.04
56.32
53.72
49.74
42.13
30.28
15.76
1.38
-10.28
-17.79
-21.43
-22.31
-21.13
-17.42
-10.27
0.18
11.67
20.24
22.56
17.60
7.65
-2.59
-8.29
-6.91
0.94
12.55
25.13
37.67
50.02
61.74
71.50
77.55
78.86
75.58
68.60
54.84
33.56
6.19
-23.35
-49.46
-65.91
-67.98
-55.43
-33.46
-10.50
6.29
13.57
12.90
7.63
1.13
-4.33
-8.33
-11.71
-15.25
-18.84
-22.10
-24.91
-26.69
-27.53
-26.74
-22.84
-12.29
7.05
33.04
59.88
81.32
92.75
91.79
78.65
57.88
31.08
1.71
-25.43
-45.73
-56.31
-57.16
-50.81
-38.20
-22.54
-7.20
5.87
15.49
20.79
21.02
15.82
5.92
-6.28
-17.69
-25.47
-28.01
-26.25
-23.17
-22.34
-26.05
-34.25
-44.54
-53.72
-59.08
-58.96
-53.16
-42.36
-27.65
-10.48
7.19
22.87
33.79
38.02
35.51
28.08
18.76
10.62
5.58
3.86
4.18
4.51
3.09
-0.91
-7.31
-15.23
-23.40
-30.61
-35.99
-39.32
-41.08
-42.04
-42.86
-43.63
-43.79
-42.37
-38.69
-32.86
-25.96
-19.55
-15.07
-13.32
-14.22
-17.02
-20.47
-23.12
-23.49
-20.48
-13.81
-4.33
6.02
14.87
20.36
21.95
20.70
18.79
18.49
21.22
26.97
34.38
41.29
45.44
45.16
39.71
29.43
15.72
0.79
-12.79
-22.67
-27.40
-27.02
-23.08
-18.18
-15.02
-15.33
-19.28
-25.36
-31.19
-34.42
-33.61
-28.65
-20.62
-11.26
-2.44
4.43
8.67
10.41
10.57
10.54
11.73
15.08
20.72
27.85
35.07
40.82
43.96
44.08
41.45
36.82
31.17
25.41
20.27
16.29
13.78
12.73
12.89
13.81
14.95
15.91
16.34
16.02
14.70
12.16
8.28
3.24
-2.41
-7.86
-12.30
-15.28
-16.93
-17.93
-19.26
-21.83
-26.08
-31.85
-38.39
-44.56
-49.17
-51.28
-50.48
-46.94
-41.31
-34.53
-27.44
-20.51
-13.66
-6.41
1.87
11.52
22.23
33.01
42.40
48.92
51.66
50.56
46.49
40.87
35.23
30.72
27.87
26.64
26.70
27.64
29.21
31.21
33.40
35.31
36.39
36.27
34.94
33.02
31.70
32.44
36.24
42.97
51.04
57.63
59.50
53.87
39.44
16.93
-10.86
-39.73
-65.18
-83.61
-93.18
-93.94
-87.91
-78.24
-68.36
-61.05
-57.86
-58.66
-61.27
-61.41
-52.99
-30.63
7.72
59.02
115.12
164.70
196.73
204.18
186.37
149.88
104.70
60.69
25.40
3.34
-3.99
2.32
19.23
42.28
68.03
92.21
110.21
118.78
117.39
108.14
94.56
80.35
68.23
61.51
60.44
62.11
62.45
58.91
51.69
43.57
38.81
27.10
6.74
-16.68
-36.55
-51.20
-62.24
-70.99
-77.50
-81.47
-83.24
-81.75
-77.33
-71.59
-66.01
-60.89
-55.69
-49.85
-43.36
-36.87
-29.91
-23.38
-19.52
-20.58
-27.13
-37.78
-49.88
-60.77
-68.75
-72.43
-72.15
-69.34
-65.36
-60.51
-54.49
-47.34
-40.08
-34.48
-31.65
-31.96
-34.75
-38.55
-41.48
-42.18
-40.33
-36.57
-31.90
-26.90
-21.84
-16.48
-10.69
-4.71
0.87
5.23
7.73
8.21
7.13
5.40
3.97
3.41
3.79
4.71
5.63
6.16
6.20
5.91
5.55
5.27
5.04
4.66
3.91
2.69
1.01
-1.01
-3.38
-6.37
-10.51
-16.24
-23.59
-31.81
-39.61
-45.70
-49.45
-51.29
-52.42
-53.97
-56.25
-58.56
-59.79
-59.39
-57.97
-57.16
-58.62
-62.94
-69.21
-75.16
-78.28
-76.89
-70.51
-59.49
-44.23
-24.62
-0.36
28.13
58.92
88.45
112.42
127.23
131.14
124.62
109.85
89.75
67.19
44.62
24.13
7.58
-3.54
-8.40
-7.27
-1.60
6.33
14.15
20.19
23.97
26.09
27.62
29.36
31.33
32.84
32.98
31.22
27.74
23.35
18.86
14.68
10.55
5.85
0.01
-7.03
-14.86
-22.75
-29.91
-35.35
-37.65
-34.86
-25.04
-7.27
17.28
45.03
70.86
89.85
99.08
98.51
90.46
78.18
64.34
50.24
36.05
21.63
7.22
-6.53
-19.02
-30.34
-41.43
-53.50
-67.26
-82.32
-97.25
-110.21
-119.84
-125.74
-128.49
-129.18
-128.88
-128.29
-127.69
-126.98
-125.80
-123.42
-118.73
-110.44
-97.55
-79.87
-58.29
-34.67
-11.26
9.98
27.91
42.24
53.37
61.93
68.41
73.01
75.67
76.36
75.18
72.59
69.20
65.64
62.22
58.93
55.52
51.78
47.76
43.92
40.92
39.36
39.57
41.48
44.72
48.76
53.07
57.23
60.92
63.94
66.19
67.73
68.74
69.43
69.94
70.20
69.89
68.55
65.72
61.14
54.84
47.07
38.24
28.84
19.29
9.87
0.69
-8.40
-17.70
-27.58
-38.22
-49.54
-61.05
-72.05
-81.79
-89.73
-95.56
-99.19
-100.63
-99.98
-97.42
-93.28
-88.05
-82.26
-76.30
-70.34
-64.25
-57.79
-50.75
-43.07
-34.87
-26.37
-17.77
-9.15
-0.47
8.39
17.54
27.05
36.88
46.88
56.78
66.15
74.46
81.15
85.72
87.89
87.65
85.28
81.27
76.24
70.80
65.45
60.52
56.06
51.91
47.80
43.44
38.69
33.63
28.53
23.71
19.44
15.84
12.91
10.59
8.80
7.46
6.46
5.66
4.89
3.99
2.84
1.35
-0.55
-2.86
-5.51
-8.35
-11.18
-13.73
-15.77
-17.07
-17.49
-17.01
-15.76
-14.08
-12.46
-11.39
-11.22
-11.98
-13.46
-15.22
-16.81
-17.89
-18.29
-18.01
-17.11
-15.71
-13.91
-11.77
-9.32
-6.48
-3.14
0.78
5.23
9.97
14.59
18.60
21.61
23.38
23.91
23.45
22.34
20.94
19.51
18.07
16.50
14.56
12.08
9.08
5.75
2.40
-0.70
-3.45
-5.99
-8.61
-11.62
-15.18
-19.24
-23.51
-27.52
-30.74
-32.66
-32.82
-30.97
-27.10
-21.50
-14.74
-7.57
-0.78
5.03
9.50
12.61
14.59
15.74
16.37
16.58
16.35
15.49
13.81
11.22
7.89
4.15
0.47
-2.68
-4.99
-6.34
-6.90
-6.98
-7.01
-7.38
-8.36
-9.98
-12.05
-14.24
-16.14
-17.46
-18.00
-17.73
-16.61
-14.57
-11.50
-7.36
-2.25
3.45
9.17
14.28
18.25
20.80
21.96
22.05
21.54
20.90
20.44
20.21
20.06
19.70
18.93
17.67
16.06
14.30
12.52
10.75
8.89
6.87
4.71
2.65
1.02
0.09
-0.05
0.45
1.29
2.13
2.77
3.11
3.21
3.22
3.30
3.60
4.21
5.12
6.26
7.51
8.72
9.85
10.85
11.70
12.29
12.44
11.93
10.58
8.38
5.50
2.30
-0.80
-3.43
-5.43
-6.85
-7.94
-9.05
-10.46
-12.21
-14.08
-15.64
-16.49
-16.38
-15.37
-13.70
-11.72
-9.67
-7.64
-5.63
-3.62
-1.66
0.11
1.48
2.26
2.33
1.75
0.73
-0.35
-1.02
-0.87
0.28
2.24
4.50
6.32
6.98
6.03
3.39
-0.57
-5.17
-9.62
-13.22
-15.56
-16.64
-16.85
-16.84
-17.15
-17.99
-19.00
-19.36
-18.18
-14.91
-9.76
-3.65
2.13
6.46
8.86
9.63
9.65
9.85
10.79
12.36
13.91
14.59
13.76
11.32
7.82
4.31
1.98
1.88
4.54
9.89
17.28
25.59
33.53
39.78
43.25
43.26
39.62
32.73
23.43
12.88
2.28
-7.36
-15.37
-21.53
-26.05
-29.49
-32.60
-36.08
-40.38
-45.62
-51.53
-57.60
-63.23
-67.79
-70.67
-71.33
-69.23
-63.91
-55.21
-43.37
-29.22
-14.06
0.51
13.05
22.59
28.90
32.40
33.90
34.23
33.99
33.40
32.42
30.97
29.06
26.79
24.29
21.53
18.34
14.42
9.54
3.66
-3.03
-10.15
-17.30
-24.13
-30.41
-36.04
-41.00
-45.33
-48.95
-51.62
-52.92
-52.44
-50.10
-46.41
-42.33
-38.73
-35.69
-32.22
-26.67
-17.66
-5.14
9.33
23.22
34.37
42.04
47.16
51.48
56.30
61.51
65.70
67.03
64.33
57.74
48.50
38.22
28.02
18.18
8.24
-2.48
-14.31
-26.94
-39.44
-50.66
-59.68
-66.14
-70.34
-72.92
-74.50
-75.27
-74.84
-72.51
-67.64
-60.01
-49.96
-38.15
-25.22
-11.56
2.67
17.27
31.77
45.37
57.22
66.78
74.15
79.94
84.95
89.63
93.83
96.78
97.40
94.72
88.05
77.14
62.09
43.31
21.61
-1.76
-25.17
-46.87
-65.34
-79.53
-88.99
-93.60
-93.42
-88.50
-79.02
-65.56
-49.23
-31.64
-14.43
1.25
15.13
27.67
39.72
51.88
64.18
76.08
86.75
95.42
101.61
105.20
106.39
105.78
104.35
103.47
104.46
107.97
113.25
117.72
117.51
108.68
88.88
58.80
22.53
-13.29
-41.57
-57.19
-58.77
-48.98
-33.36
-18.15
-8.14
-5.48
-9.57
-18.15
-28.47
-38.29
-46.19
-51.38
-53.41
-52.10
-47.76
-41.34
-34.45
-28.83
-25.80
-25.73
-27.92
-30.83
-32.66
-32.05
-28.54
-22.71
-15.97
-10.39
-8.27
-11.70
-21.82
-38.42
-59.65
-82.51
-103.68
-120.39
-131.25
-136.36
-136.93
-134.58
-130.87
-127.18
-124.70
-124.45
-126.46
-130.00
-133.87
-136.91
-138.43
-138.28
-136.48
-132.49
-124.65
-109.71
-84.79
-49.31
-5.98
40.04
83.13
119.12
146.35
165.36
178.91
189.16
196.46
199.47
196.86
188.81
177.23
164.91
154.26
148.32
148.80
155.63
166.91
180.05
192.57
202.41
207.82
198.41
168.71
121.70
68.40
20.24
-16.61
-41.55
-56.71
-64.73
-68.65
-68.63
-64.38
-56.61
-48.02
-41.63
-39.66
-42.96
-51.42
-63.74
-76.90
-87.61
-92.98
-92.03
-85.11
-74.07
-61.96
-49.59
-40.17
-35.93
-39.36
-47.83
-58.86
-69.03
-76.56
-80.56
-80.81
-78.01
-72.60
-65.22
-56.60
-48.21
-41.12
-35.77
-31.77
-28.48
-25.75
-23.47
-21.51
-19.42
-16.98
-13.87
-10.00
-5.43
-0.51
4.06
7.83
10.76
13.19
15.27
16.97
17.94
17.82
16.48
14.08
11.24
8.75
7.28
6.92
7.30
7.70
7.51
6.37
4.18
1.16
-2.29
-5.64
-8.23
-9.34
-8.41
-5.29
-0.54
4.68
8.88
10.90
10.35
7.78
4.39
1.40
-0.44
-1.17
-1.36
-1.66
-2.41
-3.43
-4.23
-4.34
-3.60
-2.26
-0.84
0.20
0.63
0.56
0.34
0.30
0.63
1.27
1.96
2.42
2.55
2.44
2.38
2.76
3.81
5.56
7.83
10.34
12.89
15.47
18.24
21.39
24.97
28.72
32.18
34.81
36.30
36.69
36.38
35.89
35.69
36.00
36.77
37.79
38.73
39.22
38.90
37.47
34.75
30.88
26.30
21.73
17.95
15.51
14.51
14.61
15.25
15.85
16.09
15.97
15.73
15.74
16.29
17.50
19.31
21.50
23.84
26.16
28.39
30.52
32.50
34.11
34.96
34.45
31.92
26.86
19.12
9.02
-2.70
-15.06
-27.22
-38.68
-49.37
-59.46
-69.14
-78.41
-87.05
-94.80
-101.58
-107.61
-113.28
-118.93
-124.54
-129.64
-133.35
-134.78
-133.34
-128.95
-122.14
-113.93
-105.55
-98.18
-92.66
-89.28
-87.83
-87.77
-88.48
-89.45
-90.28
-90.73
-90.61
-89.82
-88.44
-86.58
-84.13
-80.26
-73.18
-60.55
-40.55
-13.05
19.79
54.02
85.37
110.84
129.63
142.86
152.32
159.20
163.39
163.83
159.44
150.00
136.46
120.66
104.61
89.84
77.11
66.38
57.11
48.59
40.37
32.28
24.42
16.92
9.77
3.00
-2.97
-7.12
-7.91
-3.93
5.26
18.62
33.77
47.78
58.32
64.35
66.24
65.23
62.68
59.51
56.15
52.79
49.63
46.96
45.01
43.68
42.49
40.72
37.69
33.10
27.09
20.16
12.94
5.92
-0.63
-6.66
-12.28
-17.60
-22.74
-27.75
-32.61
-37.17
-41.12
-44.06
-45.68
-45.88
-44.82
-42.83
-40.14
-36.66
-31.94
-25.39
-16.72
-6.36
4.49
14.20
21.35
25.44
27.04
27.54
28.30
29.97
32.08
33.50
33.21
31.07
28.19
26.64
28.76
36.49
50.96
72.14
98.60
127.22
153.20
170.78
174.54
161.26
131.34
89.13
41.84
-2.55
-37.57
-59.76
-68.91
-67.29
-58.28
-45.25
-30.88
-17.09
-5.21
3.92
9.88
12.70
12.90
11.37
9.02
6.51
4.00
1.10
-2.97
-8.99
-17.35
-27.71
-39.03
-49.80
-58.59
-64.57
-67.75
-68.88
-68.91
-68.52
-67.86
-66.67
-64.70
-62.00
-58.97
-56.12
-53.71
-51.44
-48.64
-44.54
-38.77
-31.54
-23.62
-16.05
-9.76
-5.29
-2.78
-1.99
-2.46
-3.66
-5.07
-6.26
-6.96
-7.10
-6.91
-6.88
-7.51
-9.10
-11.46
-13.85
-15.20
-14.55
-11.52
-6.53
-0.70
4.55
8.01
9.01
7.49
3.76
-1.68
-8.37
-15.88
-23.69
-31.18
-37.71
-42.73
-46.01
-47.70
-48.34
-48.61
-49.18
-50.35
-51.91
-53.19
-53.22
-51.08
-46.30
-39.07
-30.23
-21.00
-12.57
-5.62
-0.15
4.52
9.45
15.66
23.66
33.28
43.70
53.85
62.71
69.71
74.78
78.21
80.42
81.80
82.60
82.91
82.58
81.17
78.03
72.54
64.54
54.64
44.17
34.82
27.91
23.81
21.74
20.10
17.11
11.58
3.30
-6.83
-17.24
-26.22
-32.53
-35.70
-36.11
-34.68
-32.45
-30.13
-27.99
-25.94
-23.78
-21.47
-19.04
-16.59
-14.09
-11.49
-8.80
-6.27
-4.36
-3.51
-3.94
-5.38
-7.16
-8.43
-8.50
-7.03
-4.15
-0.35
3.70
7.26
9.68
10.54
9.76
7.73
5.16
2.93
1.72
1.83
3.05
4.86
6.64
7.91
8.44
8.23
7.45
6.40
5.42
4.86
4.96
5.74
6.97
8.24
9.15
9.46
9.17
8.41
7.33
5.96
4.20
1.93
-0.89
-4.12
-7.49
-10.66
-13.34
-15.34
-16.63
-17.27
-17.42
-17.29
-17.09
-16.99
-17.18
-17.75
-18.72
-20.01
-21.36
-22.47
-23.04
-22.93
-22.15
-20.92
-19.49
-18.06
-16.68
-15.22
-13.48
-11.23
-8.35
-4.87
-1.00
2.94
6.55
9.49
11.55
12.75
13.29
13.52
13.76
14.16
14.61
14.77
14.23
12.69
10.12
6.64
2.39
-2.64
-8.60
-15.64
-23.58
-31.72
-38.96
-44.07
-46.25
-45.48
-42.55
-38.84
-35.80
-34.54
-35.53
-38.59
-42.95
-47.41
-50.48
-50.63
-46.68
-38.37
-26.66
-13.73
-2.24
5.72
9.47
10.08
9.69
10.37
13.10
17.32
21.45
23.80
23.51
20.92
17.17
13.49
10.56
8.27
6.06
3.40
0.26
-2.91
-5.43
-6.83
-7.14
-6.82
-6.48
-6.51
-6.98
-7.76
-8.86
-10.57
-13.48
-18.02
-24.15
-31.19
-37.97
-43.32
-46.47
-47.28
-46.19
-43.85
-40.84
-37.55
-34.17
-30.90
-27.99
-25.70
-24.10
-23.02
-22.14
-21.20
-20.24
-19.61
-19.74
-20.69
-21.93
-22.48
-21.24
-17.57
-11.49
-3.62
5.13
13.86
21.82
28.34
32.73
34.39
33.20
29.76
25.48
22.18
21.44
24.00
29.53
36.85
44.53
51.35
56.64
60.24
62.32
63.22
63.38
63.39
64.03
66.09
70.11
76.05
83.09
89.81
94.55
96.04
93.88
88.71
81.91
75.12
69.57
65.68
63.14
61.20
59.04
55.91
51.18
44.23
34.57
22.10
7.56
-7.25
-19.60
-26.56
-26.14
-17.89
-3.09
15.74
35.76
54.73
71.58
86.17
98.90
110.06
119.83
128.59
137.12
146.73
158.80
174.23
192.55
211.73
228.04
237.26
235.81
221.58
194.26
155.22
107.45
54.84
1.93
-47.71
-90.82
-124.70
-147.56
-158.99
-160.07
-152.67
-139.60
-123.56
-108.77
-97.95
-91.45
-87.53
-83.55
-77.77
-69.78
-62.23
-59.12
-67.79
-93.33
-136.54
-193.98
-259.29
-325.40
-384.63
-431.76
-462.98
-480.47
-487.22
-485.40
-476.27
-460.73
-440.84
-418.54
-398.37
-358.67
-290.14
-198.59
-102.51
-20.33
39.96
71.06
83.56
86.22
85.38
81.22
73.05
65.45
60.73
59.89
62.20
67.48
73.87
80.13
82.46
78.61
69.16
56.71
44.93
35.92
30.01
23.61
12.36
-8.35
-38.99
-74.61
-107.01
-127.61
-131.16
-116.55
-87.40
-48.75
-5.70
38.91
84.27
129.76
173.72
213.01
244.42
265.78
277.58
282.46
284.11
285.49
287.47
288.81
287.09
280.27
267.57
249.91
229.38
208.28
188.40
170.51
154.57
139.96
125.84
111.58
96.88
81.93
67.25
53.44
40.87
29.49
19.00
9.11
-0.19
-8.57
-15.46
-20.54
-23.90
-26.14
-28.14
-30.72
-34.37
-39.11
-44.56
-50.08
-54.95
-58.49
-60.33
-60.57
-59.94
-59.67
-60.95
-64.30
-68.94
-72.74
-72.76
-66.22
-51.56
-29.12
-1.19
28.79
57.29
81.72
101.00
115.52
126.87
137.35
149.09
163.26
179.33
194.88
206.24
209.89
204.08
189.80
170.56
151.00
134.89
123.43
114.90
105.62
91.81
71.57
45.95
18.75
-4.81
-20.20
-25.51
-22.59
-16.36
-12.85
-16.68
-29.28
-48.97
-72.38
-96.56
-120.41
-144.41
-169.21
-194.01
-216.20
-232.34
-239.98
-239.18
-232.53
-223.82
-216.14
-210.49
-205.65
-199.29
-189.41
-175.46
-158.58
-141.03
-125.27
-113.02
-104.73
-99.59
-95.92
-91.75
-85.50
-76.38
-64.51
-50.66
-35.81
-20.75
-5.93
8.37
21.71
33.25
41.91
46.71
47.23
43.84
37.67
30.25
23.09
17.31
13.47
11.58
11.25
11.94
13.15
14.61
16.28
18.30
20.74
23.46
26.04
27.92
28.60
27.92
26.10
23.63
21.05
18.71
16.69
14.92
13.28
11.77
10.50
9.62
9.12
8.80
8.30
7.31
5.67
3.48
1.02
-1.42
-3.63
-5.58
-7.34
-8.98
-10.48
-11.72
-12.43
-12.41
-11.54
-9.91
-7.78
-5.48
-3.34
-1.53
-0.05
1.18
2.27
3.26
4.09
4.69
5.01
5.07
4.94
4.72
4.43
4.10
3.72
3.32
2.97
2.76
2.79
3.08
3.50
3.90
4.05
3.86
3.37
2.77
2.29
2.10
2.15
2.24
2.13
1.63
0.72
-0.43
-1.60
-2.60
-3.38
-4.04
-4.78
-5.76
-7.05
-8.53
-9.91
-10.87
-11.11
-10.49
-9.06
-6.96
-4.43
-1.69
1.07
3.70
6.09
8.15
9.81
11.11
12.11
12.87
13.41
13.68
13.60
13.10
12.25
11.22
10.29
9.71
9.64
10.09
10.91
11.86
12.66
13.15
13.23
12.94
12.36
11.58
10.66
9.64
8.58
7.52
6.53
5.61
4.72
3.76
2.62
1.26
-0.33
-2.10
-4.01
-5.96
-7.85
-9.47
-10.60
-11.04
-10.69
-9.66
-8.16
-6.46
-4.74
-3.08
-1.51
-0.04
1.31
2.52
3.59
4.55
5.40
6.11
6.58
6.78
6.77
6.72
6.80
7.08
7.51
7.89
8.04
7.86
7.40
6.87
6.48
6.33
6.35
6.37
6.19
5.70
4.92
3.99
3.21
2.84
2.88
3.13
3.21
2.83
1.89
0.49
-1.06
-2.07
-2.11
-1.24
-0.07
0.61
0.35
-0.78
-2.19
-2.99
-1.73
2.36
8.88
16.19
22.21
25.46
25.55
23.26
20.13
18.90
21.35
27.35
34.88
41.14
44.04
42.93
38.60
32.97
30.12
33.51
44.76
62.83
84.41
104.92
119.42
123.58
107.19
66.22
6.00
-59.01
-113.11
-146.65
-157.67
-149.94
-130.40
-107.57
-84.20
-61.43
-39.82
-20.18
-3.54
9.06
16.80
19.54
16.16
9.22
2.26
-1.58
-1.00
3.21
9.01
14.21
17.43
18.56
19.60
22.26
27.01
32.76
37.64
40.15
39.94
37.76
34.99
33.52
34.22
36.80
40.04
42.58
43.63
43.26
42.24
41.56
42.32
44.83
48.71
53.05
56.96
59.94
62.16
64.35
67.65
73.33
82.21
94.31
108.63
123.21
135.62
143.55
145.46
140.74
129.56
112.23
88.88
59.57
24.88
-13.57
-52.91
-89.49
-119.68
-140.84
-151.77
-152.84
-145.68
-132.82
-117.27
-101.98
-89.40
-81.04
-77.22
-77.16
-79.44
-82.52
-85.17
-86.55
-86.10
-83.48
-78.48
-71.25
-62.38
-52.94
-44.24
-37.50
-33.44
-32.14
-33.08
-35.41
-38.29
-41.16
-43.79
-46.24
-48.61
-50.88
-52.82
-54.09
-54.43
-53.78
-52.39
-50.72
-49.24
-48.22
-47.56
-46.86
-45.66
-43.61
-40.72
-37.29
-33.72
-30.34
-27.19
-24.07
-20.70
-16.87
-12.58
-8.05
-3.66
0.26
3.42
5.73
7.23
8.08
8.47
8.56
8.48
8.29
8.09
7.92
7.85
7.89
7.97
8.00
7.88
7.54
6.99
6.27
5.47
4.63
3.74
2.74
1.57
0.20
-1.32
-2.85
-4.23
-5.38
-6.31
-7.18
-8.20
-9.51
-11.14
-12.93
-14.59
-15.79
-16.32
-16.04
-14.96
-13.11
-10.59
-7.51
-4.05
-0.44
3.08
6.25
8.96
11.19
13.03
14.63
16.10
17.46
18.63
19.49
19.94
19.97
19.66
19.18
18.71
18.38
18.18
17.98
17.64
17.03
16.12
15.03
13.90
12.88
12.00
11.17
10.20
8.96
7.44
5.80
4.26
3.03
2.15
1.42
0.57
-0.66
-2.35
-4.43
-6.63
-8.69
-10.39
-11.58
-12.15
-12.05
-11.23
-9.72
-7.64
-5.18
-2.58
-0.03
2.33
4.44
6.31
7.95
9.41
10.69
11.82
12.74
13.42
13.81
13.91
13.80
13.61
13.47
13.47
13.57
13.70
13.75
13.64
13.36
12.93
12.39
11.73
10.90
9.84
8.52
6.99
5.35
3.73
2.19
0.79
-0.48
-1.67
-2.81
-3.95
-5.13
-6.39
-7.78
-9.26
-10.76
-12.09
-13.04
-13.35
-12.85
-11.47
-9.31
-6.61
-3.73
-0.98
1.47
3.59
5.48
7.29
9.07
10.78
12.30
13.49
14.31
14.80
15.10
15.31
15.48
15.58
15.53
15.31
14.93
14.44
13.89
13.28
12.59
11.81
10.93
10.03
9.18
8.41
7.70
6.98
6.16
5.20
4.07
2.80
1.42
-0.02
-1.43
-2.75
-3.98
-5.19
-6.51
-8.04
-9.74
-11.40
-12.72
-13.44
-13.41
-12.64
-11.26
-9.35
-6.95
-4.08
-0.79
2.73
6.18
9.28
11.85
13.86
15.43
16.72
17.80
18.66
19.23
19.44
19.29
18.84
18.19
17.45
16.69
15.93
15.18
14.39
13.50
12.41
11.05
9.48
7.86
6.43
5.38
4.74
4.31
3.78
2.85
1.44
-0.35
-2.19
-3.80
-5.06
-6.04
-6.97
-8.06
-9.41
-10.94
-12.53
-14.02
-15.33
-16.41
-17.17
-17.45
-17.06
-15.85
-13.78
-11.04
-7.88
-4.63
-1.53
1.29
3.76
5.86
7.59
8.89
9.71
10.05
9.98
9.64
9.22
8.92
8.82
8.90
9.02
8.98
8.63
7.94
7.00
5.99
5.07
4.33
3.72
3.18
2.65
2.09
1.54
0.97
0.30
-0.59
-1.82
-3.41
-5.24
-7.08
-8.70
-9.96
-10.91
-11.70
-12.56
-13.60
-14.82
-16.00
-16.88
-17.20
-16.79
-15.60
-13.70
-11.21
-8.29
-5.12
-1.84
1.39
4.42
7.17
9.62
11.76
13.62
15.19
16.45
17.34
17.78
17.75
17.29
16.46
15.36
14.13
12.89
11.75
10.78
9.97
9.25
8.49
7.57
6.47
5.31
4.22
3.34
2.65
1.99
1.14
-0.07
-1.64
-3.40
-5.10
-6.56
-7.75
-8.76
-9.78
-10.93
-12.24
-13.67
-15.17
-16.69
-18.22
-19.63
-20.72
-21.16
-20.70
-19.17
-16.67
-13.46
-9.90
-6.29
-2.82
0.44
3.48
6.29
8.85
11.11
13.03
14.54
15.58
16.15
16.25
15.97
15.44
14.77
14.02
13.18
12.20
11.10
9.96
8.91
8.01
7.24
6.45
5.48
4.27
2.87
1.50
0.35
-0.50
-1.11
-1.71
-2.54
-3.75
-5.33
-7.12
-8.84
-10.26
-11.23
-11.79
-12.15
-12.58
-13.29
-14.30
-15.44
-16.34
-16.65
-16.08
-14.57
-12.28
-9.45
-6.37
-3.23
-0.11
2.94
5.83
8.41
10.51
12.01
12.89
13.29
13.45
13.57
13.77
13.98
14.06
13.84
13.23
12.29
11.15
9.99
8.89
7.89
6.95
6.05
5.18
4.34
3.51
2.62
1.54
0.22
-1.38
-3.18
-5.08
-6.90
-8.53
-9.87
-10.91
-11.69
-12.31
-12.90
-13.58
-14.41
-15.34
-16.31
-17.18
-17.77
-17.91
-17.38
-16.07
-13.91
-11.03
-7.66
-4.14
-0.78
2.21
4.71
6.71
8.30
9.58
10.68
11.68
12.59
13.35
13.86
14.03
13.87
13.44
12.85
12.20
11.52
10.78
9.96
9.07
8.15
7.26
6.45
5.70
4.98
4.24
3.46
2.63
1.75
0.81
-0.22
-1.34
-2.57
-3.88
-5.22
-6.54
-7.76
-8.81
-9.70
-10.46
-11.24
-12.14
-13.28
-14.57
-15.81
-16.68
-16.86
-16.14
-14.46
-12.00
-9.03
-5.86
-2.71
0.28
3.02
5.51
7.71
9.61
11.21
12.50
13.48
14.16
14.51
14.51
14.17
13.53
12.65
11.65
10.60
9.56
8.52
7.47
6.39
5.30
4.23
3.28
2.49
1.88
1.36
0.79
0.00
-1.07
-2.37
-3.72
-4.93
-5.88
-6.58
-7.19
-7.85
-8.63
-9.52
-10.42
-11.30
-12.18
-13.15
-14.26
-15.45
-16.51
-17.12
-16.99
-15.92
-13.91
-11.15
-7.95
-4.68
-1.62
1.05
3.36
5.42
7.39
9.29
11.02
12.36
13.11
13.23
12.84
12.23
11.63
11.15
10.75
10.30
9.69
8.90
8.02
7.13
6.29
5.46
4.61
3.70
2.77
1.89
1.09
0.34
-0.43
-1.34
-2.43
-3.69
-5.03
-6.33
-7.50
-8.53
-9.46
-10.41
-11.48
-12.68
-13.94
-15.07
-15.83
-16.00
-15.44
-14.10
-12.11
-9.68
-7.07
-4.52
-2.19
-0.16
1.59
3.10
4.42
5.60
6.68
7.69
8.63
9.42
9.96
10.11
9.83
9.19
8.38
7.59
6.95
6.45
5.96
5.35
4.57
3.66
2.77
2.02
1.44
0.95
0.44
-0.23
-1.11
-2.19
-3.36
-4.52
-5.58
-6.50
-7.27
-7.93
-8.57
-9.25
-10.08
-11.08
-12.21
-13.32
-14.18
-14.54
-14.21
-13.11
-11.30
-8.96
-6.32
-3.60
-0.96
1.52
3.81
5.95
7.94
9.76
11.37
12.71
13.70
14.31
14.57
14.52
14.22
13.72
13.02
12.10
10.97
9.67
8.30
6.95
5.70
4.54
3.44
2.36
1.29
0.30
-0.56
-1.28
-1.88
-2.47
-3.13
-3.93
-4.90
-6.01
-7.17
-8.29
-9.29
-10.18
-11.02
-11.93
-13.02
-14.26
-15.44
-16.30
-16.58
-16.13
-14.95
-13.15
-10.85
-8.18
-5.28
-2.27
0.68
3.42
5.83
7.85
9.50
10.78
11.75
12.41
12.79
12.90
12.74
12.33
11.67
10.78
9.72
8.57
7.44
6.41
5.52
4.78
4.13
3.51
2.83
2.08
1.26
0.43
-0.34
-1.05
-1.76
-2.57
-3.56
-4.73
-5.97
-7.13
-8.06
-8.72
-9.21
-9.73
-10.47
-11.50
-12.72
-13.90
-14.71
-14.89
-14.30
-12.93
-10.90
-8.36
-5.48
-2.46
0.54
3.30
5.66
7.52
8.88
9.83
10.54
11.14
11.68
12.11
12.34
12.28
11.93
11.37
10.74
10.16
9.66
9.20
8.68
8.01
7.18
6.24
5.25
4.25
3.18
1.99
0.64
-0.84
-2.33
-3.70
-4.89
-5.97
-7.07
-8.31
-9.74
-11.30
-12.87
-14.33
-15.62
-16.73
-17.63
-18.26
-18.51
-18.23
-17.35
-15.83
-13.71
-11.06
-8.01
-4.75
-1.51
1.48
4.09
6.30
8.20
9.87
11.31
12.44
13.15
13.39
13.22
12.79
12.25
11.68
11.09
10.40
9.57
8.64
7.67
6.78
6.03
5.41
4.87
4.30
3.58
2.61
1.36
-0.15
-1.79
-3.43
-4.96
-6.34
-7.55
-8.61
-9.54
-10.35
-11.10
-11.86
-12.76
-13.88
-15.24
-16.73
-18.12
-19.11
-19.42
-18.86
-17.34
-14.91
-11.75
-8.11
-4.30
-0.55
2.96
6.16
9.01
11.49
13.59
15.29
16.56
17.39
17.76
17.64
17.01
15.92
14.52
13.05
11.77
10.85
10.33
10.07
9.84
9.42
8.70
7.69
6.49
5.23
4.02
2.89
1.80
0.70
-0.51
-1.85
-3.28
-4.72
-6.04
-7.16
-8.09
-8.94
-9.87
-11.02
-12.44
-14.05
-15.63
-16.93
-17.69
-17.78
-17.12
-15.75
-13.71
-11.07
-7.88
-4.25
-0.41
3.36
6.75
9.55
11.72
13.37
14.71
15.87
16.83
17.47
17.60
17.16
16.22
15.01
13.76
12.63
11.68
10.86
10.09
9.31
8.45
7.46
6.33
5.07
3.72
2.36
1.05
-0.17
-1.32
-2.46
-3.62
-4.87
-6.21
-7.67
-9.20
-10.75
-12.21
-13.50
-14.59
-15.51
-16.32
-17.05
-17.60
-17.75
-17.24
-15.87
-13.64
-10.73
-7.45
-4.14
-1.06
1.69
4.13
6.34
8.38
10.25
11.86
13.05
13.74
13.90
13.62
13.04
12.31
11.54
10.79
10.11
9.50
8.96
8.45
7.86
7.12
6.17
5.04
3.82
2.59
1.43
0.35
-0.66
-1.62
-2.57
-3.56
-4.65
-5.88
-7.25
-8.67
-10.04
-11.22
-12.19
-13.03
-13.88
-14.86
-16.00
-17.15
-18.01
-18.25
-17.56
-15.82
-13.11
-9.67
-5.83
-1.88
1.96
5.59
8.96
11.96
14.44
16.23
17.22
17.46
17.15
16.56
15.93
15.37
14.80
14.09
13.11
11.85
10.44
9.11
8.02
7.16
6.44
5.65
4.64
3.39
2.00
0.62
-0.63
-1.76
-2.88
-4.12
-5.55
-7.08
-8.55
-9.77
-10.69
-11.35
-11.95
-12.63
-13.54
-14.65
-15.81
-16.82
-17.46
-17.63
-17.25
-16.33
-14.85
-12.85
-10.33
-7.32
-3.92
-0.30
3.31
6.66
9.55
11.85
13.48
14.48
15.00
15.24
15.34
15.34
15.12
14.49
13.44
11.85
9.95
8.14
6.76
6.02
5.85
5.96
5.93
5.70
4.81
3.36
1.68
0.21
-0.65
-0.71
-0.13
0.54
0.97
-0.17
-3.26
-7.95
-12.89
-15.90
-14.47
-6.56
8.65
30.92
57.22
84.23
108.55
127.62
140.06
145.79
145.50
136.63
124.85
110.15
93.13
74.51
55.24
36.41
18.97
3.54
-9.71
-20.32
-29.13
-36.25
-41.76
-45.83
-48.94
-51.77
-55.01
-59.03
-63.28
-67.74
-71.65
-74.33
-75.19
-73.84
-70.00
-63.69
-55.38
-45.80
-36.71
-29.53
-25.24
-23.96
-25.06
-27.41
-29.85
-31.56
-32.05
-31.55
-30.35
-28.72
-26.76
-24.32
-21.12
-16.98
-12.12
-7.18
-3.24
-1.22
-1.47
-3.72
-7.22
-11.20
-15.21
-19.18
-23.12
-26.83
-29.73
-31.09
-30.37
-27.54
-23.12
-17.95
-12.86
-8.33
-4.46
-0.97
2.53
6.46
11.09
16.38
21.91
26.87
30.24
31.05
28.71
23.28
15.37
6.03
-3.71
-13.06
-21.63
-29.33
-36.24
-42.39
-47.82
-52.50
-56.49
-59.88
-62.68
-64.87
-66.25
-66.59
-65.65
-63.35
-59.76
-55.09
-49.63
-43.65
-37.38
-30.98
-24.52
-18.02
-11.51
-5.09
1.09
6.81
11.89
16.19
19.69
22.43
24.48
25.88
26.64
26.76
26.29
25.38
24.26
23.15
22.21
21.41
20.64
19.67
18.35
16.67
14.79
12.94
11.36
10.17
9.26
8.44
7.44
6.11
4.41
2.41
0.24
-1.93
-3.80
-4.88
-4.50
-2.00
2.94
10.16
19.05
28.99
39.68
51.28
64.07
77.93
91.94
104.35
113.23
117.26
116.38
111.83
105.70
99.98
95.89
93.55
92.17
90.40
86.72
79.67
68.10
51.42
29.88
4.75
-21.89
-47.59
-70.21
-88.40
-101.77
-110.73
-116.09
-118.75
-119.54
-119.28
-118.71
-118.38
-118.47
-118.63
-118.12
-116.12
-112.10
-106.06
-98.53
-90.36
-82.35
-75.04
-68.55
-62.63
-56.68
-49.99
-41.84
-31.71
-19.35
-4.80
11.61
29.34
47.77
66.23
84.08
100.72
115.56
128.08
137.93
144.96
149.32
151.45
151.99
151.75
151.58
152.26
154.18
157.11
159.96
160.98
158.26
150.42
137.24
119.78
99.92
79.70
60.57
43.28
28.18
15.53
5.66
-1.27
-5.63
-8.51
-11.48
-16.08
-23.11
-32.23
-42.22
-51.50
-58.85
-63.65
-65.96
-66.17
-64.90
-62.50
-58.93
-53.97
-47.41
-39.19
-29.40
-18.30
-6.46
4.61
13.09
17.18
15.32
6.48
-9.39
-30.93
-55.36
-79.15
-99.95
-116.09
-126.72
-132.16
-133.74
-133.02
-130.86
-126.91
-120.12
-111.30
-101.57
-91.87
-83.03
-75.99
-71.88
-71.90
-77.04
-87.88
-106.28
-131.37
-158.66
-181.26
-192.93
-190.47
-174.79
-149.79
-107.70
-50.16
12.73
67.90
107.58
131.38
143.12
147.21
148.16
149.55
150.94
150.51
146.17
136.59
121.25
101.14
78.22
55.92
37.17
21.09
5.37
-11.66
-29.68
-46.74
-56.99
-57.38
-46.88
-27.18
-3.55
18.22
34.03
42.19
42.40
34.72
18.48
-4.97
-31.77
-56.85
-74.52
-79.82
-69.80
-44.87
-5.90
38.09
75.60
99.60
109.99
110.78
106.19
99.04
90.40
80.47
69.01
57.32
47.37
40.12
35.01
28.81
18.76
3.97
-13.73
-30.57
-41.39
-42.48
-33.98
-20.39
-8.53
-4.20
-9.94
-24.42
-43.76
-62.25
-75.05
-80.10
-78.45
-72.87
-65.88
-58.73
-51.20
-42.01
-30.01
-15.64
-1.06
11.05
19.07
23.44
26.28
30.17
37.28
48.02
60.25
70.65
76.63
77.73
75.30
71.16
66.60
63.06
62.07
64.61
71.22
81.73
94.48
105.82
110.52
98.97
67.00
20.16
-29.14
-69.47
-96.33
-111.72
-120.34
-126.08
-130.49
-134.50
-136.37
-135.83
-133.53
-129.50
-122.02
-108.08
-84.85
-51.28
-8.42
39.84
84.87
116.91
128.94
119.63
94.09
62.09
34.29
18.45
16.13
21.99
27.25
25.00
14.04
-0.93
-12.65
-15.91
-10.45
-0.80
6.46
6.83
-0.12
-11.39
-23.28
-33.86
-43.46
-53.20
-62.98
-70.72
-73.12
-67.59
-54.12
-35.53
-16.02
1.08
15.15
28.50
44.70
66.16
92.01
118.03
138.69
150.31
153.31
152.06
152.14
156.68
164.13
169.10
165.71
151.36
128.36
102.47
79.34
61.29
46.47
30.84
11.26
-12.09
-35.81
-55.35
-67.61
-72.34
-71.84
-69.18
-66.48
-64.24
-61.90
-58.98
-55.78
-53.34
-52.75
-54.51
-58.35
-63.39
-68.80
-74.16
-79.28
-83.71
-86.45
-86.19
-81.90
-73.45
-61.43
-47.34
-33.14
-20.83
-12.11
-8.20
-9.81
-16.85
-28.05
-40.37
-50.58
-56.91
-60.15
-63.35
-70.34
-83.86
-103.99
-127.71
-148.89
-161.64
-162.54
-151.33
-129.63
-99.59
-63.48
-23.76
16.96
57.61
97.55
135.94
171.29
201.70
225.00
238.93
242.00
226.59
191.29
143.30
94.81
54.86
25.62
5.12
-9.25
-18.93
-24.64
-26.14
-24.47
-22.22
-22.34
-25.97
-31.49
-35.64
-35.57
-30.68
-22.08
-12.93
-7.09
-6.95
-11.62
-17.38
-20.46
-18.83
-13.37
-5.88
1.61
7.95
13.02
17.32
20.61
21.04
15.80
3.11
-14.86
-32.34
-41.89
-37.67
-17.90
14.35
52.56
89.74
118.60
134.99
138.23
128.44
105.36
69.76
25.42
-20.32
-58.61
-82.97
-91.94
-91.89
-88.98
-87.86
-89.90
-93.14
-94.43
-91.85
-85.99
-79.17
-70.37
-62.01
-55.41
-50.24
-45.27
-39.45
-32.05
-22.50
-10.56
3.19
16.41
25.76
28.23
23.20
13.54
4.81
2.56
9.30
23.36
39.43
51.47
55.35
50.72
40.55
28.33
18.32
12.88
12.89
18.98
31.02
46.70
61.11
67.37
59.07
33.28
-7.70
-56.10
-100.62
-130.62
-139.61
-126.66
-96.05
-55.36
-12.77
24.61
49.29
59.91
59.84
53.90
45.84
37.38
28.87
20.93
14.65
11.42
12.46
17.11
22.96
27.12
27.52
24.12
18.76
14.08
12.38
15.00
21.52
30.40
39.83
48.60
54.41
54.87
47.94
33.26
13.47
-6.30
-20.32
-24.77
-19.58
-8.49
3.16
11.07
13.77
12.68
10.26
8.14
6.29
3.78
-0.08
-4.59
-8.17
-9.34
-7.69
-4.08
-0.33
1.69
0.83
-3.05
-9.04
-15.67
-21.55
-25.84
-28.39
-29.65
-30.40
-31.33
-32.84
-34.91
-37.15
-39.04
-40.09
-39.98
-38.66
-36.35
-33.51
-30.64
-28.19
-26.32
-24.92
-23.65
-22.15
-20.23
-18.03
-15.86
-14.04
-12.77
-12.00
-11.58
-11.34
-11.24
-11.32
-11.58
-11.92
-12.11
-11.88
-11.08
-9.68
-7.74
-5.26
-2.20
1.61
6.23
11.55
17.26
22.92
28.15
32.75
36.66
39.93
42.59
44.69
46.36
47.94
49.88
52.51
55.85
59.42
62.38
63.96
63.86
62.52
60.95
60.26
61.12
63.44
66.55
69.63
72.08
73.66
74.30
73.85
71.78
67.27
59.47
47.63
31.06
9.26
-17.97
-50.03
-85.10
-120.19
-151.79
-176.94
-194.27
-204.46
-209.71
-212.70
-215.46
-218.67
-221.69
-222.87
-220.13
-211.41
-195.15
-170.66
-138.63
-101.18
-61.63
-23.79
9.00
34.49
51.92
61.92
66.04
66.25
64.52
62.53
61.41
61.70
63.33
65.72
68.07
69.64
69.95
68.98
67.16
65.16
63.65
62.96
63.00
63.30
63.22
62.24
60.19
57.29
53.97
50.79
48.20
46.53
45.90
46.24
47.21
48.29
48.84
48.29
46.35
43.11
38.99
34.70
31.00
28.54
27.77
28.82
31.50
35.29
39.47
43.31
46.20
47.87
48.35
47.95
47.07
46.04
45.09
44.29
43.59
42.86
41.94
40.58
38.49
35.42
31.23
26.09
20.44
14.84
9.80
5.54
1.88
-1.67
-5.77
-10.96
-17.45
-24.96
-32.77
-39.89
-45.32
-48.37
-48.86
-47.28
-44.59
-41.91
-40.22
-39.98
-41.07
-42.75
-43.87
-43.12
-39.39
-32.10
-21.48
-8.67
4.53
16.21
25.04
30.79
34.45
37.66
41.90
47.69
54.18
59.51
61.55
58.81
50.98
39.04
24.87
10.60
-1.92
-11.63
-18.39
-22.95
-26.54
-30.43
-35.32
-41.10
-47.10
-52.64
-57.69
-63.01
-69.84
-79.26
-91.53
-106.00
-121.60
-137.28
-152.30
-165.93
-177.09
-184.32
-186.37
-183.01
-175.71
-167.34
-161.20
-159.61
-163.16
-170.73
-180.24
-189.57
-196.94
-200.56
-198.03
-186.34
-162.63
-125.79
-77.80
-23.92
28.68
73.40
106.41
127.74
140.40
148.45
154.94
160.93
165.82
168.67
169.33
168.74
168.35
169.12
170.88
172.47
172.44
169.86
164.79
158.19
151.26
144.68
138.14
130.45
120.05
105.90
88.14
68.25
48.74
32.31
20.95
15.34
14.70
17.14
20.42
22.61
22.61
20.39
16.70
12.66
9.24
6.84
5.32
4.13
2.79
1.06
-0.86
-2.63
-3.90
-4.55
-4.65
-4.35
-3.75
-2.89
-1.90
-1.04
-0.76
-1.51
-3.48
-6.44
-9.71
-12.42
-13.84
-13.72
-12.37
-10.54
-9.04
-8.46
-8.93
-10.15
-11.64
-12.98
-13.96
-14.57
-14.86
-14.76
-14.05
-12.49
-10.01
-6.80
-3.21
0.33
3.58
6.52
9.25
11.89
14.42
16.74
18.70
20.26
21.49
22.58
23.68
24.87
26.09
27.23
28.17
28.85
29.28
29.49
29.48
29.19
28.45
27.06
24.89
21.92
18.29
14.21
9.90
5.49
1.02
-3.55
-8.28
-13.26
-18.48
-23.86
-29.16
-33.95
-37.73
-40.09
-40.91
-40.43
-39.24
-37.98
-37.09
-36.60
-36.10
-34.99
-32.77
-29.27
-24.67
-19.22
-13.11
-6.29
1.39
9.94
19.02
27.86
35.53
41.29
44.87
46.56
47.06
47.07
47.09
47.37
47.95
48.78
49.86
51.05
51.89
51.49
48.65
42.32
31.93
17.69
0.42
-18.76
-38.73
-58.47
-76.89
-92.77
-104.77
-111.84
-113.56
-110.38
-103.48
-94.26
-83.86
-72.94
-61.79
-50.57
-39.62
-29.48
-20.66
-13.44
-7.79
-3.35
0.38
3.86
7.35
10.85
14.15
16.97
19.11
20.59
21.64
22.63
23.91
25.59
27.56
29.49
31.04
32.01
32.43
32.58
32.85
33.56
34.82
36.50
38.29
39.76
40.52
40.31
39.03
36.75
33.65
29.94
25.76
21.20
16.25
10.98
5.55
0.30
-4.33
-7.91
-10.18
-11.04
-10.57
-8.99
-6.51
-3.36
0.26
4.14
8.17
12.25
16.41
20.72
25.30
30.21
35.45
40.89
46.20
50.74
53.50
53.33
49.23
40.83
28.70
14.28
-0.62
-14.43
-26.35
-36.43
-45.18
-53.04
-60.00
-65.62
-69.48
-71.58
-72.48
-73.04
-73.89
-75.10
-76.15
-76.40
-75.47
-73.61
-71.45
-69.61
-68.25
-66.95
-65.01
-61.85
-57.45
-52.37
-47.45
-43.39
-40.45
-38.37
-36.61
-34.65
-32.19
-29.15
-25.56
-21.41
-16.58
-11.01
-4.79
1.71
7.95
13.49
18.24
22.53
26.94
31.94
37.49
43.01
47.64
50.70
52.13
52.61
53.18
54.71
57.44
60.86
64.07
66.27
67.22
67.33
67.31
67.76
68.80
70.02
70.81
70.72
69.75
68.29
66.89
65.84
64.98
63.79
61.61
58.08
53.24
47.51
41.54
35.83
30.59
25.65
20.61
15.07
8.89
2.21
-4.60
-11.16
-17.25
-22.85
-28.10
-33.04
-37.49
-41.13
-43.63
-44.91
-45.21
-44.96
-44.54
-44.12
-43.53
-42.40
-40.20
-36.57
-31.45
-25.20
-18.60
-12.68
-8.31
-5.95
-5.51
-6.42
-8.04
-9.91
-11.89
-14.04
-16.38
-18.68
-20.55
-21.67
-21.98
-21.76
-21.43
-21.37
-21.67
-22.15
-22.53
-22.59
-22.31
-21.90
-21.61
-21.58
-21.75
-21.78
-21.30
-20.01
-17.93
-15.33
-12.67
-10.28
-8.28
-6.50
-4.69
-2.61
-0.27
2.13
4.32
6.05
7.28
8.09
8.62
8.93
9.02
8.80
8.26
7.48
6.63
5.94
5.54
5.45
5.53
5.58
5.38
4.82
3.91
2.84
1.85
1.18
0.94
1.08
1.38
1.58
1.45
0.93
0.07
-0.94
-1.97
-2.96
-3.95
-4.99
-6.05
-6.96
-7.50
-7.44
-6.68
-5.30
-3.55
-1.73
-0.07
1.33
2.52
3.62
4.74
5.90
7.03
7.98
8.66
8.99
9.03
8.85
8.56
8.21
7.85
7.50
7.22
7.09
7.16
7.47
7.93
8.39
8.70
8.78
8.64
8.35
8.01
7.62
7.11
6.39
5.44
4.39
3.42
2.74
2.41
2.31
2.17
1.73
0.83
-0.44
-1.86
-3.12
-3.94
-4.21
-3.95
-3.26
-2.28
-1.09
0.27
1.79
3.46
5.25
7.12
9.04
11.03
13.16
15.36
17.41
18.83
19.05
17.67
14.66
10.48
5.91
1.72
-1.58
-3.91
-5.50
-6.70
-7.72
-8.61
-9.27
-9.65
-9.80
-9.87
-10.01
-10.29
-10.65
-10.96
-11.08
-10.89
-10.38
-9.62
-8.80
-8.13
-7.77
-7.75
-7.97
-8.26
-8.45
-8.49
-8.39
-8.17
-7.78
-7.12
-6.09
-4.68
-3.03
-1.32
0.26
1.63
2.83
3.90
4.89
5.75
6.42
6.87
7.11
7.22
7.27
7.26
7.14
6.83
6.23
5.35
4.27
3.14
2.16
1.46
1.06
0.84
0.58
0.09
-0.69
-1.70
-2.76
-3.73
-4.50
-4.97
-5.01
-4.44
-3.22
-1.59
-0.15
0.35
-0.74
-3.53
-7.54
-11.82
-15.46
-17.88
-19.09
-19.40
-19.18
-18.57
-17.42
-15.53
-12.88
-9.70
-6.46
-3.60
-1.34
0.36
1.73
3.04
4.40
5.78
7.02
7.96
8.51
8.67
8.59
8.45
8.46
8.69
9.13
9.63
10.02
10.13
9.90
9.34
8.49
7.39
6.07
4.52
2.78
0.92
-0.96
-2.74
-4.36
-5.79
-7.00
-7.94
-8.56
-8.84
-8.84
-8.71
-8.68
-8.99
-9.74
-10.88
-12.21
-13.46
-14.40
-14.92
-15.05
-14.89
-14.54
-14.07
-13.45
-12.56
-11.25
-9.43
-7.15
-4.64
-2.29
-0.48
0.58
0.92
0.82
0.67
0.79
1.40
2.61
4.54
7.29
10.89
15.18
19.74
23.88
26.85
28.09
27.42
25.09
21.68
17.91
14.38
11.42
9.06
7.06
5.11
2.92
0.34
-2.64
-5.94
-9.44
-13.07
-16.83
-20.70
-24.72
-28.79
-32.76
-36.35
-39.22
-41.01
-41.45
-40.31
-37.45
-32.91
-26.89
-19.80
-12.23
-4.79
2.03
8.02
13.25
17.94
22.24
26.15
29.52
32.17
34.06
35.36
36.36
37.30
38.26
39.08
39.53
39.38
38.54
37.07
35.11
32.80
30.25
27.53
24.68
21.73
18.69
15.57
12.42
9.32
6.41
3.83
1.65
-0.18
-1.71
-3.06
-4.24
-5.21
-5.92
-6.29
-6.32
-6.00
-5.33
-4.30
-2.93
-1.27
0.55
2.33
3.91
5.16
6.01
6.44
6.52
6.33
6.02
5.69
5.38
5.05
4.58
3.89
3.00
2.05
1.24
0.70
0.42
0.24
-0.04
-0.57
-1.39
-2.38
-3.40
-4.31
-5.13
-5.97
-6.97
-8.21
-9.66
-11.16
-12.52
-13.59
-14.35
-14.88
-15.24
-15.48
-15.51
-15.27
-14.76
-14.09
-13.50
-13.22
-13.34
-13.72
-14.09
-14.09
-13.48
-12.20
-10.35
-8.13
-5.73
-3.25
-0.72
1.90
4.60
7.32
9.85
11.94
13.30
13.73
13.21
11.92
10.17
8.31
6.52
4.83
3.08
1.14
-1.00
-3.16
-5.09
-6.63
-7.83
-8.96
-10.27
-11.88
-13.66
-15.35
-16.71
-17.70
-18.49
-19.37
-20.48
-21.75
-22.92
-23.71
-23.92
-23.56
-22.76
-21.68
-20.39
-18.92
-17.21
-15.24
-12.99
-10.50
-7.79
-4.98
-2.19
0.41
2.70
4.61
6.22
7.64
9.01
10.35
11.62
12.71
13.56
14.20
14.70
15.11
15.44
15.62
15.55
15.20
14.62
13.92
13.19
12.42
11.51
10.33
8.75
6.77
4.50
2.10
-0.27
-2.49
-4.49
-6.21
-7.63
-8.65
-9.27
-9.57
-9.78
-10.07
-10.56
-11.20
-11.90
-12.57
-13.14
-13.65
-14.28
-15.24
-16.65
-18.44
-20.34
-21.95
-22.90
-22.79
-21.52
-19.39
-16.97
-14.76
-12.93
-11.26
-9.25
-6.43
-2.23
3.34
9.53
15.16
19.30
21.73
22.93
23.81
25.33
28.90
35.09
43.01
50.47
55.12
55.62
52.15
46.28
40.35
37.75
40.24
46.91
54.60
60.04
61.70
60.35
58.34
58.42
64.32
77.81
97.71
120.23
140.89
155.93
162.48
158.48
133.01
83.01
17.56
-45.23
-90.07
-112.44
-117.56
-115.04
-113.41
-117.01
-122.86
-125.99
-123.02
-114.05
-101.70
-89.05
-78.27
-69.89
-62.65
-54.02
-42.00
-26.07
-7.37
12.26
31.24
48.38
62.76
73.55
80.87
84.67
84.39
78.88
67.31
49.92
28.25
4.90
-17.03
-34.26
-44.45
-46.79
-42.12
-32.42
-20.18
-7.90
2.30
8.91
11.24
9.14
2.85
-7.07
-19.60
-33.18
-45.73
-55.03
-59.49
-58.85
-54.68
-49.67
-46.66
-47.28
-51.43
-56.95
-60.50
-58.93
-50.72
-36.99
-20.53
-4.58
8.49
17.45
22.44
24.37
24.14
22.18
18.11
12.27
6.07
1.62
-0.22
-0.04
0.02
-2.84
-10.87
-25.16
-43.85
-62.51
-75.68
-79.94
-74.58
-61.74
-45.35
-25.55
-5.62
10.19
17.25
18.06
15.50
12.18
9.35
7.92
8.62
11.07
14.80
19.45
25.09
31.22
37.49
43.40
47.98
49.25
43.96
29.59
6.37
-21.38
-47.79
-68.06
-80.29
-84.31
-80.48
-69.45
-52.01
-29.81
-5.82
15.21
30.66
38.94
40.30
36.15
28.20
18.01
6.96
-3.81
-13.69
-22.52
-30.81
-38.43
-45.11
-50.03
-51.50
-47.32
-35.88
-17.61
4.53
25.53
40.44
46.16
42.86
33.64
23.07
14.96
10.95
10.36
11.15
11.69
11.56
11.54
12.67
15.17
18.13
19.89
19.19
15.97
11.66
8.36
7.77
10.22
14.56
18.86
21.38
21.44
19.59
17.16
15.48
15.31
16.55
18.42
20.00
20.67
20.34
19.42
18.49
18.02
18.10
18.51
18.82
18.66
17.82
16.39
14.65
12.88
11.24
9.70
8.08
6.20
4.05
1.75
-0.46
-2.35
-3.87
-5.15
-6.40
-7.83
-9.44
-11.06
-12.39
-13.15
-13.20
-12.58
-11.44
-9.96
-8.24
-6.37
-4.42
-2.52
-0.86
0.34
0.92
0.87
0.28
-0.64
-1.68
-2.69
-3.60
-4.36
-4.92
-5.18
-5.08
-4.62
-3.90
-3.12
-2.50
-2.23
-2.35
-2.78
-3.32
-3.74
-3.84
-3.56
-2.96
-2.26
-1.73
-1.64
-2.11
-3.13
-4.50
-5.96
-7.25
-8.18
-8.65
-8.67
-8.29
-7.64
-6.86
-6.11
-5.52
-5.15
-4.94
-4.72
-4.31
-3.57
-2.47
-1.14
0.28
1.66
2.99
4.34
5.78
7.29
8.75
9.97
10.74
10.99
10.73
10.16
9.49
8.93
8.58
8.45
8.44
8.41
8.31
8.12
7.95
7.94
8.12
8.42
8.61
8.45
7.79
6.67
5.33
4.13
3.32
2.98
2.93
2.88
2.54
1.80
0.73
-0.45
-1.50
-2.32
-2.90
-3.36
-3.79
-4.20
-4.51
-4.62
-4.40
-3.81
-2.89
-1.73
-0.44
0.87
2.14
3.34
4.47
5.52
6.47
7.31
7.99
8.51
8.86
9.06
9.09
8.90
8.47
7.76
6.84
5.80
4.76
3.82
3.06
2.47
2.01
1.60
1.17
0.67
0.05
-0.68
-1.48
-2.32
-3.17
-4.08
-5.09
-6.28
-7.63
-9.08
-10.52
-11.86
-13.05
-14.16
-15.23
-16.30
-17.36
-18.28
-18.91
-19.12
-18.82
-17.99
-16.68
-14.98
-13.05
-11.09
-9.27
-7.77
-6.68
-6.04
-5.76
-5.70
-5.67
-5.47
-5.02
-4.34
-3.57
-2.87
-2.30
-1.85
-1.44
-0.97
-0.47
-0.03
0.19
0.13
-0.10
-0.32
-0.27
0.17
0.94
1.82
2.57
2.98
3.02
2.77
2.38
2.00
1.73
1.53
1.34
1.03
0.52
-0.20
-1.04
-1.80
-2.23
-2.10
-1.30
0.15
2.05
4.21
6.43
8.62
10.77
12.88
14.92
16.76
18.24
19.18
19.53
19.33
18.74
17.90
16.96
15.99
15.01
14.05
13.11
12.21
11.35
10.54
9.77
9.05
8.42
7.93
7.62
7.51
7.56
7.70
7.81
7.78
7.54
7.09
6.47
5.78
5.10
4.55
4.12
3.85
3.71
3.68
3.67
3.52
3.05
2.07
0.58
-1.28
-3.11
-4.41
-4.77
-3.94
-1.97
0.87
4.17
7.59
10.89
14.01
16.99
19.88
22.66
25.12
26.94
27.79
27.45
25.95
23.59
20.82
18.04
15.49
13.16
10.90
8.62
6.32
4.13
2.20
0.59
-0.79
-2.09
-3.42
-4.81
-6.12
-7.12
-7.62
-7.50
-6.82
-5.75
-4.50
-3.31
-2.32
-1.68
-1.44
-1.63
-2.14
-2.78
-3.28
-3.43
-3.29
-3.25
-4.02
-6.30
-10.43
-16.15
-22.50
-28.19
-32.02
-33.38
-32.37
-29.75
-26.53
-23.58
-21.35
-19.76
-18.33
-16.33
-13.12
-8.36
-2.32
4.11
9.55
12.65
12.69
9.93
5.64
1.52
-1.00
-1.40
-0.16
1.65
2.94
3.12
2.10
0.11
-2.66
-6.04
-9.76
-13.18
-15.31
-15.21
-12.39
-7.33
-1.35
3.68
6.08
4.89
0.18
-7.07
-15.34
-23.24
-29.94
-35.42
-40.27
-45.29
-50.91
-56.93
-62.38
-65.88
-66.13
-62.33
-54.43
-43.06
-29.37
-14.97
-1.80
8.23
13.66
14.06
10.26
4.25
-1.40
-4.46
-3.66
0.90
8.24
17.02
25.95
33.79
39.48
42.22
41.78
38.68
33.78
28.46
24.22
22.02
21.91
23.23
25.25
27.63
30.72
34.62
39.50
45.31
51.11
54.90
53.95
45.97
30.20
7.97
-18.33
-45.06
-68.29
-85.26
-94.96
-98.19
-96.61
-91.70
-79.84
-60.77
-37.77
-15.71
1.67
12.78
16.79
12.92
0.56
-20.02
-47.28
-77.32
-102.78
-115.21
-107.99
-80.09
-37.15
10.31
50.86
75.84
82.83
75.53
58.31
36.87
15.15
-5.03
-22.73
-36.46
-44.31
-44.57
-37.17
-24.60
-10.88
-0.30
4.80
4.94
2.87
1.77
3.74
9.12
16.57
24.31
30.69
34.90
37.28
38.95
41.19
44.93
50.30
56.52
62.37
66.46
68.04
67.33
65.47
63.98
