1.593203567000000000e+09
-2.999999999999999889e-02
5.059999999999999609e+00
1.791000000000000014e+01
7.934000000000000341e+01
2.282500000000000000e+02
-4.865099999999999909e+02
-6.349999999999999645e+00
1.546699999999999875e+02
3.752000000000000313e+01
-2.383999999999999986e+01
2.500000000000000000e+01
6.099999999999999645e+00
-3.160000000000000142e+00
5.639999999999999680e+00
1.808999999999999986e+01
-1.808999999999999986e+01
-5.500000000000000000e+00
2.750000000000000000e+00
1.083000000000000007e+01
4.699999999999999734e-01
-1.983999999999999986e+01
2.328000000000000114e+01
2.080000000000000071e+00
-1.792000000000000171e+01
7.230000000000000426e+00
1.166999999999999993e+01
-1.500000000000000000e+00
-2.317000000000000171e+01
1.898000000000000043e+01
-2.950000000000000178e+00
-1.996999999999999886e+01
1.260999999999999943e+01
1.124000000000000021e+01
-1.005000000000000071e+01
-2.737999999999999901e+01
1.197000000000000064e+01
-7.370000000000000107e+00
-1.644999999999999929e+01
1.382000000000000028e+01
3.162999999999999901e+01
1.607999999999999829e+01
1.149000000000000057e+02
-3.443999999999999773e+01
4.478000000000000114e+01
-3.028000000000000114e+01
-7.490000000000000213e+00
-6.612000000000000455e+01
3.099999999999999978e-01
5.274000000000000199e+01
1.011999999999999922e+01
-4.207999999999999829e+01
-2.044999999999999929e+01
5.346000000000000085e+01
3.410999999999999943e+01
2.135999999999999943e+01
-6.518999999999999773e+01
-6.918999999999999773e+01
-1.061800000000000068e+02
8.993999999999999773e+01
-4.956000000000000227e+01
6.646999999999999886e+01
6.665000000000000568e+01
1.203999999999999915e+01
-1.982000000000000028e+01
3.080999999999999872e+01
-4.818999999999999773e+01
-1.098299999999999983e+02
5.421999999999999886e+01
-4.779999999999999716e+01
-1.358999999999999986e+01
-7.512999999999999545e+01
6.793999999999999773e+01
8.931999999999999318e+01
5.317000000000000171e+01
5.161999999999999744e+01
-1.987000000000000099e+01
-7.706999999999999318e+01
1.985000000000000142e+01
3.064999999999999858e+01
-2.178999999999999915e+01
-3.001000000000000156e+01
-1.409999999999999920e+00
9.000000000000000000e+00
2.025000000000000000e+01
2.640000000000000124e+00
-1.937000000000000099e+01
3.281000000000000227e+01
-1.680000000000000071e+01
-6.040000000000000036e+00
1.782999999999999829e+01
1.538000000000000078e+01
-7.570000000000000284e+00
3.180000000000000160e+00
1.174000000000000021e+01
-4.440000000000000391e+00
-3.510000000000000142e+01
1.458999999999999986e+01
1.002999999999999936e+01
-2.703999999999999915e+01
-2.130999999999999872e+01
2.164000000000000057e+01
-4.139999999999999680e+00
-1.090000000000000080e+00
3.464999999999999858e+01
-1.105000000000000071e+01
-6.790000000000000036e+00
-2.691000000000000014e+01
1.084999999999999964e+01
-5.224000000000000199e+01
1.607999999999999829e+01
1.390000000000000036e+01
1.076599999999999966e+02
3.035299999999999727e+02
-9.815000000000000568e+01
-2.832900000000000205e+02
-7.142000000000000171e+01
2.166000000000000014e+01
1.682999999999999829e+01
-3.085999999999999943e+01
2.189999999999999858e+01
3.621000000000000085e+01
-5.969999999999999751e+00
-4.419999999999999929e+00
8.730000000000000426e+00
1.179999999999999938e+00
-1.228999999999999915e+01
1.256000000000000050e+01
1.130000000000000071e+01
-3.359000000000000341e+01
2.235000000000000142e+01
3.709000000000000341e+01
-2.103000000000000114e+01
-2.646000000000000085e+01
9.679999999999999716e+00
1.376999999999999957e+01
-3.182000000000000028e+01
1.353999999999999915e+01
2.979999999999999982e+00
-2.430000000000000160e+00
1.380000000000000071e+01
9.000000000000000000e+00
-1.048000000000000043e+01
-1.826000000000000156e+01
1.099000000000000021e+01
2.859999999999999876e+00
-1.514000000000000057e+01
1.275999999999999979e+01
3.310000000000000053e+00
-1.027999999999999936e+01
5.299999999999999822e+00
8.419999999999999929e+00
-4.000000000000000222e-01
-1.372000000000000064e+01
1.569999999999999929e+01
2.890000000000000124e+00
-1.757999999999999829e+01
1.446000000000000085e+01
1.026999999999999957e+01
-1.125000000000000000e+01
-1.223000000000000043e+01
3.571000000000000085e+01
-5.000000000000000278e-02
-3.001999999999999957e+01
2.158999999999999986e+01
1.000000000000000021e-02
-1.864999999999999858e+01
-1.770000000000000018e+00
4.950000000000000178e+00
-7.610000000000000320e+00
-2.742000000000000171e+01
9.899999999999999911e-01
-4.647999999999999687e+01
-1.065400000000000063e+02
-1.634699999999999989e+02
1.331800000000000068e+02
5.084000000000000341e+01
5.296499999999999773e+02
5.954299999999999500e+02
-4.661899999999999977e+02
-3.484200000000000159e+02
2.620699999999999932e+02
1.091000000000000014e+01
-4.699999999999999734e-01
-1.557000000000000028e+01
-5.724000000000000199e+01
-6.860000000000000320e+00
2.000000000000000111e-01
1.409999999999999964e+01
6.290000000000000036e+00
1.944000000000000128e+01
-4.742000000000000171e+01
-7.959999999999999432e+01
6.851000000000000512e+01
-1.327999999999999936e+01
-4.139999999999999858e+01
1.082900000000000063e+02
2.757000000000000028e+01
-7.914000000000000057e+01
2.107000000000000028e+01
6.019999999999999574e+00
-1.682000000000000028e+01
-2.673000000000000043e+01
1.742000000000000171e+01
2.708999999999999986e+01
-6.179999999999999716e+00
1.509999999999999964e+01
-3.259999999999999787e+00
-2.894999999999999929e+01
-1.125999999999999979e+01
5.889999999999999680e+00
-1.378999999999999915e+01
9.000000000000000222e-01
2.051999999999999957e+01
-1.723999999999999844e+01
-1.973999999999999844e+01
4.428000000000000114e+01
-3.040000000000000036e+00
-5.521999999999999886e+01
8.939999999999999503e+00
2.251999999999999957e+01
9.060000000000000497e+00
-2.571999999999999886e+01
4.400000000000000355e+00
-2.187000000000000099e+01
-1.171000000000000085e+01
1.207000000000000028e+01
1.446000000000000085e+01
-2.564000000000000057e+01
1.488000000000000078e+01
7.469999999999999751e+00
1.157199999999999989e+02
-2.080999999999999872e+01
-2.430000000000000160e+00
-1.318999999999999950e+01
-4.828000000000000114e+01
2.648000000000000043e+01
1.333999999999999986e+01
-3.250000000000000000e+00
-5.799999999999999600e-01
2.244000000000000128e+01
-6.250000000000000000e+00
-3.978000000000000114e+01
2.198999999999999844e+01
1.222000000000000064e+01
-1.905999999999999872e+01
2.264000000000000057e+01
1.499999999999999944e-01
-1.703999999999999915e+01
-5.259999999999999787e+00
2.846000000000000085e+01
1.261400000000000006e+02
-9.225000000000000000e+01
5.199000000000000199e+01
2.258999999999999986e+01
-1.614999999999999858e+01
-1.340000000000000080e+00
4.285999999999999943e+01
1.659999999999999920e+00
-1.134999999999999964e+01
-7.000000000000000000e+00
-1.341999999999999993e+01
4.320000000000000284e+01
1.608999999999999986e+01
-2.980000000000000071e+01
-1.033999999999999986e+01
3.240000000000000213e+00
2.769000000000000128e+01
1.179999999999999938e+00
-2.930999999999999872e+01
2.667999999999999972e+01
-3.372999999999999687e+01
-1.213000000000000078e+01
4.303999999999999915e+01
2.009999999999999787e+00
-2.919000000000000128e+01
2.140000000000000124e+00
5.599999999999999645e+00
-7.139999999999999680e+00
-1.291000000000000014e+01
2.621000000000000085e+01
1.524000000000000021e+01
-2.925000000000000000e+01
3.048000000000000043e+01
1.584999999999999964e+01
-1.381000000000000050e+01
-2.937000000000000099e+01
2.237000000000000099e+01
-4.780000000000000249e+00
-7.681000000000000227e+01
9.201999999999999602e+01
4.064000000000000057e+01
-2.626000000000000156e+01
-2.135000000000000142e+01
1.414000000000000057e+01
1.050000000000000000e+01
5.346000000000000085e+01
-1.336999999999999922e+01
-3.128000000000000114e+01
8.259999999999999787e+00
2.705999999999999872e+01
-6.964000000000000057e+01
2.144999999999999929e+01
-5.263000000000000256e+01
1.577999999999999936e+01
1.753999999999999915e+01
-2.764999999999999858e+01
1.253999999999999915e+01
3.552000000000000313e+01
1.213000000000000078e+01
-6.969999999999999751e+00
-2.071000000000000085e+01
-1.493999999999999950e+01
4.189000000000000057e+01
4.497999999999999687e+01
-4.277000000000000313e+01
1.459999999999999964e+00
4.753999999999999915e+01
-3.720000000000000195e+00
-6.943000000000000682e+01
-1.474900000000000091e+02
1.366399999999999864e+02
-2.239000000000000057e+01
6.250000000000000000e+00
2.580000000000000071e+00
-5.367999999999999972e+01
-1.061500000000000057e+02
2.544999999999999929e+01
-4.211999999999999744e+01
-8.399999999999999689e-01
5.139999999999999680e+00
3.435999999999999943e+01
-8.351000000000000512e+01
1.127300000000000040e+02
-1.057300000000000040e+02
1.215000000000000036e+01
8.201000000000000512e+01
3.069999999999999929e+01
1.776999999999999957e+01
3.735000000000000142e+01
2.214999999999999858e+01
-1.493999999999999950e+01
4.957000000000000028e+01
3.411999999999999744e+01
1.007399999999999949e+02
-1.155699999999999932e+02
1.192900000000000063e+02
-2.351899999999999977e+02
3.989999999999999858e+01
8.526999999999999602e+01
-3.732999999999999829e+01
-4.877000000000000313e+01
-9.789999999999999147e+00
-1.810000000000000142e+01
-6.459999999999999964e+00
4.490000000000000213e+00
-4.800000000000000000e+01
8.131000000000000227e+01
1.007000000000000028e+01
-8.429999999999999716e+00
-9.750000000000000000e+00
5.284000000000000341e+01
-5.728999999999999915e+01
-3.669999999999999929e+00
-2.549999999999999822e+00
-1.055000000000000071e+01
-2.200000000000000000e+01
-8.050000000000000711e+00
-5.854999999999999716e+01
-6.673000000000000398e+01
2.580999999999999872e+01
1.823000000000000043e+01
-7.039000000000000057e+01
2.135000000000000142e+01
9.807999999999999829e+01
-5.334000000000000341e+01
-2.357999999999999829e+01
-2.540000000000000036e+00
2.414999999999999858e+01
4.150000000000000355e+00
-1.421000000000000085e+01
4.450000000000000178e+00
8.954999999999999716e+01
-1.123900000000000006e+02
1.238000000000000078e+01
-1.500000000000000000e+00
-9.160000000000000142e+00
7.556000000000000227e+01
2.996000000000000085e+01
6.879000000000000625e+01
-5.460999999999999943e+01
-1.277999999999999936e+01
6.960999999999999943e+01
-5.396000000000000085e+01
1.901399999999999864e+02
-2.856700000000000159e+02
-1.199999999999999956e+00
1.356100000000000136e+02
-3.724000000000000199e+01
-1.406500000000000057e+02
-3.359999999999999876e+00
8.087000000000000455e+01
5.856000000000000227e+01
-3.615899999999999750e+02
6.900000000000000355e+00
2.098000000000000043e+01
6.828000000000000114e+01
7.579999999999999716e+01
-1.624699999999999989e+02
1.053499999999999943e+02
-9.093000000000000682e+01
6.804999999999999716e+01
-2.508400000000000034e+02
-1.341999999999999993e+01
3.142000000000000171e+01
-3.930000000000000160e+00
1.308999999999999986e+01
4.000000000000000083e-02
-5.509999999999999787e+00
2.310999999999999943e+01
1.273000000000000043e+01
-1.401999999999999957e+01
1.246000000000000085e+01
8.630000000000000782e+00
-1.365000000000000036e+01
1.948999999999999844e+01
2.196999999999999886e+01
-8.460000000000000853e+00
2.589999999999999858e+00
1.030000000000000071e+01
-8.359999999999999432e+00
-2.344999999999999929e+01
3.499000000000000199e+01
-5.999999999999999778e-02
-3.187999999999999901e+01
-1.659999999999999920e+00
2.337000000000000099e+01
5.370000000000000107e+00
-1.333999999999999986e+01
7.051999999999999602e+01
-1.148100000000000023e+02
5.339999999999999858e+00
-3.319999999999999840e+00
-4.192000000000000171e+01
-1.047000000000000064e+01
1.785999999999999943e+01
8.142000000000000171e+01
-4.050000000000000000e+01
7.871999999999999886e+01
1.483999999999999986e+01
-3.267999999999999972e+01
7.831000000000000227e+01
-1.209599999999999937e+02
-1.133000000000000007e+01
7.495000000000000284e+01
3.007000000000000028e+01
2.587000000000000099e+01
1.659999999999999920e+00
4.799000000000000199e+01
-7.281000000000000227e+01
-7.975000000000000000e+01
2.202299999999999898e+02
-1.252999999999999936e+01
-8.581000000000000227e+01
-6.202000000000000313e+01
1.453999999999999915e+01
2.014000000000000057e+01
-2.450000000000000178e+00
2.133999999999999986e+01
1.428999999999999915e+01
-5.830000000000000071e+00
8.929999999999999716e+00
8.009999999999999787e+00
-1.309999999999999964e+01
5.629999999999999893e+00
2.149999999999999911e+00
-1.548000000000000043e+01
2.620000000000000107e+00
2.289000000000000057e+01
-4.830000000000000071e+00
-6.759999999999999787e+00
2.007000000000000028e+01
9.970000000000000639e+00
-2.173000000000000043e+01
1.739999999999999858e+01
1.375699999999999932e+02
-3.532000000000000028e+01
1.457000000000000028e+01
-1.459999999999999964e+01
-4.488000000000000256e+01
1.266000000000000014e+01
-2.399999999999999911e-01
1.153999999999999915e+01
5.910000000000000142e+01
-2.739000000000000057e+01
-2.662999999999999901e+01
-1.303999999999999915e+01
7.730000000000000426e+00
-7.910000000000000142e+00
1.506000000000000050e+01
1.138000000000000078e+01
-8.300000000000000711e+00
1.308999999999999986e+01
1.391000000000000014e+01
-2.430999999999999872e+01
-2.371000000000000085e+01
1.506000000000000050e+01
7.870000000000000107e+00
-1.100000000000000006e-01
7.009999999999999787e+00
-1.358000000000000007e+01
-1.879999999999999893e+00
2.030999999999999872e+01
-1.807000000000000028e+01
-1.010999999999999943e+01
1.741000000000000014e+01
-8.269999999999999574e+00
1.700000000000000122e-01
5.690000000000000391e+00
-7.059999999999999609e+00
3.299999999999999822e+00
1.066000000000000014e+01
-1.461999999999999922e+01
-3.229999999999999982e+00
1.523000000000000043e+01
-1.147000000000000064e+01
-2.951999999999999957e+01
-9.601999999999999602e+01
-2.469000000000000128e+01
1.474499999999999886e+02
5.889999999999999858e+01
1.559900000000000091e+02
-1.256899999999999977e+02
-2.056800000000000068e+02
-2.564999999999999858e+01
1.484999999999999964e+01
-1.233999999999999986e+01
-3.164000000000000057e+01
7.269999999999999574e+00
-3.699999999999999956e-01
3.520000000000000018e+00
5.296000000000000085e+01
-4.382000000000000028e+01
-7.243999999999999773e+01
1.436800000000000068e+02
1.499999999999999944e-01
-9.779999999999999361e+00
1.428700000000000045e+02
9.349999999999999645e+00
2.187999999999999901e+01
-1.264000000000000057e+02
7.087000000000000455e+01
-1.027999999999999936e+01
9.399999999999999467e-01
-6.590999999999999659e+01
-2.491000000000000014e+01
-2.542999999999999972e+01
-2.546999999999999886e+01
2.287000000000000099e+01
-3.060999999999999943e+01
-1.701999999999999957e+01
3.438000000000000256e+01
-1.928000000000000114e+01
2.071999999999999886e+01
1.494999999999999929e+01
-2.607999999999999829e+01
2.223000000000000043e+01
3.339999999999999858e+01
-1.085999999999999943e+01
7.719999999999999751e+00
6.803000000000000114e+01
3.881000000000000227e+01
-5.568999999999999773e+01
-6.535999999999999943e+01
-2.183999999999999986e+01
6.200000000000000178e+00
-3.960999999999999943e+01
-7.828000000000000114e+01
6.718999999999999773e+01
3.284000000000000341e+01
-3.485999999999999943e+01
-6.530000000000000249e+00
-1.269800000000000040e+02
7.301000000000000512e+01
4.147999999999999687e+01
6.114000000000000057e+01
-8.973000000000000398e+01
-2.637000000000000099e+01
8.528000000000000114e+01
1.291000000000000014e+01
-1.576999999999999957e+01
-1.710999999999999943e+01
2.233999999999999986e+01
-1.923999999999999844e+01
1.574000000000000021e+01
-7.379999999999999893e+00
1.427999999999999936e+01
1.075000000000000000e+01
3.600000000000000089e+00
-8.000000000000000444e-01
-7.639999999999999680e+00
6.320000000000000284e+00
-1.817999999999999972e+01
7.820000000000000284e+00
2.279999999999999805e+00
-6.923000000000000398e+01
3.096999999999999886e+01
-4.532999999999999829e+01
3.436999999999999744e+01
-1.431000000000000050e+01
-2.521999999999999886e+01
8.804999999999999716e+01
-4.922999999999999687e+01
1.043499999999999943e+02
-3.335999999999999943e+01
-2.580000000000000071e+01
-1.036800000000000068e+02
-1.364799999999999898e+02
1.968600000000000136e+02
6.840000000000000568e+01
-7.690000000000000568e+01
-8.081000000000000227e+01
-1.000000000000000000e+01
6.919999999999999929e+00
1.090000000000000036e+01
2.000000000000000111e-01
1.033999999999999986e+01
3.778999999999999915e+01
1.597000000000000064e+01
2.685999999999999943e+01
-1.189300000000000068e+02
-8.945000000000000284e+01
1.108400000000000034e+02
4.859000000000000341e+01
6.434999999999999432e+01
2.016000000000000014e+01
-4.282999999999999829e+01
3.350000000000000000e+01
8.912999999999999545e+01
1.136999999999999922e+01
-6.851999999999999602e+01
-5.290000000000000036e+00
-1.455000000000000071e+01
-4.600999999999999801e+01
-1.499999999999999944e-01
8.257999999999999829e+01
-1.723999999999999844e+01
-8.800000000000000711e+00
9.759999999999999787e+00
4.959999999999999964e+00
-1.333999999999999986e+01
-2.214999999999999858e+01
1.328999999999999915e+01
-3.896000000000000085e+01
-2.666000000000000014e+01
1.056000000000000050e+01
-1.348000000000000043e+01
-2.410000000000000142e+01
2.182000000000000028e+01
6.232000000000000028e+01
6.956999999999999318e+01
-3.089999999999999858e+00
2.280399999999999920e+02
-1.395999999999999943e+02
-3.253999999999999773e+02
-2.032999999999999829e+01
7.860999999999999943e+01
-4.875000000000000000e+01
2.802699999999999818e+02
2.948999999999999844e+01
-5.849000000000000199e+01
8.171999999999999886e+01
1.234300000000000068e+02
-7.237999999999999545e+01
-1.894099999999999966e+02
-5.929999999999999716e+00
1.315000000000000036e+01
1.327999999999999936e+01
-1.048000000000000043e+01
5.009999999999999787e+00
3.370000000000000107e+00
-7.049999999999999822e+00
1.210999999999999943e+01
1.323000000000000043e+01
-4.009999999999999787e+00
3.589999999999999858e+00
6.480000000000000426e+00
-1.060000000000000053e+00
2.555000000000000071e+01
8.440999999999999659e+01
-3.982000000000000028e+01
1.960000000000000142e+01
4.224000000000000199e+01
1.356200000000000045e+02
-1.456800000000000068e+02
-6.238000000000000256e+01
-5.442999999999999972e+01
-2.069999999999999929e+01
7.849999999999999645e+00
-4.230000000000000426e+00
-4.049999999999999822e+00
1.871000000000000085e+01
4.259999999999999787e+00
-7.639999999999999680e+00
1.360999999999999943e+01
3.729999999999999982e+00
-1.147000000000000064e+01
1.531000000000000050e+01
6.980000000000000426e+00
-1.343999999999999950e+01
1.866000000000000014e+01
6.429999999999999716e+00
-1.252999999999999936e+01
7.589999999999999858e+00
5.070000000000000284e+00
-1.091000000000000014e+01
4.419999999999999929e+00
1.077999999999999936e+01
-6.559999999999999609e+00
-1.346000000000000085e+01
1.476999999999999957e+01
-1.110000000000000098e+00
-1.664999999999999858e+01
1.357000000000000028e+01
2.620000000000000107e+00
-1.630999999999999872e+01
1.067999999999999972e+01
6.450000000000000178e+00
-9.699999999999999289e+00
3.020000000000000018e+00
8.519999999999999574e+00
-6.580000000000000071e+00
-1.115000000000000036e+01
1.115000000000000036e+01
-1.340000000000000080e+00
-1.409999999999999964e+01
1.010999999999999943e+01
-2.300000000000000100e-01
-1.453999999999999915e+01
1.431000000000000050e+01
2.999999999999999889e-01
-1.425999999999999979e+01
1.077999999999999936e+01
3.509999999999999787e+00
-9.730000000000000426e+00
7.519999999999999574e+00
8.009999999999999787e+00
-1.130000000000000071e+01
1.479999999999999982e+00
8.640000000000000568e+00
-8.609999999999999432e+00
-8.109999999999999432e+00
1.305000000000000071e+01
-1.850000000000000089e+00
-1.575000000000000000e+01
1.716000000000000014e+01
-1.700000000000000122e-01
-1.775000000000000000e+01
1.390000000000000036e+01
1.429999999999999938e+00
-1.600000000000000000e+01
1.721999999999999886e+01
4.639999999999999680e+00
-1.353999999999999915e+01
9.550000000000000711e+00
5.849999999999999645e+00
-1.289000000000000057e+01
9.312999999999999545e+01
-6.328000000000000114e+01
-2.985000000000000142e+01
-7.219999999999999751e+00
2.529999999999999805e+00
-3.624000000000000199e+01
-3.738000000000000256e+01
2.628999999999999915e+01
7.440000000000000391e+00
6.406999999999999318e+01
6.809999999999999432e+01
-1.184699999999999989e+02
-1.935000000000000142e+01
1.515800000000000125e+02
5.660000000000000142e+00
-5.892999999999999972e+01
-9.995000000000000284e+01
-7.704000000000000625e+01
1.431200000000000045e+02
-2.967999999999999972e+01
-7.451999999999999602e+01
4.736999999999999744e+01
-4.375999999999999801e+01
2.628000000000000114e+01
9.448000000000000398e+01
-1.335300000000000011e+02
1.612999999999999901e+01
-4.346000000000000085e+01
1.386899999999999977e+02
1.125999999999999979e+01
-5.835000000000000142e+01
-9.810000000000000497e+00
-1.296299999999999955e+02
9.481000000000000227e+01
-2.207999999999999829e+01
1.580000000000000071e+01
2.542000000000000171e+01
-5.540999999999999659e+01
2.335999999999999943e+01
3.328000000000000114e+01
3.738000000000000256e+01
3.039999999999999858e+01
1.267999999999999972e+01
-1.566999999999999993e+01
-3.064000000000000057e+01
-1.158000000000000007e+01
3.665999999999999659e+01
6.111999999999999744e+01
-8.509999999999999432e+01
-1.386299999999999955e+02
6.806999999999999318e+01
4.820000000000000284e+01
3.150000000000000000e+01
3.849000000000000199e+01
-4.532000000000000028e+01
4.530000000000000249e+00
-1.919999999999999929e+00
-1.215999999999999943e+02
-1.969399999999999977e+02
1.658199999999999932e+02
1.200499999999999972e+02
9.240000000000000213e+00
-7.600000000000000089e-01
-1.396000000000000085e+01
1.869999999999999929e+01
2.489000000000000057e+01
-4.090999999999999659e+01
1.901999999999999957e+01
4.864999999999999858e+01
-8.385999999999999943e+01
1.910999999999999943e+01
3.828999999999999915e+01
-1.017999999999999972e+01
4.620000000000000284e+01
-6.948000000000000398e+01
-5.745000000000000284e+01
7.950000000000000178e+00
6.406999999999999318e+01
6.160999999999999943e+01
-2.810000000000000142e+01
-1.860000000000000142e+01
-2.142999999999999972e+01
-1.266999999999999993e+01
8.259999999999999787e+00
1.379999999999999893e+00
-3.549999999999999822e+00
7.849999999999999645e+00
5.440000000000000391e+00
-2.279999999999999805e+00
1.048000000000000043e+01
-1.096000000000000085e+01
-7.120000000000000107e+00
7.259999999999999787e+00
-3.729999999999999982e+00
-1.939999999999999858e+01
7.959999999999999964e+00
4.519999999999999574e+00
-1.088000000000000078e+01
-4.799999999999999822e-01
2.742000000000000171e+01
-2.069999999999999929e+01
8.019999999999999574e+00
3.707000000000000028e+01
-3.060000000000000053e+00
6.440000000000000391e+00
-5.699999999999999512e-01
-1.548000000000000043e+01
-3.250000000000000000e+00
1.139999999999999902e+00
-2.175000000000000000e+01
4.099999999999999756e-01
1.519999999999999929e+01
-8.650000000000000355e+00
-2.194999999999999929e+01
2.173000000000000043e+01
5.460000000000000142e+01
1.755999999999999872e+01
-6.264999999999999858e+01
2.825000000000000000e+01
-1.960000000000000142e+01
-2.053000000000000114e+01
-1.086999999999999922e+01
9.349999999999999645e+00
-4.778999999999999915e+01
6.959999999999999964e+00
4.285999999999999943e+01
1.166000000000000014e+01
2.033999999999999986e+01
4.049999999999999822e+00
-8.240000000000000213e+00
-5.080000000000000071e+00
-2.109999999999999876e+00
-4.309999999999999609e+00
9.490000000000000213e+00
5.330000000000000071e+00
-4.509999999999999787e+00
8.859999999999999432e+00
5.000000000000000278e-02
-1.735999999999999943e+01
-5.669999999999999929e+00
-2.700000000000000178e-01
-1.040000000000000036e+00
1.953000000000000114e+01
7.620000000000000107e+00
3.669999999999999929e+00
1.698999999999999844e+01
4.129999999999999893e+00
-1.679999999999999938e+00
-3.338000000000000256e+01
9.929999999999999716e+00
-1.521000000000000085e+01
-5.692999999999999972e+01
-4.459999999999999964e+00
2.323000000000000043e+01
-8.526000000000000512e+01
-7.731999999999999318e+01
-3.646000000000000085e+01
3.489999999999999858e+01
