1592925663.00
64.000000
-0.00
-0.00
-0.00
-0.00
-0.00
-0.00
-0.00
-0.00
-0.00
-0.00
0.00
0.01
0.01
-0.00
-0.03
-0.05
-0.05
0.00
0.13
0.36
0.66
1.01
1.37
1.72
2.06
2.40
2.79
3.24
3.80
4.42
5.06
5.66
6.20
6.68
7.15
7.68
8.31
9.14
10.09
11.04
11.88
12.56
13.14
13.76
14.65
15.96
17.91
20.32
22.90
25.38
27.58
29.57
31.68
34.32
37.81
42.54
48.15
54.10
59.83
64.97
69.58
74.14
79.34
85.71
93.76
103.00
112.62
121.73
129.77
136.75
143.30
150.74
157.77
166.64
177.95
191.81
207.01
220.61
228.27
225.32
208.38
176.60
132.37
79.57
22.55
-35.46
-92.94
-149.67
-205.80
-261.05
-314.56
-364.81
-410.84
-451.91
-487.46
-516.65
-538.17
-550.30
-551.31
-540.03
-516.16
-480.78
-435.98
-384.43
-328.91
-271.83
-215.03
-159.77
-106.94
-57.15
-11.17
30.23
66.28
96.40
120.37
138.44
151.32
159.99
165.57
168.90
170.45
170.27
168.09
163.64
156.87
148.17
138.37
128.45
119.20
110.99
103.62
96.53
89.08
80.75
71.25
60.55
48.94
37.28
27.20
20.86
20.31
26.43
38.23
52.86
66.55
76.24
80.52
79.96
76.47
72.07
67.95
64.11
59.94
54.92
49.17
43.44
38.66
35.34
33.31
31.71
29.49
25.99
21.27
16.17
11.84
9.21
8.51
9.06
9.68
9.23
7.22
4.01
0.62
-1.94
-3.14
-3.11
-2.39
-1.50
-0.67
0.21
1.24
2.26
2.86
2.50
0.96
-1.49
-4.26
-6.62
-8.09
-8.60
-8.43
-8.01
-7.76
-7.89
-8.38
-9.00
-9.44
-9.36
-8.60
-7.31
-5.76
-4.33
-3.22
-2.39
-1.59
-0.53
0.88
2.45
3.74
4.36
4.15
3.42
2.68
2.39
2.69
3.26
3.56
3.24
2.39
1.54
1.31
2.12
3.83
5.85
7.51
8.47
8.82
9.02
9.51
10.49
11.71
12.70
12.95
12.22
10.61
8.51
6.40
4.48
2.75
1.01
-1.02
-3.45
-6.14
-8.67
-10.58
-11.56
-11.67
-11.29
-10.96
-11.04
-11.49
-11.91
-11.78
-10.77
-9.02
-7.09
-5.69
-5.25
-5.67
-6.40
-6.72
-6.14
-4.73
-3.09
-1.96
-1.83
-2.60
-3.65
-4.17
-3.57
-1.87
0.38
2.37
3.53
3.75
3.43
3.26
3.78
5.15
7.08
9.08
10.67
11.63
11.91
11.61
10.86
9.66
7.92
5.50
2.40
-1.08
-4.43
-7.07
-8.55
-8.66
-7.57
-5.67
-3.40
-1.22
0.45
1.52
1.70
0.67
-1.64
-4.95
-8.44
-11.09
-12.13
-11.32
-9.06
-6.17
-3.43
-1.23
0.47
2.03
3.77
5.66
7.38
8.38
8.11
6.25
2.91
-1.35
-5.66
-9.09
-11.20
-12.03
-12.09
-12.02
-12.23
-12.60
-12.45
-10.90
-7.37
-2.40
2.68
6.37
7.85
7.35
6.02
5.34
6.28
8.76
11.20
11.65
9.04
3.83
-2.41
-7.95
-11.82
-14.24
-16.31
-19.92
-26.39
-35.81
-47.17
-59.08
-70.37
-79.95
-86.55
-85.53
-74.32
-54.94
-33.62
-16.61
-6.58
-2.25
-0.25
2.37
6.29
9.33
8.89
3.63
-5.33
-15.13
-22.84
-26.71
-26.36
-22.20
-15.05
-5.14
7.89
23.86
41.46
58.15
71.14
78.67
80.78
78.84
74.87
70.56
66.79
63.60
60.66
57.92
55.94
55.62
57.37
60.68
63.99
65.17
62.29
54.24
41.09
24.05
5.14
-13.36
-29.08
-39.87
-43.93
-40.12
-28.28
-9.32
14.69
40.76
65.18
84.02
93.82
92.36
79.40
57.02
29.18
0.64
-24.35
-43.22
-55.56
-62.81
-67.36
-71.60
-77.21
-84.84
-94.09
-103.76
-112.07
-117.07
-117.20
-111.72
-101.10
-87.02
-71.94
-58.52
-48.84
-43.94
-43.68
-47.07
-52.80
-59.72
-67.06
-74.26
-80.73
-85.62
-87.84
-86.48
-81.20
-72.41
-61.13
-48.51
-35.37
-22.01
-8.42
5.17
17.99
28.78
36.36
40.34
41.54
41.76
43.00
46.50
52.11
58.40
63.44
65.86
65.63
64.18
63.72
66.23
72.42
81.41
91.05
98.87
103.07
103.25
100.46
96.79
94.57
95.72
101.17
110.58
122.24
133.44
141.17
142.84
136.93
123.38
103.54
79.89
55.41
32.86
14.14
-0.29
-11.56
-21.84
-33.29
-46.89
-61.79
-75.61
-85.41
-88.95
-85.58
-76.25
-62.96
-47.98
-33.38
-20.87
-11.81
-7.08
-6.88
-10.46
-16.11
-21.50
-24.42
-23.53
-18.81
-11.56
-3.94
1.85
4.30
3.11
-0.83
-5.94
-10.55
-13.51
-14.49
-13.87
-12.50
-11.31
-11.00
-11.93
-14.06
-16.97
-20.01
-22.51
-23.96
-24.22
-23.53
-22.42
-21.59
-21.67
-23.05
-25.76
-29.35
-32.98
-35.57
-36.11
-34.05
-29.49
-23.19
-16.25
-9.66
-3.91
1.04
5.46
9.55
13.09
15.58
16.68
16.57
16.05
16.13
17.51
20.06
22.82
24.39
23.70
20.58
15.87
11.12
7.81
6.79
7.89
10.11
12.10
12.82
11.99
10.13
8.25
7.25
7.42
8.32
9.07
8.90
7.62
5.67
3.82
2.65
2.17
1.84
0.97
-0.88
-3.59
-6.63
-9.34
-11.36
-12.78
-14.12
-16.00
-18.75
-22.18
-25.58
-28.03
-28.91
-28.22
-26.67
-25.30
-24.84
-25.26
-25.69
-24.93
-22.18
-17.65
-12.48
-8.21
-5.93
-5.70
-6.66
-7.54
-7.36
-5.93
-3.78
-1.74
-0.38
0.33
0.89
1.89
3.58
5.61
7.25
7.77
6.98
5.33
3.70
2.88
3.04
3.62
3.67
2.43
-0.10
-3.15
-5.65
-6.87
-6.92
-6.61
-6.95
-8.44
-10.75
-12.84
-13.58
-12.30
-9.15
-4.96
-0.77
2.60
4.88
6.24
7.05
7.62
8.02
8.14
7.84
7.08
5.97
4.79
3.87
3.50
3.81
4.72
5.91
6.99
7.69
7.94
7.97
8.03
8.23
8.41
8.19
7.33
5.89
4.28
3.07
2.55
2.55
2.46
1.63
-0.29
-3.02
-5.81
-7.73
-8.20
-7.30
-5.78
-4.68
-4.85
-6.49
-9.06
-11.54
-12.92
-12.74
-11.21
-9.05
-6.94
-5.15
-3.43
-1.19
1.97
5.95
10.13
13.64
15.86
16.68
16.56
16.19
16.16
16.58
17.14
17.34
16.84
15.66
14.22
13.07
12.59
12.73
13.06
12.98
12.07
10.36
8.24
6.28
4.89
4.03
3.30
2.13
0.19
-2.44
-5.22
-7.51
-8.88
-9.36
-9.47
-9.82
-10.86
-12.55
-14.46
-16.07
-17.11
-17.73
-18.36
-19.36
-20.67
-21.75
-21.78
-20.14
-16.81
-12.41
-7.92
-4.21
-1.54
0.51
2.76
5.86
9.84
14.10
17.61
19.61
19.99
19.33
18.59
18.52
19.25
20.25
20.68
19.97
18.16
15.82
13.79
12.63
12.28
12.14
11.43
9.67
6.94
3.85
1.20
-0.49
-1.32
-1.89
-2.99
-5.09
-8.02
-11.09
-13.44
-14.57
-14.61
-14.21
-14.18
-15.03
-16.71
-18.73
-20.45
-21.42
-21.60
-21.24
-20.64
-19.89
-18.79
-16.98
-14.10
-10.13
-5.43
-0.67
3.41
6.33
8.08
9.06
9.86
10.99
12.52
14.14
15.30
15.61
15.03
13.93
12.88
12.34
12.35
12.60
12.52
11.75
10.30
8.57
7.18
6.53
6.55
6.75
6.41
5.09
2.84
0.20
-2.04
-3.34
-3.67
-3.53
-3.61
-4.42
-5.97
-7.83
-9.42
-10.40
-10.90
-11.42
-12.48
-14.17
-16.07
-17.36
-17.24
-15.45
-12.40
-9.00
-6.13
-4.16
-2.83
-1.42
0.72
3.77
7.29
10.47
12.63
13.56
13.56
13.29
13.32
13.85
14.68
15.38
15.53
15.04
14.13
13.24
12.78
12.85
13.16
13.15
12.31
10.50
8.03
5.57
3.76
2.85
2.60
2.41
1.74
0.37
-1.51
-3.48
-5.17
-6.45
-7.48
-8.57
-9.94
-11.59
-13.35
-14.96
-16.27
-17.30
-18.31
-19.53
-21.05
-22.64
-23.74
-23.67
-21.95
-18.58
-14.10
-9.37
-5.19
-1.95
0.47
2.53
4.69
7.10
9.52
11.46
12.54
12.75
12.52
12.44
12.96
14.06
15.27
15.89
15.50
14.13
12.37
11.00
10.55
10.99
11.76
12.12
11.59
10.20
8.47
7.04
6.29
6.09
5.87
5.04
3.31
0.95
-1.36
-2.94
-3.44
-3.16
-2.84
-3.29
-4.91
-7.51
-10.39
-12.79
-14.31
-15.09
-15.67
-16.53
-17.76
-18.90
-19.23
-18.20
-15.76
-12.46
-9.11
-6.39
-4.45
-2.95
-1.32
0.88
3.56
6.25
8.27
9.21
9.16
8.64
8.37
8.89
10.30
12.21
13.92
14.84
14.75
13.97
13.17
12.99
13.71
15.03
16.20
16.40
15.22
12.97
10.55
8.97
8.73
9.62
10.85
11.44
10.71
8.63
5.78
2.95
0.57
-1.75
-4.83
-9.38
-15.67
-23.27
-31.13
-37.75
-41.64
-41.77
-38.20
-31.51
-22.80
-13.80
-6.56
-2.90
-3.76
-8.71
-16.21
-24.48
-30.95
-32.82
-28.41
-18.14
-4.75
7.29
13.69
12.25
3.87
-6.29
-10.71
-3.59
16.83
45.44
72.04
88.26
95.11
96.44
96.42
98.13
101.68
103.89
103.31
100.01
95.06
89.26
79.61
64.26
44.41
21.51
-3.15
-29.10
-55.95
-81.93
-103.80
-118.11
-125.93
-127.18
-125.59
-125.79
-131.18
-142.66
-158.65
-176.73
-195.04
-214.18
-225.39
-225.10
-211.70
-186.06
-151.43
-112.83
-79.42
-52.85
-33.59
-20.29
-11.94
-5.44
2.50
14.28
30.24
48.39
66.13
80.47
90.62
96.74
101.60
108.02
117.71
130.28
143.89
157.03
168.10
176.25
179.71
177.43
168.19
152.23
131.79
111.31
96.86
93.50
103.61
119.07
130.69
130.93
119.25
100.80
82.14
68.05
59.81
55.43
50.64
44.53
34.61
21.01
5.88
-7.84
-17.66
-22.95
-25.30
-27.46
-30.81
-34.84
-37.06
-34.98
-28.00
-18.21
-9.62
-6.35
-9.96
-17.77
-25.04
-27.45
-24.13
-18.24
-14.97
-18.47
-30.37
-48.83
-69.14
-86.24
-96.63
-99.76
-97.58
-93.26
-89.65
-89.63
-94.94
-105.02
-117.36
-127.96
-133.03
-130.22
-119.47
-102.62
-84.54
-71.13
-67.08
-75.17
-95.39
-125.01
-159.15
-192.01
-207.25
-192.87
-149.08
-89.27
-32.50
6.98
24.25
21.54
5.21
-16.55
-35.38
-44.54
-38.39
-15.65
20.66
65.05
110.77
148.41
170.06
173.98
165.19
158.39
160.03
171.08
190.35
214.51
232.97
236.81
219.53
171.78
98.06
20.00
-48.98
-99.17
-122.41
-116.27
-83.31
-30.43
32.63
95.95
145.02
167.75
161.71
131.72
85.16
30.90
-20.05
-62.72
-92.54
-108.56
-113.52
-111.10
-105.54
-98.63
-91.58
-84.16
-75.89
-65.65
-53.95
-42.41
-31.87
-22.71
-15.08
-8.95
-3.93
-0.08
2.86
4.64
5.00
4.55
4.15
4.38
5.21
6.32
7.00
7.01
6.39
5.59
5.44
6.64
9.33
12.83
16.16
18.26
18.53
16.98
14.18
11.09
8.59
7.20
6.74
6.66
6.20
4.86
2.62
-0.08
-2.53
-4.17
-4.86
-5.03
-5.37
-6.46
-8.44
-10.99
-13.50
-15.48
-16.81
-17.73
-18.51
-19.10
-19.01
-17.51
-14.07
-8.80
-2.53
3.47
8.14
11.06
12.68
13.96
15.87
18.82
22.45
25.90
28.24
29.04
28.48
27.29
26.26
25.86
26.00
26.13
25.66
24.27
22.13
19.78
17.78
16.38
15.33
14.06
11.98
8.90
5.11
1.30
-1.85
-4.00
-5.36
-6.51
-8.07
-10.37
-13.28
-16.34
-19.06
-21.29
-23.29
-25.61
-28.62
-32.25
-35.84
-38.36
-38.94
-37.20
-33.55
-28.90
-24.29
-20.37
-17.19
-14.35
-11.30
-7.83
-4.19
-1.02
1.09
1.91
1.76
1.36
1.39
2.14
3.39
4.55
5.10
4.86
4.15
3.51
3.44
4.04
5.00
5.78
5.94
5.30
4.01
2.37
0.65
-1.08
-2.95
-5.14
-7.72
-10.49
-13.07
-15.00
-16.05
-16.34
-16.36
-16.70
-17.69
-19.23
-20.76
-21.55
-21.08
-19.32
-16.78
-14.12
-11.82
-9.80
-7.49
-4.14
0.70
6.86
13.64
20.09
25.53
29.84
33.35
36.55
39.59
42.11
43.36
42.67
39.89
35.54
30.59
25.96
22.04
18.53
14.62
9.48
2.71
-5.39
-13.98
-22.00
-28.63
-33.47
-36.43
-37.59
-36.97
-34.59
-30.59
-25.44
-20.02
-15.39
-12.48
-11.75
-12.99
-15.51
-18.36
-20.74
-22.25
-22.87
-22.81
-22.27
-21.25
-19.49
-16.69
-12.72
-7.74
-2.31
2.92
7.42
11.04
13.98
16.63
19.30
21.96
24.28
25.78
26.13
25.35
23.86
22.25
21.05
20.43
20.21
19.99
19.44
18.50
17.38
16.42
15.83
15.53
15.18
14.42
13.11
11.45
9.92
9.00
8.83
9.11
9.18
8.34
6.20
2.91
-0.92
-4.52
-7.37
-9.43
-11.12
-13.05
-15.63
-18.81
-22.08
-24.67
-25.96
-25.76
-24.32
-22.18
-19.86
-17.56
-15.13
-12.23
-8.57
-4.14
0.72
5.42
9.48
12.67
15.12
17.21
19.31
21.51
23.61
25.20
25.93
25.68
24.67
23.28
21.88
20.55
19.17
17.47
15.26
12.62
9.83
7.24
5.08
3.25
1.42
-0.85
-3.78
-7.27
-10.87
-13.99
-16.17
-17.34
-17.72
-17.70
-17.57
-17.38
-16.89
-15.83
-14.14
-12.08
-10.15
-8.91
-8.59
-8.99
-9.58
-9.69
-8.91
-7.21
-4.92
-2.51
-0.34
1.49
3.16
4.89
6.79
8.70
10.30
11.29
11.62
11.57
11.64
12.23
13.49
15.14
16.61
17.36
17.09
15.86
14.03
11.99
10.00
8.03
5.94
3.65
1.28
-0.83
-2.28
-2.91
-2.93
-2.90
-3.49
-5.04
-7.41
-9.96
-11.85
-12.56
-12.18
-11.39
-11.18
-12.28
-14.79
-18.16
-21.47
-23.89
-25.06
-25.10
-24.43
-23.42
-22.14
-20.39
-17.84
-14.30
-9.88
-5.03
-0.24
4.14
8.10
11.92
16.00
20.51
25.20
29.41
32.35
33.48
32.82
30.93
28.69
26.87
25.77
25.14
24.42
23.05
20.82
17.95
14.91
12.19
9.98
8.14
6.33
4.23
1.79
-0.74
-2.92
-4.44
-5.31
-5.93
-6.87
-8.52
-10.84
-13.37
-15.46
-16.68
-17.09
-17.20
-17.68
-18.93
-20.85
-22.87
-24.21
-24.31
-23.03
-20.64
-17.59
-14.26
-10.74
-6.92
-2.63
2.10
6.92
11.29
14.74
17.10
18.66
19.98
21.60
23.69
25.91
27.61
28.14
27.28
25.35
23.01
20.94
19.38
18.05
16.33
13.69
10.02
5.77
1.72
-1.42
-3.42
-4.56
-5.55
-7.04
-9.34
-12.25
-15.22
-17.69
-19.38
-20.43
-21.29
-22.39
-23.92
-25.73
-27.43
-28.74
-29.65
-30.51
-31.78
-33.65
-35.86
-37.70
-38.28
-36.96
-33.65
-28.88
-23.53
-18.42
-13.94
-9.99
-6.14
-1.96
2.66
7.45
11.87
15.49
18.22
20.33
22.23
24.20
26.18
27.79
28.58
28.41
27.56
26.62
26.16
26.38
26.97
27.26
26.59
24.74
21.99
18.98
16.39
14.56
13.32
12.22
10.75
8.68
6.22
3.84
2.00
0.91
0.39
0.03
-0.57
-1.61
-2.93
-4.19
-5.01
-5.29
-5.27
-5.33
-5.78
-6.58
-7.27
-7.21
-5.79
-2.88
1.00
4.87
7.75
9.13
9.16
8.55
8.15
8.64
9.97
11.34
11.62
10.04
6.67
2.35
-1.80
-4.91
-6.44
-6.65
-6.47
-6.91
-8.26
-9.92
-10.80
-10.15
-7.88
-4.16
0.31
4.58
7.91
10.25
12.22
14.44
17.19
20.53
25.26
32.42
42.61
55.52
69.83
83.13
91.88
92.32
77.58
45.78
2.41
-42.25
-79.53
-105.91
-121.53
-127.27
-122.80
-107.15
-80.04
-44.46
-7.10
23.81
42.26
47.99
43.90
34.56
24.22
15.99
10.91
8.20
6.36
4.31
1.79
-1.15
-4.27
-7.35
-9.98
-11.99
-13.30
-14.34
-15.59
-17.31
-19.47
-21.60
-23.13
-23.67
-23.43
-23.17
-23.78
-25.56
-27.93
-29.83
-30.29
-29.12
-27.09
-25.61
-25.92
-28.42
-32.39
-36.33
-38.81
-39.27
-38.28
-37.26
-37.62
-39.85
-43.23
-45.99
-46.24
-42.93
-36.27
-27.53
-18.23
-9.29
-0.51
9.11
20.53
33.74
47.43
59.46
68.09
72.97
75.43
77.71
81.40
86.44
91.14
93.45
92.50
89.34
86.25
85.04
85.59
85.70
82.54
74.75
63.69
52.85
45.86
44.14
45.98
47.33
44.11
34.53
20.04
4.52
-7.70
-13.84
-14.00
-10.79
-7.99
-8.64
-13.63
-21.46
-29.27
-34.38
-35.72
-34.11
-31.51
-29.54
-28.35
-26.67
-22.99
-16.91
-9.66
-3.42
0.31
1.79
2.87
5.56
10.51
16.44
21.07
22.68
21.31
18.59
16.51
15.97
16.30
15.95
13.74
9.67
4.80
0.31
-3.34
-6.59
-10.34
-15.23
-21.21
-27.68
-33.93
-39.52
-44.41
-48.76
-52.71
-56.26
-59.32
-61.78
-63.61
-64.73
-65.03
-64.37
-62.61
-59.91
-56.75
-53.84
-51.87
-51.11
-51.31
-51.77
-51.64
-50.37
-47.96
-44.87
-41.74
-39.00
-36.64
-34.28
-31.38
-27.62
-23.07
-18.21
-13.69
-10.00
-7.37
-5.66
-4.55
-3.71
-2.94
-2.28
-1.86
-1.78
-2.04
-2.48
-2.87
-3.00
-2.81
-2.37
-1.78
-1.10
-0.34
0.43
0.98
0.79
-0.66
-3.68
-8.08
-13.05
-17.38
-19.90
-19.88
-17.23
-12.59
-7.06
-2.06
1.07
1.34
-1.46
-6.61
-12.70
-18.37
-23.20
-27.84
-33.42
-40.25
-46.44
-47.67
-38.68
-16.04
19.38
61.29
100.08
125.97
132.61
119.47
91.95
59.53
32.90
21.39
30.34
60.26
106.02
157.30
200.83
224.06
218.63
182.99
123.17
50.55
-20.60
-77.57
-112.74
-125.03
-119.34
-104.73
-91.41
-83.81
-84.43
-90.11
-93.68
-89.23
-75.65
-56.01
-34.89
-15.86
-0.27
11.70
20.53
26.12
27.76
25.00
19.13
12.89
9.29
9.95
14.24
20.75
28.14
35.94
44.86
56.28
71.44
90.34
111.24
131.31
148.02
159.52
164.57
162.55
153.64
138.88
120.21
99.64
79.34
61.45
47.17
36.07
26.19
14.87
-0.38
-20.89
-47.22
-78.04
-110.24
-140.05
-164.31
-181.46
-191.69
-196.51
-198.15
-199.77
-203.29
-208.20
-211.98
-211.94
-207.19
-199.63
-193.53
-184.47
-170.89
-153.53
-133.98
-113.18
-91.65
-70.80
-52.93
-39.94
-34.70
-35.11
-37.63
-38.38
-34.32
-24.39
-9.63
7.53
24.36
38.89
48.59
51.88
49.19
42.73
35.38
29.82
27.93
30.55
37.00
44.50
48.99
47.08
37.85
23.61
8.92
-1.54
-5.55
-4.58
-3.12
-5.72
-13.78
-24.48
-32.65
-34.03
-28.06
-18.29
-9.88
-6.99
-10.36
-16.62
-19.88
-14.36
3.29
32.95
71.15
112.99
152.61
184.91
207.17
219.76
225.36
227.52
229.44
233.53
242.75
258.97
282.64
312.34
344.42
372.81
390.21
390.40
370.60
333.86
285.54
231.24
175.39
120.88
69.19
20.88
-23.91
-72.73
-123.79
-169.66
-203.14
-222.21
-229.39
-228.48
-222.62
-213.76
-202.99
-189.77
-174.68
-159.53
-146.16
-135.48
-127.16
-120.19
-113.40
-105.96
-96.63
-85.71
-74.76
-65.38
-58.31
-53.18
-48.98
-44.59
-39.31
-32.50
-24.72
-17.48
-12.06
-8.98
-7.74
-7.25
-6.45
-4.87
-2.55
-0.55
-0.82
-4.30
-11.09
-20.24
-30.10
-39.26
-46.86
-52.90
-57.27
-61.56
-66.70
-73.27
-81.59
-91.43
-101.48
-108.86
-109.51
-99.74
-78.30
-47.48
-13.04
17.95
39.99
51.24
53.63
51.15
47.50
44.31
41.46
38.01
33.64
29.09
25.75
24.52
25.22
26.60
27.09
25.55
21.90
17.05
12.37
9.13
7.79
7.98
8.71
8.79
7.48
4.74
1.14
-2.37
-4.99
-6.36
-6.64
-6.40
-6.32
-6.83
-7.90
-9.14
-9.90
-9.57
-7.85
-4.79
-0.73
3.68
7.86
11.45
14.42
17.00
19.49
22.11
24.85
27.39
29.24
29.94
29.33
27.58
25.28
23.19
21.94
21.83
22.69
23.98
25.16
25.92
26.28
26.63
27.46
29.16
32.06
36.45
42.48
49.74
56.81
61.17
59.89
50.94
34.42
12.88
-9.40
-28.16
-40.80
-47.01
-48.32
-46.75
-43.75
-39.77
-34.79
-29.05
-23.52
-19.42
-17.63
-18.00
-19.46
-20.66
-20.61
-19.22
-17.24
-15.78
-15.60
-16.71
-18.36
-19.47
-19.13
-17.05
-13.67
-9.88
-6.65
-4.70
-4.11
-4.37
-4.65
-4.27
-3.04
-1.26
0.51
1.87
2.76
3.44
4.28
5.39
6.53
7.22
7.03
5.96
4.38
2.91
2.00
1.66
1.36
0.33
-1.98
-5.53
-9.63
-13.23
-15.34
-15.53
-14.03
-11.60
-9.11
-7.18
-5.92
-5.02
-3.97
-2.31
0.06
2.92
5.76
8.05
9.51
10.14
10.19
9.91
9.34
8.37
6.86
4.92
3.04
1.87
1.93
3.20
5.06
6.51
6.76
5.60
3.58
1.67
0.79
1.33
2.97
4.93
6.36
6.76
6.12
4.81
3.29
1.81
0.36
-1.20
-2.85
-4.25
-4.88
-4.28
-2.35
0.46
3.36
5.51
6.53
6.62
6.44
6.74
7.99
10.04
12.33
14.15
15.02
15.04
14.73
14.89
16.10
18.48
21.59
24.64
26.91
28.01
28.00
27.22
26.02
24.46
22.39
19.53
15.71
11.03
5.84
0.52
-4.68
-9.65
-14.18
-17.79
-19.78
-19.56
-17.17
-13.43
-9.85
-8.06
-9.13
-13.11
-18.98
-25.24
-30.67
-34.73
-37.66
-40.17
-42.99
-46.47
-50.45
-54.17
-57.00
-58.76
-59.84
-60.93
-62.55
-64.72
-66.87
-68.14
-67.57
-65.18
-62.20
-60.30
-60.41
-62.04
-63.36
-62.03
-56.22
-44.68
-27.87
-7.87
12.71
31.77
48.32
62.29
74.13
84.73
95.96
108.97
123.19
136.29
144.89
145.67
136.56
117.62
86.73
47.95
10.22
-17.59
-31.84
-34.80
-31.52
-25.79
-19.34
-12.79
-5.64
2.04
8.43
12.18
13.13
12.39
11.40
10.98
10.98
11.18
10.96
9.48
6.43
2.26
-2.05
-5.53
-7.81
-9.19
-9.95
-10.66
-11.90
-13.66
-15.07
-14.68
-11.16
-4.12
5.58
16.23
25.66
31.76
33.13
29.11
19.78
6.01
-10.52
-27.37
-41.81
-51.83
-56.99
-58.45
-58.29
-58.33
-59.27
-60.46
-60.66
-58.88
-54.88
-49.01
-41.65
-33.13
-23.90
-14.73
-6.40
0.61
6.56
12.53
19.87
29.57
41.07
52.18
59.95
62.37
59.04
51.19
41.01
30.76
22.54
17.30
14.77
13.76
13.36
12.90
12.02
10.79
9.85
10.88
15.30
23.40
33.70
44.10
52.08
55.55
53.62
43.79
27.68
10.23
-1.45
-6.82
-7.02
-3.11
5.07
17.81
34.66
54.22
73.17
86.94
91.19
84.28
67.79
45.69
22.34
0.80
-17.68
-34.31
-51.64
-71.64
-93.65
-113.90
-127.15
-129.43
-119.91
-101.02
-77.71
-55.37
-35.97
-21.56
-12.72
-8.22
-6.34
-6.58
-8.85
-12.95
-18.03
-22.76
-25.51
-25.40
-22.74
-18.99
-16.10
-15.39
-17.20
-20.80
-24.83
-28.01
-29.18
-27.71
-23.86
-18.66
-13.44
-9.39
-7.18
-6.68
-7.17
-7.43
-6.30
-3.41
0.68
4.84
8.02
9.81
10.55
10.96
11.62
12.53
13.07
12.45
10.24
6.67
2.38
-1.88
-5.62
-8.66
-10.88
-12.16
-12.31
-11.33
-9.68
-8.17
-7.71
-8.76
-11.15
-14.29
-17.59
-20.98
-24.77
-29.42
-34.91
-40.56
-45.12
-47.32
-46.45
-42.64
-36.72
-29.63
-22.08
-14.32
-6.28
2.27
11.34
20.57
29.25
36.62
42.52
47.15
50.85
53.89
56.42
58.34
59.44
59.48
58.54
57.68
57.94
59.75
62.59
65.36
67.03
66.99
65.39
63.04
62.12
64.15
69.01
74.89
79.45
81.03
79.42
75.86
72.58
73.15
79.68
91.59
105.73
117.92
124.60
123.68
114.63
90.26
49.55
-1.01
-49.70
-86.41
-107.01
-112.82
-108.08
-97.82
-86.54
-76.15
-67.53
-61.09
-57.27
-56.22
-57.39
-59.71
-61.84
-62.35
-58.96
-50.44
-37.41
-22.52
-9.27
-0.56
2.27
-0.29
-6.26
-12.10
-15.72
-16.28
-14.31
-11.01
-7.60
-5.07
-4.13
-5.24
-8.13
-12.27
-16.89
-21.24
-24.64
-26.60
-26.89
-25.53
-22.68
-18.60
-13.81
-9.24
-6.10
-5.47
-7.74
-12.34
-17.94
-23.01
-26.52
-27.73
-26.83
-24.75
-22.59
-21.10
-20.27
-19.50
-17.92
-14.92
-10.53
-5.49
-0.88
2.38
4.01
4.49
4.75
5.72
7.83
10.76
13.67
15.61
16.08
15.14
13.32
11.24
9.27
7.47
5.76
4.13
2.76
2.05
2.37
3.79
5.87
7.79
8.73
8.35
7.00
5.53
4.98
6.06
8.76
12.25
15.24
16.48
15.30
11.76
6.37
-0.13
-7.02
-13.74
-19.93
-25.23
-29.13
-30.96
-30.13
-26.87
-21.93
-16.08
-9.80
-3.19
3.95
12.03
21.33
31.74
41.75
49.66
54.72
57.56
59.56
62.04
65.82
70.93
76.66
80.66
80.99
77.76
73.09
69.34
67.46
66.41
63.57
55.70
38.57
9.77
-29.56
-75.22
-122.09
-165.63
-201.70
-226.28
-226.02
-193.64
-135.93
-70.92
-15.48
22.41
42.82
49.85
48.16
40.92
28.13
9.83
-11.18
-29.98
-41.65
-43.74
-37.24
-25.58
-12.82
-3.14
1.48
2.16
1.69
2.50
5.10
8.45
11.53
13.80
14.83
14.84
14.71
15.13
16.07
16.48
15.25
12.23
8.46
5.44
5.07
9.28
19.17
34.22
50.67
62.56
65.19
57.80
43.47
27.00
13.38
3.63
-2.75
-6.95
-9.86
-11.58
-11.82
-10.43
-8.18
-6.26
-5.89
-7.44
-10.68
-15.00
-19.72
-24.46
-29.14
-33.72
-37.99
-41.73
-44.69
-46.65
-47.29
-45.97
-41.78
-33.92
-22.08
-6.82
9.94
25.55
37.37
43.78
44.70
41.54
36.45
31.54
28.11
26.17
24.97
24.00
23.44
23.62
24.43
24.24
21.07
14.06
4.95
-4.46
-12.59
-18.39
-21.92
-24.65
-28.59
-35.02
-42.65
-48.83
-50.44
-45.23
-33.24
-16.72
0.57
15.08
24.50
28.81
28.76
25.08
18.73
11.02
3.66
-1.47
-2.46
2.01
12.29
26.43
40.15
48.90
50.36
45.11
35.46
23.91
12.15
1.09
-8.81
-17.02
-22.83
-25.78
-26.15
-25.51
-24.87
-24.88
-25.78
-27.58
-30.00
-32.58
-34.65
-35.66
-35.42
-33.95
-31.41
-27.84
-23.18
-16.80
-8.87
-0.04
8.79
16.78
23.29
28.11
31.08
31.67
29.03
22.69
13.65
4.49
-1.49
-1.94
2.74
9.21
12.67
9.43
-1.02
-15.59
-29.47
-38.81
-42.52
-42.07
-39.39
-34.64
-25.82
-10.46
11.61
36.66
57.78
68.22
64.84
49.79
29.38
10.58
-2.31
-8.99
-12.00
-14.14
-16.03
-15.99
-11.39
-0.76
15.02
32.96
49.36
61.33
66.80
66.19
60.43
50.18
35.74
17.49
-3.57
-25.37
-44.88
-58.58
-63.31
-57.15
-40.17
-14.83
13.81
38.90
53.61
53.57
39.14
14.65
-12.52
-34.78
-47.11
-48.58
-41.90
-31.37
-20.66
-11.50
-3.86
2.83
8.46
12.00
12.36
9.51
4.98
1.21
0.19
2.42
6.70
10.76
12.63
11.58
8.31
4.41
1.32
-0.28
-0.69
-0.70
-1.11
-2.18
-3.59
-4.62
-4.50
-2.94
-0.12
3.32
6.61
9.04
10.34
10.74
10.76
10.86
11.06
11.26
11.42
11.87
12.64
13.46
13.73
12.77
10.26
6.29
1.87
-1.49
-2.68
-1.74
0.25
1.86
1.93
-0.06
-4.56
-11.55
-20.36
-29.72
-37.91
-43.25
-44.82
-43.15
-37.22
-28.79
-21.03
-15.96
-13.17
-11.03
-8.52
-5.94
-4.22
-3.96
-5.21
-7.53
-10.42
-13.91
-18.49
-24.29
-30.41
-34.87
-36.49
-33.57
-25.84
-14.57
-2.26
8.28
15.10
18.02
18.59
19.32
22.28
27.97
35.35
41.90
45.04
43.22
36.53
26.39
14.81
3.69
-5.89
-13.55
-19.59
-24.50
-28.99
-33.77
-39.25
-45.12
-49.71
-49.87
-41.36
-20.67
12.50
53.48
92.89
119.86
126.43
111.24
80.20
43.46
10.83
-12.22
-25.64
-32.61
-35.90
-35.45
-28.69
-13.49
8.89
32.91
50.68
55.90
47.18
28.92
8.92
-5.32
-10.21
-7.06
-0.49
4.56
5.42
2.48
-1.82
-5.11
-6.04
-5.18
-4.21
-4.63
-7.02
-10.74
-14.31
-16.14
-15.34
-11.92
-6.89
-1.61
2.74
5.61
7.12
7.61
7.58
7.17
6.15
3.99
0.33
-4.92
-11.20
-17.71
-23.78
-28.65
-32.03
-33.98
-34.81
-34.81
-34.28
-33.05
-30.88
-27.80
-23.64
-18.52
-12.79
-6.90
-1.19
4.00
8.97
15.61
22.98
30.54
37.61
43.30
46.66
47.04
43.32
36.57
27.95
18.30
8.52
-1.30
-11.66
-23.37
-34.56
-45.93
-56.79
-65.92
-72.42
-75.71
-76.22
-75.14
-73.91
-73.69
-75.73
-80.41
-87.65
-96.33
-103.43
-104.64
-95.77
-74.90
-43.89
-8.60
23.83
47.48
59.89
62.69
59.86
55.31
51.14
47.38
42.99
37.61
31.95
27.36
24.88
24.52
25.14
25.32
23.89
20.70
16.70
13.35
11.96
13.06
16.44
20.82
24.76
27.13
27.42
25.89
23.21
20.04
16.48
12.75
8.59
3.70
-1.99
-8.14
-14.11
-19.17
-22.65
-24.28
-24.03
-22.27
-19.33
-15.75
-11.83
-7.77
-3.71
0.21
3.79
6.88
9.24
10.76
11.36
11.13
10.19
8.74
6.95
4.97
3.01
1.12
-0.68
-2.44
-4.24
-6.13
-8.18
-10.42
-12.88
-15.41
-17.97
-20.56
-23.23
-26.03
-29.04
-32.29
-35.79
-39.59
-43.38
-47.02
-50.51
-53.90
-57.28
-60.71
-64.16
-67.58
-70.93
-73.75
-75.92
-77.60
-79.18
-81.12
-83.73
-87.08
-90.99
-95.17
-98.67
-100.99
-102.01
-101.86
-100.64
-97.98
-92.74
-82.71
-69.96
-54.45
-36.29
-16.07
5.32
26.87
47.89
68.19
88.04
107.92
129.14
152.83
179.74
209.89
241.95
272.96
298.59
314.28
316.72
305.81
284.18
256.35
227.03
199.56
175.17
153.42
133.25
113.90
95.57
78.67
63.36
49.29
35.93
23.02
10.90
0.38
-7.58
-12.33
-14.01
-13.52
-12.18
-11.31
-11.88
-14.30
-18.47
-23.85
-29.67
-35.24
-40.15
-44.39
-48.20
-51.89
-55.53
-58.86
-61.35
-62.57
-62.48
-61.58
-60.71
-60.66
-61.64
-63.09
-63.79
-62.41
-58.08
-50.81
-41.44
-31.33
-21.88
-14.08
-8.33
-4.54
-2.31
-1.21
-0.85
-1.00
-1.55
-2.39
-3.41
-4.55
-5.83
-7.41
-9.50
-12.21
-15.37
-18.50
-21.00
-22.43
-22.77
-22.47
-22.12
-22.11
-22.38
-22.44
-21.71
-19.91
-17.17
-13.97
-10.75
-7.68
-4.52
-0.86
3.52
8.44
13.25
17.13
19.46
20.17
19.72
18.99
18.79
19.51
20.92
22.31
22.73
21.38
17.85
12.24
5.00
-3.09
-11.08
-17.82
-22.06
-22.73
-19.29
-12.19
-2.93
6.19
12.87
15.66
14.53
10.79
6.34
2.74
0.49
-0.99
-2.72
-5.41
-8.90
-12.32
-14.66
-15.52
-15.35
-15.18
-15.94
-17.71
-19.55
-20.04
-18.06
-13.55
-7.70
-2.41
0.68
0.98
-0.76
-3.05
-4.53
-4.71
-4.13
-3.76
-4.26
-5.39
-6.12
-5.25
-2.12
2.99
8.99
14.52
18.55
20.69
21.16
20.52
19.46
18.52
17.96
17.74
17.50
16.78
15.19
12.65
9.43
5.95
2.54
-0.75
-4.06
-7.45
-10.63
-12.97
-13.73
-12.54
-9.68
-6.06
-2.83
-0.87
-0.41
-1.06
-2.00
-2.53
-2.46
-2.14
-2.20
-3.10
-4.74
-6.52
-7.68
-7.79
-7.14
-6.69
-7.64
-10.77
-15.94
-22.05
-27.42
-30.47
-30.35
-27.20
-21.94
-15.84
-9.91
-4.65
-0.09
3.79
6.74
8.29
8.02
5.98
2.91
-0.09
-1.98
-2.27
-1.26
0.31
1.79
3.00
4.22
5.85
8.08
10.76
13.45
15.55
16.60
16.58
15.88
15.09
14.66
14.65
14.82
14.72
13.62
10.99
6.93
2.38
-1.31
-3.11
-2.88
-1.23
0.82
1.78
0.37
-3.73
-9.73
-16.01
-20.94
-23.31
-22.15
-16.58
-6.56
6.91
22.50
39.19
56.75
75.87
92.96
105.36
113.37
118.55
120.79
117.50
105.42
83.24
52.87
21.27
-8.06
-32.00
-49.05
-59.79
-65.85
-68.81
-69.65
-68.89
-65.98
-61.11
-54.48
-47.02
-40.10
-34.67
-30.84
-27.93
-24.97
-21.31
-17.02
-12.26
-7.77
-4.52
-3.06
-3.12
-3.83
-4.17
-3.58
-2.39
-1.13
-0.57
-1.22
-3.02
-5.33
-7.28
-8.34
-8.59
-8.76
-9.63
-11.73
-15.17
-19.51
-23.98
-27.80
-30.51
-32.14
-33.11
-33.77
-34.22
-34.23
-33.30
-31.11
-27.75
-23.81
-20.11
-17.21
-15.14
-13.35
-11.05
-7.76
-3.67
0.37
3.33
4.48
3.88
2.25
0.65
-0.07
0.40
1.74
3.31
4.56
5.31
5.82
6.58
7.96
9.92
11.96
13.34
13.36
11.73
8.59
4.46
-0.04
-4.45
-8.57
-12.42
-16.13
-19.69
-22.94
-25.59
-27.40
-28.39
-28.86
-29.32
-30.18
-31.36
-32.12
-31.24
-27.49
-20.30
-10.08
1.87
13.81
24.27
32.36
37.73
40.21
39.51
35.31
27.63
17.24
5.72
-4.94
-13.10
-18.04
-20.10
-20.26
-19.55
-18.59
-17.55
-16.41
-15.14
-13.79
-12.31
-10.43
-7.82
-4.33
-0.28
3.58
6.39
7.69
7.57
6.62
5.55
4.79
4.41
4.29
4.28
4.39
4.68
5.07
5.37
5.38
5.08
4.79
5.02
6.19
8.46
11.57
14.91
17.64
18.97
18.44
16.12
12.66
9.07
6.41
5.46
6.48
9.25
13.21
17.72
22.15
26.05
29.11
31.23
32.59
33.47
34.17
34.76
35.06
34.75
33.64
31.95
30.24
29.13
28.93
29.44
30.01
29.95
28.86
26.74
23.85
20.34
16.08
10.72
3.96
-4.14
-13.15
-22.30
-30.79
-38.02
-43.72
-47.81
-50.29
-51.13
-50.39
-48.29
-45.26
-41.79
-38.32
-35.11
-32.29
-29.83
-27.67
-25.78
-24.21
-22.99
-22.07
-21.48
-21.39
-22.02
-23.23
-24.26
-23.79
-20.29
-12.60
-0.49
14.80
30.65
43.94
52.52
56.14
56.31
55.49
55.83
58.40
62.70
66.86
68.77
67.52
63.94
59.86
57.00
56.31
58.09
61.90
66.37
69.25
67.92
59.84
42.66
14.86
-23.50
-68.22
-109.78
-137.60
-146.86
-140.65
-125.96
-108.72
-91.84
-75.84
-60.00
-44.37
-30.51
-20.74
-16.36
-16.71
-19.52
-21.92
-21.78
-17.87
-10.81
-2.89
2.92
4.62
2.16
-2.81
-7.86
-11.85
-13.39
-12.99
-12.67
-14.93
-21.51
-32.96
-48.82
-66.63
-84.87
-100.18
-108.11
-104.36
-86.91
-57.45
-21.46
13.54
40.90
57.13
63.30
63.13
60.61
57.97
55.30
51.62
46.39
40.34
35.06
32.27
32.51
34.82
37.29
37.92
35.71
31.05
25.38
20.56
18.26
19.14
22.98
28.16
33.08
36.76
39.17
40.97
43.12
46.45
51.34
57.90
66.20
76.24
86.54
95.27
98.72
92.59
74.27
44.73
9.01
-25.44
-51.72
-65.98
-68.06
-60.59
-46.87
-29.68
-11.48
4.86
15.75
18.01
10.52
-4.49
-22.20
-37.19
-45.79
-47.28
-43.69
-38.11
-32.91
-29.11
-26.38
-24.25
-22.44
-20.98
-19.92
-19.11
-18.22
-16.89
-14.91
-12.40
-9.77
-7.48
-5.86
-4.94
-4.50
-4.14
-3.44
-2.15
-0.30
1.82
3.86
5.47
6.57
7.26
7.81
8.54
9.64
11.15
12.91
14.72
16.35
17.75
18.99
20.26
21.68
23.36
25.23
27.07
28.60
29.39
29.26
28.05
25.70
22.25
17.83
12.63
6.92
1.33
-4.06
-8.94
-13.09
-16.32
-18.58
-19.90
-20.37
-20.37
-19.86
-19.05
-18.07
-17.02
-15.97
-14.97
-14.02
-13.14
-12.32
-11.49
-10.72
-9.98
-9.27
-8.58
-7.93
-7.32
-6.74
-6.20
-5.67
-5.19
-4.74
-4.35
-3.99
-3.67
-3.40
-3.18
-3.00
-2.85
-2.75
-2.69
-2.69
-2.75
-2.87
-3.06
-3.33
-3.66
-4.06
-4.53
-5.04
-5.63
-6.26
-6.97
-7.73
-8.55
-9.43
-10.36
-11.35
-12.35
-13.40
-14.52
-15.71
-16.97
-18.31
-19.75
-21.30
-22.97
-24.70
-26.51
-28.35
-30.12
-31.65
-32.76
-33.20
-32.73
-31.46
-28.94
-25.07
-19.87
-13.46
-6.17
1.55
9.20
16.29
22.39
27.24
30.59
32.45
32.99
32.44
31.16
29.47
27.69
26.03
24.60
23.24
21.81
20.16
18.08
15.43
12.25
8.75
5.31
2.54
0.95
1.25
4.11
9.92
18.69
30.12
43.46
57.64
72.10
84.97
94.65
100.81
103.20
101.60
96.15
87.28
75.67
62.19
47.71
33.52
21.05
11.72
6.70
6.97
13.05
24.69
40.97
60.35
81.26
102.36
122.68
141.40
158.04
172.13
182.99
189.67
191.15
186.56
175.21
159.71
141.88
123.28
104.68
85.80
65.41
41.88
14.01
-18.50
-54.69
-93.14
-131.88
-169.33
-204.35
-236.55
-266.26
-294.65
-323.77
-355.81
-391.54
-427.52
-455.53
-464.02
-443.16
-390.34
-313.22
-227.95
-152.74
-100.97
-76.37
-74.81
-88.00
-108.67
-132.39
-155.65
-173.11
-177.67
-164.07
-133.50
-95.78
-64.07
-47.91
-47.88
-55.49
-59.09
-51.05
-32.34
-10.55
5.31
12.58
15.86
23.14
39.79
64.75
91.38
111.30
124.94
131.84
133.31
131.43
127.65
121.77
112.28
98.06
79.54
58.62
37.15
18.18
3.43
-6.78
-13.38
-17.82
-21.07
-23.32
-23.92
-23.51
-19.90
-11.53
2.41
21.99
46.76
75.93
108.33
142.40
172.49
196.29
212.75
222.14
225.65
224.92
221.77
217.96
215.13
213.98
214.43
213.73
207.12
189.77
159.40
118.26
72.86
31.57
1.02
-15.99
-21.68
-21.11
-18.99
-17.53
-16.38
-14.19
-10.61
-7.21
-6.64
-11.22
-22.24
-38.65
-57.89
-76.96
-94.11
-109.18
-123.47
-137.70
-153.06
-169.87
-187.38
-204.44
-219.53
-230.79
-235.56
-230.62
-214.81
-186.53
-148.13
-105.16
-64.41
-31.30
-8.27
5.62
13.25
17.54
20.12
20.84
19.18
15.27
10.51
6.46
3.99
2.78
1.61
-0.94
-6.07
-13.92
-23.60
-33.26
-41.61
-48.25
-53.65
-58.88
-64.94
-72.51
-81.67
-91.51
-100.28
-106.82
-110.77
-112.33
-111.82
-109.22
-103.97
-94.43
-82.23
-67.05
-49.07
-29.26
-8.80
11.47
31.13
50.10
68.33
87.85
110.45
135.79
161.75
185.73
205.85
221.27
231.85
237.76
242.72
249.84
259.58
270.16
279.53
287.01
293.49
300.34
308.56
322.85
345.79
375.90
408.35
437.87
461.02
476.79
485.11
457.45
380.72
261.95
124.66
-6.59
-117.29
-203.08
-264.85
-306.11
-331.46
-341.23
-336.95
-322.46
-303.29
-283.92
-266.08
-248.54
-228.90
-205.14
-172.75
-129.92
-79.35
-28.22
14.41
37.09
35.79
13.57
-21.00
-55.14
-78.88
-88.55
-86.85
-79.57
-71.64
-64.63
-58.17
-51.67
-44.56
-37.89
-33.62
-33.40
-37.29
-43.72
-50.01
-54.64
-58.12
-62.29
-69.33
-80.48
-95.53
-112.70
-129.33
-142.40
-150.33
-153.50
-153.75
-153.62
-155.21
-160.24
-169.29
-181.15
-192.11
-196.98
-190.74
-170.77
-138.27
-97.88
-56.98
-22.58
1.03
13.90
19.16
21.05
23.35
24.79
25.31
24.64
22.74
19.43
15.48
11.34
6.77
1.11
-4.82
-9.39
-11.59
-10.97
-8.73
-4.51
1.92
10.52
20.81
34.49
52.92
75.70
100.95
124.35
144.84
162.32
177.53
191.15
206.71
226.29
249.22
272.49
290.00
300.15
303.21
301.34
275.50
216.86
129.01
27.05
-55.24
-114.73
-154.58
-177.64
-188.77
-189.01
-174.60
-144.06
-99.41
-45.42
10.07
64.03
102.59
115.71
98.95
60.20
11.21
-38.42
-84.21
-127.76
-169.63
-210.20
-241.68
-265.23
-279.53
-284.69
-282.47
-275.58
-267.58
-258.95
-248.35
-231.54
-211.89
-188.51
-161.53
-132.52
-103.85
-78.37
-57.49
-41.78
-30.47
-23.32
-18.11
-13.57
-9.30
-5.37
-2.07
0.70
3.17
5.93
8.88
13.00
18.61
25.53
33.34
41.58
49.84
57.70
64.92
71.02
76.39
81.26
85.76
89.98
94.00
97.89
101.80
105.88
110.27
115.45
121.66
129.16
138.32
150.05
165.71
186.55
212.42
241.13
268.73
290.52
302.51
302.07
288.03
260.57
221.70
175.94
130.30
93.03
70.80
66.28
77.08
97.23
119.78
139.20
152.03
156.19
150.11
132.89
105.62
72.43
40.32
16.70
5.88
7.36
16.10
25.26
29.34
26.21
16.94
4.10
-9.95
-23.85
-36.65
-46.99
-52.58
-51.02
-41.41
-25.87
-9.70
0.84
1.61
-6.82
-19.80
-31.07
-35.86
-32.90
-24.35
-14.51
-7.69
-6.39
-9.72
-14.70
-17.53
-15.29
-7.47
3.41
12.12
12.84
1.98
-17.79
-39.30
-54.23
-57.37
-48.76
-33.04
-16.27
-2.41
8.35
21.20
40.68
67.12
95.91
120.55
136.74
144.21
145.96
145.73
148.82
157.42
170.25
183.87
195.29
203.63
209.83
215.81
203.99
165.38
102.83
30.66
-35.60
-88.92
-131.93
-171.88
-214.65
-261.00
-302.80
-329.58
-333.88
-315.69
-282.20
-244.18
-211.40
-189.15
-177.44
-170.25
-161.56
-148.57
-132.93
-118.01
-106.02
-96.80
-88.66
-79.80
-67.89
-52.23
-32.95
-12.62
6.52
23.70
39.71
55.83
72.40
88.40
98.55
98.72
85.78
60.09
26.21
-8.60
-37.20
-55.43
-62.87
-62.38
-57.78
-52.46
-47.96
-44.20
-40.55
-36.74
-33.11
-30.25
-28.51
-27.52
-26.79
-25.55
-23.30
-20.01
-16.13
-12.53
-10.09
-9.31
-9.89
-11.12
-12.00
-11.86
-10.63
-9.03
-8.09
-8.71
-11.04
-14.36
-17.56
-19.56
-19.83
-18.57
-16.59
-14.78
-13.80
-13.72
-14.07
-14.11
-13.13
-10.79
-7.21
-2.96
1.27
4.89
7.62
9.46
10.61
11.30
11.58
11.37
10.58
9.29
7.79
6.51
5.82
5.86
6.42
7.13
7.68
8.01
8.30
8.81
9.76
11.12
12.61
13.75
14.25
14.11
13.64
13.30
13.44
14.16
15.27
16.46
17.34
17.85
18.20
18.69
19.49
20.44
21.06
20.76
19.79
18.42
17.16
16.61
17.13
18.62
20.53
22.12
22.76
22.25
20.70
18.57
16.38
14.49
12.98
11.66
10.28
8.69
6.89
4.98
3.19
1.71
0.52
-0.58
-1.87
-3.45
-5.12
-6.42
-6.87
-6.20
-4.61
-2.74
-1.43
-1.29
-2.52
-4.77
-7.33
-9.33
-10.06
-9.12
-6.60
-3.10
0.50
3.27
4.59
4.39
3.03
1.08
-1.04
-3.14
-5.24
-7.30
-9.14
-10.56
-11.68
-13.07
-15.55
-19.72
-25.36
-31.40
-36.33
-38.91
-38.82
-36.65
-33.47
-30.09
-26.67
-22.82
-18.13
-12.77
-7.57
-3.66
-1.75
-1.75
-2.77
-3.71
-3.88
-3.39
-2.98
-3.51
-5.32
-8.10
-11.07
-13.44
-14.88
-15.64
-16.33
-17.55
-19.56
-22.14
-24.81
-27.02
-28.39
-28.85
-28.64
-28.19
-27.89
-27.95
-28.32
-28.78
-29.05
-29.05
-28.90
-28.83
-28.95
-29.20
-29.26
-28.84
-27.84
-26.57
-25.55
-25.33
-26.02
-27.18
-27.85
-26.94
-23.69
-18.09
-10.97
-3.69
2.43
6.74
9.51
11.75
14.61
18.65
23.53
28.14
31.30
32.32
31.33
29.11
26.50
23.89
21.15
17.91
14.07
10.13
7.12
6.07
7.43
10.72
14.65
17.69
18.77
17.76
15.45
13.11
11.82
12.00
13.35
15.08
16.37
16.76
16.24
15.06
13.52
11.67
9.39
6.48
3.02
-0.60
-3.71
-5.72
-6.46
-6.38
-6.43
-7.56
-10.12
-13.56
-16.65
-18.00
-16.86
-13.39
-8.60
-3.69
0.60
4.28
7.92
12.12
17.00
21.98
26.13
28.64
29.32
28.71
27.77
27.37
27.79
28.58
28.77
27.42
24.20
19.72
15.24
12.11
11.00
11.45
12.03
11.04
7.39
1.19
-6.35
-13.47
-18.83
-22.02
-23.61
-24.67
-26.13
-28.23
-30.57
-32.31
-32.74
-31.65
-29.43
-26.90
-24.89
-23.90
-23.97
-24.72
-25.64
-26.33
-26.62
-26.50
-25.90
-24.63
-22.43
-19.02
-14.39
-8.83
-2.91
2.71
7.50
11.17
13.86
15.94
17.91
20.05
22.25
24.09
25.03
24.82
23.63
22.05
20.71
19.97
19.76
19.72
19.42
18.60
17.17
15.20
12.74
9.89
6.84
3.91
1.55
0.10
-0.37
-0.12
0.29
0.25
-0.74
-2.86
-5.89
-9.24
-12.12
-13.86
-14.19
-13.46
-12.49
-12.19
-13.10
-15.13
-17.56
-19.45
-20.10
-19.34
-17.56
-15.43
-13.49
-11.96
-10.72
-9.48
-8.09
-6.57
-5.10
-3.69
-2.09
0.21
3.71
8.49
14.07
19.53
23.93
26.73
27.96
28.06
27.58
26.96
26.45
26.28
26.66
27.73
29.39
31.14
32.35
32.41
31.03
28.21
24.18
19.30
14.00
8.85
4.57
1.78
0.69
0.87
1.43
1.44
0.39
-1.59
-3.94
-6.13
-8.13
-10.39
-13.47
-17.59
-22.32
-26.71
-29.69
-30.56
-29.28
-26.54
-23.41
-20.87
-19.44
-19.02
-18.84
-17.95
-15.55
-11.45
-6.31
-1.34
2.17
3.47
2.79
1.22
0.09
0.31
1.94
4.37
6.84
9.03
11.09
13.35
15.66
17.14
16.54
13.02
6.84
-0.53
-6.94
-10.70
-11.37
-9.85
-7.68
-6.05
-5.12
-4.17
-2.32
0.51
3.31
4.46
2.69
-1.87
-7.56
-11.92
-12.92
-10.05
-4.63
0.92
4.27
4.29
1.41
-2.81
-6.48
-8.22
-7.58
-4.99
-1.23
3.00
7.47
12.26
17.61
23.56
29.81
35.68
40.30
43.05
43.90
43.51
42.88
42.98
44.39
47.04
50.34
53.15
54.37
53.48
50.92
48.04
46.67
48.35
53.51
60.93
67.30
68.66
62.20
47.64
27.36
5.45
-13.80
-27.45
-34.81
-38.67
-43.19
-52.00
-66.64
-86.54
-109.35
-131.55
-149.14
-158.39
-159.08
-154.08
-148.99
-150.63
-164.90
-193.49
-231.44
-267.46
-287.73
-284.53
-258.50
-218.44
-176.85
-145.03
-128.73
-127.45
-136.86
-136.94
-115.36
-72.53
-21.80
22.20
53.54
75.71
95.07
115.28
135.88
150.89
154.34
143.49
120.21
89.45
56.83
29.04
11.66
8.65
19.58
41.08
68.00
97.02
120.78
135.42
141.00
140.57
138.12
135.16
131.42
126.47
121.53
119.41
124.95
138.75
157.33
173.66
178.97
166.65
135.64
91.33
41.62
-0.62
-27.78
-39.35
-40.18
-36.93
-34.35
-33.75
-33.88
-33.09
-30.30
-26.60
-23.66
-22.42
-22.65
-23.24
-22.77
-20.44
-16.45
-11.39
-6.75
-3.63
-2.30
-2.14
-2.09
-1.14
1.24
4.84
9.11
13.04
15.92
17.67
18.72
19.77
21.30
23.56
26.24
28.78
30.44
30.66
29.26
26.40
22.40
17.30
11.63
5.60
-0.55
-6.64
-12.44
-17.68
-22.10
-24.94
-26.68
-27.44
-27.43
-26.84
-25.79
-24.43
-22.83
-21.14
-19.51
-18.18
-17.12
-16.37
-15.79
-15.19
-14.41
-13.36
-12.13
-11.25
-10.83
-11.00
-11.75
-12.83
-13.78
-14.22
-13.96
-13.24
-12.59
-12.69
-13.98
-16.43
-19.53
-22.41
-24.31
-24.88
-24.52
-24.17
-24.95
-27.61
-32.15
-37.74
-43.04
-47.01
-49.13
-49.82
-50.15
-51.31
-54.23
-59.56
-67.67
-78.31
-90.13
-100.10
-104.07
-98.17
-80.79
-54.05
-23.46
4.03
22.91
31.18
30.63
25.09
18.25
12.01
6.42
0.78
-5.01
-9.94
-12.35
-11.00
-5.78
2.28
11.73
21.26
30.40
39.43
49.05
59.73
71.30
82.88
93.09
99.83
102.71
101.95
98.35
93.03
86.98
80.76
74.36
67.47
60.27
52.07
42.90
33.25
23.76
15.07
7.55
1.30
-3.81
-8.02
-11.55
-14.48
-16.86
-18.71
-20.06
-20.98
-21.57
-21.95
-22.20
-22.44
-22.63
-22.74
-22.80
-22.82
-22.84
-22.79
-22.63
-22.27
-21.74
-20.96
-20.00
-19.04
-18.28
-17.83
-17.72
-17.86
-18.23
-18.90
-19.78
-21.00
-22.79
-25.29
-28.39
-31.75
-34.83
-37.17
-38.62
-38.87
-38.16
-37.03
-35.98
-35.19
-34.43
-33.10
-30.59
-26.62
-20.77
-13.26
-4.74
4.22
13.60
24.10
37.41
56.30
79.40
107.24
139.83
175.67
211.29
241.69
261.71
267.82
259.33
238.51
210.22
179.27
149.17
121.77
97.66
76.84
59.02
43.37
28.21
11.92
-6.87
-28.10
-50.04
-70.23
-87.04
-100.61
-112.42
-123.76
-134.08
-141.42
-143.73
-140.54
-133.46
-125.01
-116.68
-107.65
-95.42
-77.58
-54.08
-27.77
-3.15
15.87
27.57
32.58
32.83
30.14
25.73
20.16
13.81
7.07
0.33
-6.19
-12.30
-17.75
-22.21
-25.44
-27.61
-29.27
-31.10
-33.49
-36.34
-39.06
-40.79
-40.67
-38.00
-32.40
-23.95
-13.31
-1.80
8.92
17.44
23.17
26.48
28.35
29.61
30.37
29.97
27.60
23.04
17.04
10.90
5.60
1.13
-3.33
-8.69
-15.06
-21.34
-25.84
-27.33
-25.91
-22.88
-19.85
-17.79
-16.49
-14.72
-11.03
-4.59
4.32
14.39
23.77
30.82
34.72
35.79
35.54
36.05
39.05
45.11
53.37
61.91
68.61
71.89
71.01
66.35
59.13
51.04
43.80
38.75
36.67
37.83
42.15
48.98
57.32
65.90
73.40
78.94
82.29
83.68
82.97
78.79
68.05
47.73
16.94
-21.94
-63.96
-103.76
-137.91
-165.70
-188.15
-207.32
-224.02
-237.87
-248.43
-255.52
-258.75
-256.53
-245.86
-223.65
-190.06
-148.05
-102.81
-60.41
-25.57
-0.82
12.98
15.67
12.44
6.83
2.57
2.22
6.48
14.94
26.00
37.05
44.96
47.01
39.69
20.32
-8.95
-43.68
-77.27
-102.47
-112.96
-105.93
-76.65
-33.90
9.28
42.25
60.39
65.63
63.50
59.93
57.90
57.22
54.84
49.41
41.95
34.76
30.16
29.25
32.34
38.83
46.12
51.20
53.18
53.07
52.85
54.61
59.74
69.47
83.03
98.33
112.63
124.56
134.23
142.96
152.65
158.35
160.47
160.36
159.60
159.26
159.39
157.91
150.56
132.35
100.22
56.42
7.16
-39.09
-74.88
-96.57
-105.39
-105.77
-102.62
-98.98
-94.67
-88.84
-81.29
-73.09
-66.10
-61.82
-60.44
-60.73
-60.86
-58.68
-53.64
-46.62
-39.35
-33.54
-30.16
-29.09
-29.29
-29.36
-27.97
-24.76
-20.29
-15.63
-11.85
-9.54
-8.65
-8.55
-8.44
-7.60
-5.84
-3.42
-0.88
1.27
2.74
3.56
4.02
4.47
5.20
6.28
7.64
9.07
10.33
11.39
12.26
13.02
13.77
14.61
15.51
16.51
17.57
18.69
19.89
21.18
22.56
24.01
25.54
27.01
28.36
29.46
30.12
30.15
29.36
27.61
24.80
20.98
16.08
10.40
4.27
-2.02
-8.08
-13.62
-18.37
-22.15
-24.44
-25.67
-25.95
-25.46
-24.42
-23.00
-21.40
-19.72
-18.27
-16.89
-15.68
-14.58
-13.53
-12.57
-11.63
-10.74
-9.87
-9.03
-8.20
-7.45
-6.75
-6.09
-5.48
-4.91
-4.38
-3.88
-3.42
-2.97
-2.57
-2.22
-1.89
-1.60
-1.34
-1.10
-0.89
-0.71
-0.55
-0.42
-0.34
-0.29
-0.27
-0.27
-0.29
-0.33
-0.39
-0.48
-0.59
-0.74
-0.91
-1.14
-1.41
-1.71
-2.05
-2.43
-2.85
-3.32
-3.81
-4.37
-4.95
-5.59
-6.25
-6.95
-7.70
-8.52
-9.40
-10.33
-11.34
-12.42
-13.56
-14.74
-15.98
-17.27
-18.65
-20.14
-21.74
-23.47
-25.28
-27.09
-28.77
-30.17
-31.10
-31.36
-30.67
-28.83
-25.76
-21.51
-16.64
-11.15
-5.43
0.04
4.75
8.41
10.82
12.03
12.28
12.06
11.95
12.45
13.97
16.77
20.79
25.82
31.36
36.84
41.66
45.38
47.39
47.41
45.67
42.85
39.92
38.06
38.16
40.73
46.05
53.56
62.45
71.93
81.27
89.90
97.54
103.88
108.88
112.86
115.29
116.08
115.63
114.80
114.60
116.13
119.60
124.84
131.60
137.11
139.19
136.99
131.25
123.71
117.35
113.48
112.90
116.35
120.04
120.57
116.58
109.02
99.84
92.36
85.19
74.68
63.95
47.18
18.64
-23.71
-77.29
-136.94
-194.23
-247.06
-295.32
-339.45
-387.78
-447.82
-522.11
-607.67
-699.06
-787.42
-871.72
-951.86
-984.63
-942.36
-822.66
-649.89
-459.30
-307.26
-193.26
-109.22
-47.00
-0.15
36.47
61.34
74.19
78.63
79.56
83.90
91.36
100.95
111.68
117.62
113.06
96.77
73.85
51.64
37.87
34.56
42.70
62.06
88.07
115.03
139.20
160.94
181.21
199.26
211.80
216.91
213.08
198.12
170.62
119.92
44.07
-33.99
-101.85
-160.28
-207.85
-243.10
-265.33
-274.58
-271.35
-254.93
-226.07
-189.50
-149.34
-107.17
-63.84
-19.58
25.35
70.42
115.77
160.64
201.31
235.73
264.62
289.86
314.19
340.90
373.45
415.48
468.29
528.21
588.54
640.88
676.54
689.48
678.55
647.86
605.11
558.11
511.38
466.60
423.77
382.53
343.33
307.45
276.32
250.08
226.74
202.52
173.65
138.02
95.79
49.35
1.87
-43.02
-83.37
-119.48
-153.39
-187.86
-225.19
-266.97
-313.87
-365.39
-417.51
-464.16
-498.28
-513.79
-507.53
-480.53
-438.08
-387.94
-337.54
-288.91
-241.19
-192.71
-143.08
-93.56
-45.86
-0.88
41.86
84.26
131.75
187.78
251.78
318.87
382.02
435.06
474.27
498.60
487.73
431.25
332.73
209.68
83.28
-31.63
-128.99
-208.56
-272.27
-322.02
-356.49
-375.14
-379.72
-374.68
-365.44
-355.98
-347.88
-342.22
-336.26
-324.51
-302.79
-269.54
-226.38
-176.62
-123.59
-71.08
-22.70
19.32
55.09
85.13
109.57
127.74
138.90
142.93
140.52
133.22
123.01
112.23
102.54
94.68
88.36
82.80
77.28
71.20
64.58
57.86
51.59
46.19
41.80
38.25
35.21
32.37
29.37
26.25
23.20
20.28
17.54
15.08
12.96
11.22
9.89
8.75
7.89
7.37
7.10
6.98
6.98
7.02
6.96
7.59
7.73
6.89
4.69
0.82
-4.77
-11.77
-19.71
-27.89
-35.70
-42.80
-48.87
-53.83
-57.69
-60.34
-61.11
-59.53
-55.11
-47.75
-38.08
-27.19
-16.64
-7.86
-1.72
2.27
4.96
7.74
11.88
17.85
25.34
33.36
41.06
46.15
49.87
53.42
57.75
63.39
70.54
79.27
89.20
98.99
105.72
105.48
94.22
70.36
36.35
-1.58
-35.62
-59.61
-71.32
-72.80
-68.26
-61.98
-56.15
-50.77
-44.93
-38.20
-31.39
-25.93
-22.87
-21.86
-21.63
-20.58
-17.33
-11.73
-4.52
2.96
9.54
14.65
18.73
22.66
27.33
33.14
39.58
45.50
49.38
49.92
46.50
39.36
29.34
17.66
5.67
-5.80
-16.20
-25.31
-33.00
-39.16
-43.63
-46.28
-47.13
-46.34
-44.59
-42.14
-39.45
-36.90
-34.66
-32.78
-31.17
-29.77
-28.40
-27.09
-25.80
-24.65
-23.70
-22.96
-22.43
-22.03
-21.69
-21.38
-21.11
-20.85
-20.74
-20.83
-21.13
-21.64
-22.27
-22.93
-23.59
-24.29
-25.07
-26.20
-27.81
-29.94
-32.48
-35.14
-37.53
-39.24
-40.30
-40.14
-38.71
-35.91
-31.67
-25.89
-18.42
-9.31
0.99
11.60
21.46
29.51
35.15
38.36
39.76
40.64
42.18
45.01
48.80
52.41
54.21
52.92
48.08
40.02
30.14
19.75
9.74
0.08
-9.88
-20.99
-33.93
-47.91
-63.90
-81.83
-100.35
-116.32
-125.34
-123.10
-107.65
-80.95
-48.78
-18.93
2.33
12.33
12.69
7.32
0.20
-6.53
-12.83
-19.66
-27.57
-35.85
-43.14
-48.38
-51.79
-54.56
-58.12
-63.56
-70.66
-78.08
-83.64
-85.55
-82.11
-72.98
-58.90
-41.18
-21.22
-0.13
21.43
42.61
62.82
81.41
97.39
109.72
117.66
121.02
120.28
116.41
111.11
105.20
99.40
94.04
89.06
84.31
79.61
74.88
70.21
65.73
61.53
57.77
54.46
51.52
48.88
46.50
44.32
42.43
40.90
39.66
38.79
38.20
37.69
37.03
36.32
34.89
32.38
28.54
23.19
16.36
8.21
-0.96
-10.73
-20.60
-30.10
-38.66
-45.82
-51.33
-55.03
-56.96
-57.30
-56.32
-54.39
-51.93
-49.18
-46.37
-43.68
-41.21
-38.99
-37.03
-35.28
-33.77
-32.61
-31.71
-31.06
-30.73
-30.80
-31.33
-32.39
-34.05
-36.37
-39.52
-43.28
-47.53
-52.23
-57.32
-62.77
-68.61
-74.83
-81.48
-88.71
-96.16
-103.62
-111.00
-118.27
-125.43
-132.53
-139.68
-147.05
-154.90
-162.81
-170.52
-177.69
-183.99
-188.90
-191.69
-191.30
-186.07
-178.61
-169.62
-159.63
-149.11
-138.60
-128.65
-119.77
-112.40
-106.83
-103.31
-101.27
-100.14
-99.26
-98.03
-95.85
-92.31
-87.22
-80.63
-72.92
-64.12
-54.58
-44.72
-35.01
-25.88
-17.71
-10.92
-5.85
-2.78
-1.61
-2.24
-4.50
-8.13
-12.85
-18.39
-24.61
-31.36
-38.51
-45.68
-52.32
-57.73
-61.03
-61.29
-57.77
-49.89
-37.41
-20.38
1.10
26.71
56.01
88.33
122.61
157.27
190.28
219.39
242.52
258.25
266.11
266.56
260.94
250.96
238.23
224.01
209.23
194.55
180.66
168.36
158.44
151.72
148.85
150.54
157.41
169.64
186.47
205.67
223.82
237.19
243.30
242.01
235.74
228.50
224.02
224.32
229.19
236.75
244.70
251.58
257.08
261.53
265.12
266.92
265.25
258.42
245.66
227.48
205.54
181.76
157.43
132.79
107.39
80.91
53.71
27.21
3.24
-16.66
-31.83
-42.63
-50.01
-54.99
-58.34
-60.35
-60.95
-60.09
-57.99
-55.21
-52.52
-50.57
-49.54
-49.27
-49.28
-49.05
-48.39
-47.44
-46.47
-45.56
-44.50
-42.84
-40.25
-36.79
-32.89
-29.18
-26.02
-23.25
-20.25
-16.43
-11.41
-5.44
0.73
6.19
10.23
12.73
14.07
14.95
15.95
17.26
18.51
18.86
17.39
13.44
6.95
-1.53
-11.08
-20.83
-30.20
-39.11
-47.64
-55.73
-62.95
-68.56
-71.84
-72.53
-71.09
-68.44
-65.50
-62.67
-59.66
-55.78
-50.54
-44.09
-37.31
-31.41
-27.31
-25.12
-24.22
-23.62
-22.60
-21.00
-19.30
-18.17
-17.98
-18.46
-18.78
-17.96
-15.39
-11.18
-6.08
-1.22
2.52
4.80
5.94
6.66
7.61
8.99
10.46
11.29
10.82
8.81
5.53
1.64
-2.24
-5.78
-9.08
-12.42
-15.93
-19.36
-22.11
-23.56
-23.40
-21.88
-19.70
-17.64
-16.04
-14.57
-12.33
-8.34
-2.16
5.79
14.24
21.63
26.83
29.82
31.65
33.88
37.71
43.22
49.31
54.23
56.60
56.03
53.37
50.10
47.33
45.26
43.14
39.82
34.52
27.32
19.12
11.28
5.02
0.90
-1.07
-1.28
-0.12
2.09
5.00
8.23
11.59
14.99
18.44
22.20
26.79
32.68
39.97
47.81
54.64
59.50
62.07
62.91
63.73
66.99
74.72
87.12
101.31
112.46
117.17
114.13
104.85
93.35
85.07
84.48
93.30
108.91
126.12
140.94
149.87
149.76
138.11
113.83
76.78
27.32
-35.46
-112.28
-200.52
-296.58
-396.72
-496.57
-589.78
-668.42
-715.31
-716.74
-681.36
-621.38
-545.80
-459.05
-366.76
-273.54
-183.01
-98.39
-24.30
35.22
81.28
118.05
150.97
184.55
221.12
259.39
294.99
321.49
333.99
333.48
324.94
314.99
309.56
312.29
322.98
337.36
347.60
345.48
326.38
289.75
238.61
178.33
114.99
53.45
-3.68
-56.25
-105.30
-151.33
-194.31
-233.61
-268.14
-296.39
-316.28
-325.37
-321.22
-302.00
-266.96
-217.55
-157.91
-94.48
-34.63
15.41
52.14
75.17
86.62
90.08
89.30
87.14
84.96
82.76
80.22
77.31
74.10
70.62
66.99
63.44
60.61
58.90
58.43
59.65
63.39
70.08
79.07
89.13
99.59
110.94
123.96
138.55
153.10
164.49
167.61
156.36
126.13
76.12
9.25
-69.99
-157.56
-250.00
-337.21
-401.96
-428.91
-414.93
-369.47
-307.46
-242.45
-183.76
-134.78
-93.77
-56.68
-20.42
15.68
50.35
82.21
108.31
124.20
126.46
114.31
89.46
54.89
14.30
-28.43
-70.03
-103.01
-123.16
-130.45
-127.11
-115.91
-99.55
-80.57
-61.32
-43.84
-29.33
-18.56
-11.07
-5.09
0.95
7.25
12.93
16.88
18.50
18.13
16.34
13.98
12.35
12.41
14.50
18.57
24.35
31.70
40.91
51.97
64.53
77.85
90.65
101.07
106.97
106.13
97.06
79.55
54.59
24.42
-7.60
-37.71
-62.04
-77.32
-81.52
-74.02
-55.75
-29.14
2.15
34.04
62.43
83.92
96.20
98.28
90.44
73.86
51.67
27.32
3.95
-16.20
-31.91
-42.81
-49.25
-51.84
-51.47
-49.16
-45.82
-42.14
-38.60
-35.42
-32.67
-30.34
-28.20
-26.13
-24.03
-21.90
-19.86
-17.99
-16.33
-14.88
-13.59
-12.38
-11.22
-10.02
-8.77
-7.58
-6.52
-5.60
-4.87
-4.29
-3.83
-3.47
-3.13
-2.80
-2.56
-2.41
-2.27
-2.28
-2.37
-2.61
-3.07
-3.76
-4.85
-6.61
-9.28
-12.77
-17.21
-22.33
-27.77
-33.41
-38.56
-42.03
-43.13
-41.42
-36.57
-28.62
-18.02
-5.78
6.85
18.50
27.81
33.35
34.17
30.03
21.26
8.94
-5.46
-20.14
-32.82
-41.78
-45.80
-44.01
-36.44
-23.85
-7.44
11.27
30.43
48.76
65.17
78.96
90.18
99.05
105.96
111.65
116.74
121.44
125.80
129.77
132.92
134.83
135.07
133.37
129.96
125.29
120.03
115.14
111.82
110.43
111.34
114.93
121.64
131.92
145.75
162.88
182.86
205.06
227.61
248.87
267.31
281.67
290.93
293.90
289.23
274.87
252.82
223.10
186.35
144.07
98.67
53.12
10.15
-28.03
-59.96
-84.76
-104.82
-122.28
-138.08
-151.80
-162.33
-169.32
-173.32
-175.74
-178.43
-187.81
-208.59
-241.51
-282.94
-326.94
-368.07
-402.34
-427.71
-443.84
-458.29
-477.33
-502.52
-530.00
-553.69
-568.98
-574.17
-570.39
-560.65
-556.76
-567.91
-596.90
-639.85
-690.40
-743.45
-795.13
-841.36
-826.14
-717.28
-519.84
-276.42
-39.78
153.61
290.39
374.77
419.58
439.19
436.92
413.42
371.44
318.61
265.29
217.71
182.25
162.31
158.41
162.92
169.05
174.77
183.50
200.86
230.87
270.94
315.39
358.02
389.75
404.42
400.79
382.85
356.87
328.51
301.71
278.44
259.12
241.23
222.36
201.39
179.36
158.01
138.71
122.18
108.57
97.62
88.08
78.93
69.48
60.25
52.09
45.56
40.93
38.20
37.06
36.89
38.70
40.19
40.01
37.37
31.63
22.53
10.20
-4.86
-21.83
-39.81
-58.16
-75.90
-91.96
-105.75
-116.95
-125.53
-131.74
-135.94
-138.67
-140.79
-142.84
-144.85
-146.95
-149.28
-151.90
-154.96
-158.42
-162.34
-166.96
-172.39
-178.07
-183.68
-188.89
-193.36
-196.68
-198.20
-196.99
-191.53
-184.51
-176.55
-167.98
-158.99
-149.74
-140.33
-130.87
-121.52
-112.53
-104.20
-96.23
-88.53
-81.11
-74.03
-67.37
-61.16
-55.48
-50.45
-46.20
-42.35
-38.70
-35.15
-31.60
-28.04
-24.42
-20.78
-17.20
-13.81
-10.43
-6.99
-3.43
0.31
4.15
8.02
11.86
15.42
18.36
20.36
20.98
19.94
16.97
11.91
4.92
-3.53
-12.72
-21.78
-29.73
-35.68
-38.87
-38.91
-35.74
-29.72
-21.55
-12.24
-2.91
5.34
11.62
15.44
16.73
15.84
13.47
10.42
7.47
5.30
4.25
4.34
5.49
7.51
10.29
13.85
18.09
22.92
28.18
33.53
38.53
42.91
46.66
50.19
54.16
59.29
66.08
74.53
84.18
94.26
104.15
113.62
123.11
133.50
145.77
160.51
177.64
196.32
215.36
233.73
250.97
267.31
283.46
300.38
319.02
340.10
363.83
389.25
413.80
433.27
442.65
437.72
416.83
381.72
337.09
288.99
242.68
201.28
165.63
135.06
108.91
87.17
70.45
59.29
53.44
51.66
52.10
53.03
53.37
52.96
52.29
52.00
52.41
53.17
53.40
51.98
48.09
41.53
32.88
23.32
14.12
6.33
0.34
-4.11
-7.66
-10.94
-14.16
-16.95
-18.74
-19.03
-17.73
-15.42
-13.04
-11.48
-11.21
-12.02
-13.28
-14.31
-14.89
-15.34
-16.46
-19.01
-23.22
-28.71
-34.58
-39.83
-43.81
-46.43
-48.08
-49.43
-50.92
-52.58
-53.93
-54.23
-52.83
-49.46
-44.41
-38.40
-32.20
-26.26
-20.56
-14.73
-8.37
-1.48
5.48
11.66
16.27
18.77
19.18
17.87
15.23
11.50
6.55
0.24
-7.37
-15.70
-23.77
-30.41
-34.82
-36.86
-37.02
-36.21
-35.23
-34.48
-33.84
-32.93
-31.42
-29.38
-27.28
-25.73
-25.18
-25.61
-26.65
-27.68
-28.32
-28.52
-28.57
-28.87
-29.50
-30.18
-30.33
-29.41
-27.28
-24.38
-21.59
-19.81
-19.50
-20.42
-21.75
-22.44
-21.71
-19.38
-15.90
-12.08
-8.59
-5.75
-3.43
-1.25
1.01
3.25
4.99
5.69
5.09
3.41
1.31
-0.50
-1.55
-1.91
-2.03
-2.54
-3.68
-5.26
-6.69
-7.33
-6.85
-5.44
-3.64
-2.16
-1.45
-1.53
-2.08
-2.64
-2.92
-3.02
-3.30
-4.22
-5.95
-8.25
-10.57
-12.31
-13.21
-13.51
-13.87
-14.96
-17.07
-19.97
-23.04
-25.65
-27.55
-28.89
-30.13
-31.59
-33.22
-34.46
-34.60
-33.04
-29.74
-25.22
-20.34
-15.95
-12.51
-9.95
-7.86
-5.79
-3.54
-1.32
0.40
1.22
1.06
0.26
-0.57
-0.87
-0.38
0.71
1.97
2.95
3.43
3.55
3.68
4.16
5.07
6.10
6.69
6.34
4.94
2.81
0.61
-1.04
-1.90
-2.29
-2.85
-4.16
-6.30
-8.81
-10.99
-12.28
-12.68
-12.71
-13.17
-14.60
-16.98
-19.68
-21.80
-22.58
-21.72
-19.46
-16.40
-13.14
-10.00
-6.98
-3.85
-0.42
3.21
6.63
9.25
10.60
10.64
9.77
8.64
7.84
7.56
7.60
7.50
6.88
5.75
4.52
3.78
3.98
5.18
6.98
8.74
9.91
10.27
9.99
9.50
9.15
9.03
8.91
8.34
6.98
4.82
2.16
-0.47
-2.71
-4.53
-6.19
-8.12
-10.64
-13.68
-16.88
-19.75
-21.89
-23.31
-24.39
-25.56
-27.04
-28.72
-30.23
-31.30
-32.11
-33.28
-35.87
-41.02
-49.25
-60.20
-72.58
-84.48
-94.01
-99.69
-100.73
-96.98
-88.68
-76.20
-60.00
-40.77
-19.60
1.89
21.82
38.46
50.78
58.66
62.91
64.70
65.13
64.77
63.64
61.41
57.89
53.30
48.29
43.63
39.71
36.39
33.21
29.60
25.32
20.57
15.95
12.05
9.09
6.83
4.64
1.92
-1.62
-5.77
-9.92
-13.37
-15.60
-16.47
-16.24
-15.28
-13.87
-12.04
-9.65
-6.47
-2.50
1.87
5.93
8.96
10.59
11.00
10.84
10.84
11.42
12.45
13.32
13.32
12.18
10.26
8.36
7.33
7.55
8.79
10.38
11.52
11.81
11.32
10.49
9.81
9.47
9.30
8.89
7.83
6.02
3.70
1.30
-0.71
-2.20
-3.37
-4.66
-6.53
-9.10
-12.14
-15.12
-17.49
-18.96
-19.70
-20.28
-21.33
-23.19
-25.70
-28.17
-29.73
-29.71
-27.90
-24.66
-20.59
-16.30
-12.07
-7.89
-3.60
0.79
4.94
8.36
10.55
11.41
11.23
10.60
10.07
9.93
10.05
10.03
9.56
8.55
7.30
6.30
5.96
6.44
7.49
8.64
9.35
9.41
8.91
8.22
7.72
7.55
7.49
7.07
5.89
3.87
1.27
-1.30
-3.35
-4.71
-5.63
-6.64
-8.17
-10.22
-12.46
-14.35
-15.49
-15.95
-16.18
-16.81
-18.31
-20.55
-22.87
-24.35
-24.24
-22.24
-18.70
-14.34
-9.93
-5.96
-2.53
0.53
3.37
5.91
7.80
8.57
7.95
6.12
3.62
1.21
-0.43
-1.04
-0.81
-0.22
0.25
0.37
0.33
0.50
1.23
2.52
3.96
4.90
4.86
3.72
1.92
0.20
-0.88
-1.08
-0.72
-0.46
-0.87
-2.14
-3.97
-5.76
-6.95
-7.38
-7.34
-7.40
-8.03
-9.30
-10.91
-12.36
-13.25
-13.53
-13.58
-13.87
-14.65
-15.67
-16.26
-15.62
-13.29
-9.43
-4.79
-0.50
2.61
4.20
4.55
4.33
4.09
4.09
4.07
3.64
2.50
0.77
-1.10
-2.53
-3.10
-2.84
-2.06
-1.28
-0.81
-0.63
-0.42
0.25
1.52
3.24
4.82
5.69
5.51
4.44
3.05
1.98
1.62
1.84
2.10
1.75
0.44
-1.63
-3.92
-5.73
-6.73
-7.05
-7.24
-7.99
-9.61
-11.91
-14.29
-15.99
-16.52
-15.87
-14.39
-12.61
-10.85
-9.07
-6.91
-4.08
-0.54
3.23
6.41
8.20
8.19
6.56
4.02
1.42
-0.70
-2.23
-3.51
-4.99
-6.93
-9.10
-11.00
-12.02
-11.85
-10.59
-8.70
-6.72
-4.98
-3.51
-2.06
-0.35
1.68
3.77
5.40
6.08
5.55
4.01
1.92
-0.15
-1.85
-3.21
-4.56
-6.31
-8.58
-11.20
-13.67
-15.51
-16.48
-16.71
-16.61
-16.52
-16.44
-15.99
-14.62
-11.89
-7.83
-2.94
1.91
5.85
8.41
9.60
9.87
9.74
9.61
9.49
9.06
8.03
6.29
4.15
2.25
1.20
1.33
2.47
4.03
5.33
6.00
6.10
6.12
6.58
7.70
9.25
10.60
11.08
10.37
8.67
6.60
4.82
3.63
2.82
1.82
0.07
-2.53
-5.62
-8.51
-10.59
-11.73
-12.27
-12.90
-14.16
-16.19
-18.64
-20.87
-22.24
-22.41
-21.43
-19.61
-17.31
-14.80
-12.12
-9.18
-5.93
-2.49
0.82
3.50
5.16
5.69
5.36
4.71
4.30
4.45
5.09
5.89
6.47
6.73
6.86
7.31
8.43
10.24
12.37
14.19
15.13
14.98
14.01
12.75
11.75
11.25
11.05
10.61
9.47
7.42
4.73
2.00
-0.17
-1.57
-2.46
-3.48
-5.28
-8.09
-11.65
-15.32
-18.48
-20.83
-22.60
-24.20
-25.91
-27.58
-28.53
-27.93
-25.26
-20.63
-14.80
-8.90
-3.83
0.01
2.77
4.98
7.08
9.16
10.92
11.92
11.92
11.14
10.13
9.60
9.98
11.17
12.64
13.62
13.62
12.61
11.12
9.92
9.55
10.11
11.07
11.61
11.11
9.38
6.79
4.01
1.60
-0.30
-2.04
-4.17
-7.05
-10.60
-14.25
-17.33
-19.38
-20.38
-20.82
-21.27
-22.07
-23.10
-23.78
-23.37
-21.39
-17.92
-13.52
-9.03
-5.00
-1.49
2.02
6.24
11.64
18.09
24.90
31.04
35.76
38.79
40.42
41.17
41.43
41.21
40.09
37.57
33.37
27.75
21.43
15.37
10.38
6.80
4.45
2.80
1.32
-0.20
-1.54
-2.25
-2.00
-0.87
0.52
1.33
0.90
-0.89
-3.56
-6.38
-8.74
-10.46
-11.91
-13.68
-16.18
-19.38
-22.73
-25.50
-27.20
-27.83
-27.90
-28.07
-28.72
-29.60
-29.92
-28.73
-25.45
-20.28
-14.15
-8.35
-3.76
-0.59
1.77
4.16
7.17
10.67
13.96
16.16
16.84
16.25
15.23
14.73
15.31
16.85
18.70
20.05
20.44
19.95
19.11
18.52
18.44
18.66
18.61
17.68
15.64
12.72
9.42
6.31
3.64
1.26
-1.32
-4.53
-8.54
-13.08
-17.55
-21.33
-24.03
-25.72
-26.85
-28.02
-29.54
-31.31
-32.78
-33.30
-32.45
-30.27
-27.23
-23.96
-20.85
-17.86
-14.68
-10.99
-6.81
-2.59
0.94
3.18
4.04
3.98
3.84
4.30
5.62
7.43
8.97
9.54
8.89
7.41
5.88
5.13
5.47
6.64
7.85
8.29
7.60
5.96
3.94
2.17
0.87
-0.22
-1.67
-3.96
-7.11
-10.70
-14.03
-16.52
-18.03
-18.88
-19.73
-21.21
-23.54
-26.42
-29.17
-31.07
-31.68
-31.02
-29.44
-27.34
-24.83
-21.61
-17.23
-11.44
-4.47
2.97
9.92
15.65
19.96
23.16
25.80
28.30
30.67
32.52
33.29
32.59
30.47
27.44
24.31
21.76
20.13
19.20
18.40
17.12
15.10
12.57
10.14
8.38
7.47
7.09
6.53
5.17
2.82
-0.15
-3.03
-5.15
-6.27
-6.70
-7.12
-8.11
-9.86
-12.05
-14.06
-15.34
-15.79
-15.70
-15.68
-16.15
-17.04
-17.80
-17.64
-15.94
-12.59
-8.07
-3.22
1.11
4.54
7.12
9.27
11.49
13.94
16.40
18.34
19.26
19.00
17.89
16.55
15.64
15.44
15.73
15.95
15.55
14.36
12.70
11.17
10.35
10.34
10.78
11.00
10.41
8.85
6.64
4.42
2.74
1.74
1.13
0.28
-1.34
-3.83
-6.81
-9.61
-11.61
-12.63
-12.98
-13.32
-14.19
-15.77
-17.75
-19.51
-20.52
-20.58
-19.90
-18.92
-17.90
-16.75
-15.02
-12.16
-7.94
-2.61
3.05
8.05
11.67
13.74
14.67
15.20
15.98
17.22
18.65
19.67
19.81
18.98
17.55
16.11
15.23
15.05
15.29
15.45
15.10
14.14
12.83
11.61
10.78
10.27
9.69
8.52
6.49
3.69
0.60
-2.19
-4.34
-5.91
-7.29
-9.06
-11.50
-14.41
-17.32
-19.52
-20.65
-20.79
-20.55
-20.72
-21.85
-23.97
-26.43
-28.31
-28.71
-27.26
-24.20
-20.28
-16.26
-12.57
-9.15
-5.57
-1.52
3.00
7.46
11.09
13.35
14.14
13.94
13.52
13.48
14.01
14.83
15.38
15.25
14.48
13.48
12.84
12.98
13.84
14.90
15.52
15.25
14.10
12.51
11.08
10.19
9.78
9.37
8.28
6.16
3.13
-0.27
-3.32
-5.59
-7.11
-8.32
-9.77
-11.80
-14.29
-16.82
-18.89
-20.26
-21.08
-21.81
-22.81
-24.10
-25.22
-25.35
-23.76
-20.18
-15.01
-9.17
-3.74
0.56
3.63
5.87
7.89
10.05
12.24
13.99
14.77
14.40
13.17
11.71
10.70
10.48
10.96
11.66
12.02
11.77
11.01
10.16
9.67
9.69
10.03
10.14
9.52
7.97
5.75
3.48
1.76
0.85
0.54
0.25
-0.66
-2.46
-4.97
-7.64
-9.91
-11.47
-12.48
-13.44
-14.87
-16.98
-19.47
-21.64
-22.73
-22.31
-20.46
-17.70
-14.69
-11.81
-9.10
-6.22
-2.88
0.95
4.83
8.06
10.05
10.63
10.12
9.20
8.54
8.43
8.74
8.99
8.72
7.80
6.52
5.49
5.24
5.98
7.39
8.83
9.58
9.29
8.15
6.72
5.69
5.34
5.53
5.63
4.95
3.21
0.62
-2.17
-4.52
-6.13
-7.21
-8.37
-10.23
-13.06
-16.65
-20.44
-23.90
-26.79
-29.27
-31.70
-34.27
-36.81
-38.70
-39.15
-37.63
-34.15
-29.34
-24.15
-19.47
-15.71
-12.74
-10.08
-7.19
-3.86
-0.23
3.27
6.18
8.40
10.14
11.88
14.01
16.64
19.45
21.88
23.47
24.09
24.09
23.98
24.17
24.59
24.82
24.21
22.35
19.37
15.87
12.60
10.10
8.46
7.23
5.74
3.48
0.36
-3.19
-6.42
-8.66
-9.61
-9.53
-9.10
-9.12
-10.01
-11.64
-13.40
-14.51
-14.47
-13.25
-11.26
-9.05
-6.97
-5.02
-2.97
-0.63
1.86
4.07
5.45
5.76
5.28
4.71
4.86
6.21
8.63
11.47
13.92
15.38
15.75
15.37
14.83
14.56
14.62
14.76
14.56
13.79
12.51
11.09
9.95
9.40
9.41
9.61
9.45
8.52
6.77
4.51
2.30
0.61
-0.44
-1.14
-2.06
-3.66
-6.02
-8.76
-11.29
-13.06
-13.99
-14.38
-14.73
-15.38
-16.19
-16.57
-15.80
-13.47
-9.66
-5.04
-0.55
3.05
5.51
7.09
8.33
9.69
11.28
12.82
13.75
13.67
12.58
10.94
9.47
8.82
9.28
10.67
12.44
14.01
15.02
15.49
15.74
16.11
16.77
17.53
17.98
17.66
16.42
14.47
12.31
10.40
8.91
7.61
5.93
3.56
0.47
-2.89
-5.86
-7.91
-9.15
-10.33
-12.74
-17.62
-25.53
-36.29
-49.08
-62.81
-76.43
-89.13
-100.25
-109.06
-114.55
-115.53
-110.99
-100.46
-84.35
-63.99
-41.31
-18.40
2.95
21.56
36.92
48.95
57.75
63.38
65.83
65.30
62.49
58.46
54.46
51.42
49.65
48.76
47.94
46.35
43.62
40.09
36.47
33.49
31.37
29.78
28.05
25.50
21.92
17.65
13.38
9.71
6.89
4.64
2.41
-0.27
-3.50
-6.91
-9.92
-12.07
-13.30
-13.90
-14.34
-14.81
-15.06
-14.54
-12.60
-9.12
-4.49
0.32
4.25
6.68
7.69
8.02
8.57
9.96
12.15
14.50
16.12
16.42
15.37
13.53
11.77
10.73
10.60
11.00
11.28
10.82
9.39
7.17
4.62
2.15
-0.08
-2.16
-4.39
-6.85
-9.46
-11.90
-13.81
-14.98
-15.56
-15.94
-16.54
-17.64
-19.17
-20.77
-21.98
-22.48
-22.30
-21.78
-21.40
-21.42
-21.76
-21.92
-21.25
-19.24
-15.79
-11.22
-6.14
-1.16
3.36
7.28
10.71
13.75
16.43
18.61
20.08
20.76
20.70
20.21
19.61
19.21
19.01
18.74
17.97
16.40
14.12
11.58
9.44
8.16
7.78
7.80
7.51
6.36
4.31
1.77
-0.64
-2.42
-3.51
-4.31
-5.51
-7.56
-10.46
-13.70
-16.52
-18.34
-19.08
-19.22
-19.55
-20.70
-22.77
-25.34
-27.68
-29.11
-29.40
-28.67
-27.30
-25.55
-23.47
-20.84
-17.51
-13.54
-9.28
-5.36
-2.37
-0.63
-0.01
0.02
0.12
0.78
2.10
3.75
5.19
6.03
6.25
6.22
6.45
7.31
8.72
10.25
11.35
11.72
11.52
11.27
11.50
12.41
13.70
14.65
14.56
13.16
10.75
8.10
6.06
5.07
4.99
5.21
4.96
3.78
1.79
-0.48
-2.34
-3.43
-3.84
-4.10
-4.84
-6.43
-8.75
-11.22
-13.13
-13.96
-13.57
-12.28
-10.57
-8.83
-7.13
-5.21
-2.74
0.47
4.14
7.70
10.39
11.76
11.84
11.10
10.21
9.67
9.58
9.62
9.40
8.75
7.86
7.24
7.23
7.84
8.72
9.27
9.01
7.92
6.42
5.11
4.38
4.07
3.55
1.97
-1.05
-5.16
-9.40
-12.58
-13.88
-13.25
-11.33
-9.15
-7.56
-6.79
-6.81
-7.64
-9.32
-11.79
-14.85
-18.49
-23.22
-30.25
-41.15
-56.75
-75.99
-95.74
-111.51
-119.17
-116.55
-103.96
-83.64
-58.46
-31.01
-3.13
23.64
47.32
65.71
77.10
81.08
78.91
73.10
66.42
61.08
57.98
56.67
56.18
55.67
54.92
54.12
53.63
53.52
53.38
52.52
50.41
47.03
42.75
38.15
33.59
29.18
24.79
20.25
15.59
11.12
7.28
4.42
2.54
1.30
0.10
-1.65
-4.26
-7.65
-11.46
-15.13
-18.34
-21.09
-23.66
-26.42
-29.43
-32.33
-34.28
-34.37
-32.09
-27.56
-21.52
-15.00
-8.80
-3.20
2.03
7.37
13.04
18.74
23.76
27.25
28.83
28.77
27.93
27.31
27.57
28.70
30.10
30.92
30.63
29.22
27.19
25.22
23.64
22.31
20.63
17.89
13.66
8.01
1.33
-5.82
-13.03
-20.10
-26.88
-33.07
-38.09
-41.27
-42.12
-40.74
-37.86
-34.63
-32.14
-31.01
-31.07
-31.53
-31.38
-29.80
-26.52
-21.76
-16.14
-10.32
-4.73
0.42
5.18
9.64
13.82
17.52
20.44
22.32
23.14
23.26
23.24
23.64
24.64
25.98
27.02
27.13
26.00
23.86
21.30
18.95
17.16
15.76
14.22
12.01
8.96
5.34
1.81
-1.04
-2.94
-4.12
-5.27
-7.02
-9.70
-13.10
-16.64
-19.71
-22.02
-23.74
-25.40
-27.60
-30.54
-33.99
-37.31
-39.68
-40.50
-39.50
-36.82
-32.87
-28.05
-22.65
-16.84
-10.77
-4.69
0.88
5.28
7.97
8.76
8.02
6.58
5.29
4.65
4.60
4.52
3.79
2.10
-0.24
-2.49
-3.90
-4.17
-3.62
-3.03
-3.14
-4.13
-5.60
-6.77
-6.97
-6.09
-4.63
-3.47
-3.36
-4.50
-6.43
-8.33
-9.49
-9.63
-9.10
-8.58
-8.71
-9.72
-11.31
-12.85
-13.76
-13.77
-12.99
-11.80
-10.46
-8.95
-6.94
-4.00
0.05
4.97
10.15
14.82
18.35
20.54
21.62
22.09
22.39
22.70
22.89
22.59
21.50
19.56
17.12
14.75
12.92
11.83
11.19
10.45
9.10
7.01
4.47
2.10
0.49
-0.18
-0.19
-0.21
-0.84
-2.35
-4.55
-6.90
-8.85
-10.13
-10.87
-11.53
-12.55
-14.08
-15.89
-17.45
-18.30
-18.28
-17.64
-16.92
-16.54
-16.54
-16.43
-15.45
-12.99
-8.94
-3.88
1.19
5.31
7.98
9.40
10.20
11.11
12.46
14.06
15.30
15.62
14.84
13.27
11.60
10.46
10.12
10.39
10.81
10.93
10.65
10.23
10.13
10.66
11.76
12.94
13.59
13.22
11.81
9.74
7.61
5.90
4.71
3.71
2.34
0.17
-2.82
-6.26
-9.51
-12.03
-13.68
-14.77
-15.94
-17.77
-20.34
-23.23
-25.64
-26.74
-26.10
-23.86
-20.58
-16.91
-13.25
-9.59
-5.67
-1.26
3.55
8.29
12.28
14.99
16.35
16.74
16.81
17.18
18.05
19.19
20.03
20.07
19.18
17.69
16.17
15.17
14.81
14.74
14.36
13.12
10.90
8.07
5.33
3.23
1.99
1.28
0.47
-0.99
-3.34
-6.29
-9.30
-11.84
-13.74
-15.24
-16.83
-18.91
-21.51
-24.26
-26.57
-27.93
-28.16
-27.48
-26.26
-24.82
-23.13
-20.87
-17.63
-13.22
-7.89
-2.30
2.72
6.61
9.27
11.08
12.68
14.58
16.85
19.07
20.61
21.00
20.28
18.97
17.82
17.44
17.96
19.01
19.89
20.06
19.38
18.15
16.95
16.19
15.91
15.71
14.97
13.26
10.56
7.35
4.33
2.00
0.43
-0.77
-2.25
-4.40
-7.17
-10.13
-12.67
-14.39
-15.35
-16.03
-17.05
-18.82
-21.20
-23.62
-25.26
-25.44
-23.93
-20.99
-17.25
-13.32
-9.57
-5.94
-2.15
2.03
6.52
10.88
14.43
16.65
17.50
17.38
17.00
16.97
17.46
18.17
18.54
18.08
16.77
15.07
13.64
13.02
13.30
14.03
14.54
14.27
13.09
11.33
9.58
8.29
7.57
7.07
6.27
4.79
2.63
0.18
-2.04
-3.64
-4.65
-5.42
-6.51
-8.25
-10.56
-13.03
-15.09
-16.39
-17.02
-17.43
-18.21
-19.72
-21.82
-23.88
-25.07
-24.73
-22.69
-19.31
-15.33
-11.40
-7.88
-4.66
-1.43
2.05
5.64
8.84
11.05
11.94
11.69
10.96
10.54
10.97
12.26
13.92
15.26
15.78
15.46
14.70
14.14
14.19
14.87
15.75
16.21
15.82
14.57
12.85
11.24
10.16
9.55
9.00
7.92
6.00
3.38
0.64
-1.61
-3.01
-3.71
-4.30
-5.45
-7.51
-10.29
-13.21
-15.55
-16.89
-17.31
-17.26
-17.41
-18.20
-19.63
-21.31
-22.62
-23.04
-22.33
-20.63
-18.25
-15.53
-12.62
-9.47
-5.97
-2.16
1.72
5.16
7.63
8.88
9.03
8.57
8.13
8.13
8.60
9.16
9.30
8.70
7.53
6.30
5.70
6.19
7.72
9.73
11.46
12.30
12.11
11.24
10.29
9.74
9.68
9.81
9.61
8.70
7.06
5.00
3.00
1.32
-0.10
-1.60
-3.58
-6.12
-8.91
-11.35
-12.91
-13.43
-13.25
-13.09
-13.70
-15.43
-18.01
-20.69
-22.54
-22.86
-21.46
-18.69
-15.23
-11.72
-8.57
-5.80
-3.26
-0.80
1.48
3.35
4.47
4.76
4.49
4.17
4.34
5.27
6.80
8.43
9.62
10.06
9.87
9.52
9.56
10.27
11.55
12.91
13.75
13.72
12.85
11.53
10.31
9.50
9.09
8.67
7.75
6.07
3.72
1.18
-1.05
-2.68
-3.83
-4.96
-6.59
-8.93
-11.75
-14.49
-16.56
-17.62
-17.84
-17.77
-18.09
-19.23
-21.13
-23.26
-24.85
-25.26
-24.27
-22.11
-19.30
-16.32
-13.38
-10.39
-7.16
-3.63
-0.03
3.11
5.30
6.30
6.32
5.88
5.58
5.77
6.45
7.29
7.87
7.96
7.63
7.25
7.25
7.90
9.13
10.59
11.87
12.72
13.27
13.95
15.17
17.08
19.41
21.51
22.75
22.91
22.28
21.49
21.15
21.39
21.79
21.50
19.76
16.25
11.26
5.48
-0.30
-5.68
-10.66
-15.57
-20.77
-26.25
-31.67
-36.36
-39.66
-41.16
-40.86
-39.14
-36.54
-33.43
-29.99
-26.04
-21.39
-15.98
-10.05
-4.12
1.26
5.79
9.53
12.83
16.13
19.55
22.90
25.68
27.40
27.93
27.59
26.95
26.61
26.84
27.43
27.90
27.72
26.66
24.93
23.03
21.48
20.59
20.26
20.02
19.27
17.59
14.91
11.62
8.25
5.17
2.32
-0.78
-4.67
-9.58
-15.28
-21.20
-26.71
-31.62
-36.29
-41.42
-47.46
-54.06
-59.99
-63.55
-63.47
-59.42
-52.17
-43.27
-34.29
-26.12
-18.73
-11.32
-3.01
6.65
17.47
28.78
39.82
50.00
59.04
66.93
73.76
79.59
84.53
88.66
92.22
95.10
97.38
99.42
102.02
106.18
112.68
121.82
133.58
148.00
165.28
186.29
212.07
242.77
276.57
309.37
335.82
351.29
353.53
342.33
320.02
290.41
257.43
224.07
192.06
162.81
137.86
118.91
104.28
91.45
78.25
63.57
46.93
27.95
6.90
-15.19
-37.11
-63.70
-99.38
-144.86
-196.09
-247.24
-293.98
-333.88
-365.88
-389.61
-414.05
-446.38
-486.92
-528.64
-562.77
-584.72
-594.40
-594.77
-589.88
-595.48
-624.30
-679.22
-752.46
-832.68
-912.62
-989.28
-1061.82
-1058.51
-936.45
-706.61
-429.91
-168.89
45.79
210.54
334.57
429.75
505.92
558.89
584.57
585.94
573.92
562.34
558.15
561.82
570.28
579.14
575.55
549.72
500.37
431.06
355.38
284.31
224.22
177.60
144.27
116.95
88.78
57.30
25.54
-1.03
-19.52
-29.62
-32.50
-30.31
-28.12
-30.09
-37.62
-49.13
-61.79
-74.21
-85.14
-92.24
-91.88
-81.35
-59.91
-29.67
4.18
35.29
57.72
68.76
69.73
64.46
56.74
48.53
39.69
28.80
15.11
-1.20
-19.04
-37.20
-55.10
-72.72
-90.39
-107.09
-120.98
-129.44
-129.97
-120.91
-102.07
-75.11
-42.74
-8.94
23.27
51.84
75.94
95.65
111.46
123.91
133.94
140.44
142.67
140.48
133.98
123.82
110.87
96.11
80.41
64.19
47.58
30.85
14.55
-0.74
-14.17
-25.22
-33.42
-38.36
-40.11
-39.02
-35.87
-31.57
-27.22
-23.61
-21.95
-23.45
-28.97
-39.23
-54.16
-73.32
-95.63
-119.68
-143.10
-163.80
-179.93
-190.33
-194.34
-191.89
-183.47
-170.04
-153.16
-133.70
-113.19
-93.31
-75.96
-62.56
-53.49
-47.80
-43.03
-42.32
-44.99
-49.27
-53.38
-55.90
-55.99
-53.45
-48.38
-41.23
-32.55
-22.33
-10.88
1.00
12.66
23.89
34.91
46.60
60.46
78.19
102.01
133.52
173.49
221.57
275.68
331.44
382.40
421.25
441.56
440.16
417.30
376.51
323.34
263.65
202.26
142.82
88.07
40.46
3.01
-21.81
-33.00
-31.81
-21.93
-8.63
3.05
9.74
10.56
7.14
2.20
-1.74
-2.92
-0.16
7.39
20.55
39.56
63.36
89.42
114.29
134.63
148.34
154.76
153.77
144.99
127.27
99.41
61.26
14.97
-35.05
-83.26
-124.62
-155.96
-176.12
-185.55
-185.04
-175.11
-155.58
-125.75
-85.67
-36.75
17.50
71.59
118.74
152.84
169.92
169.19
152.74
124.00
86.96
45.98
5.71
-29.89
-58.83
-83.09
-107.67
-137.38
-172.89
-208.02
-231.63
-233.55
-211.01
-171.53
-130.47
-103.38
-98.02
-112.30
-136.52
-159.50
-174.50
-181.52
-185.08
-189.95
-196.74
-200.42
-195.25
-177.49
-146.83
-106.29
-60.66
-14.64
28.19
67.33
105.84
144.68
183.07
220.45
257.35
295.18
335.55
377.99
420.22
458.50
482.91
480.29
440.76
361.23
246.08
106.50
-43.36
-195.96
-324.53
-401.32
-417.01
-382.86
-319.07
-246.36
-170.22
-93.51
-19.05
51.62
115.33
161.97
187.39
193.28
184.79
167.86
145.92
120.99
95.35
68.45
38.35
5.32
-28.40
-60.00
-86.71
-107.76
-123.39
-133.92
-141.78
-150.25
-160.48
-171.61
-181.95
-189.65
-194.24
-196.00
-195.47
-193.95
-192.60
-190.50
-185.26
-174.16
-154.67
-125.39
-85.66
-35.42
24.28
91.53
164.13
238.29
307.79
364.59
400.36
408.81
387.00
335.62
259.16
165.70
64.45
-36.28
-129.88
-211.13
-275.69
-320.42
-343.92
-345.97
-326.33
-285.91
-227.21
-153.70
-68.45
26.65
130.08
234.39
321.13
370.98
374.89
337.24
269.99
186.66
99.25
16.37
-57.51
-122.15
-178.06
-224.09
-258.49
-280.24
-289.47
-287.36
-276.15
-259.15
-239.55
-212.38
-176.47
-132.82
-84.02
-33.17
17.03
64.17
105.83
140.25
167.41
187.65
201.64
209.40
210.55
204.97
192.86
174.53
150.88
123.85
95.32
67.44
42.53
23.58
13.74
14.06
21.64
30.28
33.11
25.24
5.44
-23.86
-57.06
-86.89
-108.03
-118.98
-121.61
-119.68
-117.59
-120.21
-130.88
-147.36
-160.21
-156.73
-125.09
-58.41
43.72
174.98
321.98
460.39
556.16
583.95
542.34
452.78
343.01
234.81
140.48
62.27
-7.33
-72.20
-131.11
-182.71
-226.58
-265.15
-304.20
-342.02
-381.52
-426.32
-476.22
-510.09
-510.99
-471.04
-396.09
-302.15
-207.14
-125.63
-64.03
-20.06
13.53
41.46
65.44
83.96
94.84
97.65
93.22
84.41
75.59
70.85
70.44
72.68
74.68
74.17
70.61
64.39
57.05
50.83
47.37
46.17
45.86
44.66
41.66
37.19
32.10
27.70
25.31
25.51
27.86
31.84
37.04
43.87
53.23
65.78
81.45
99.36
116.96
131.04
138.68
138.10
129.16
113.21
92.41
68.27
43.11
17.87
-6.75
-29.81
-50.15
-66.67
-78.83
-87.03
-91.55
