1.592925663000000000e+09
-2.999999999999999889e-02
5.059999999999999609e+00
1.791000000000000014e+01
7.934000000000000341e+01
2.282700000000000102e+02
-4.874599999999999795e+02
-1.116999999999999993e+01
1.383700000000000045e+02
3.822999999999999687e+01
3.331000000000000227e+01
-3.140000000000000124e+00
-8.429999999999999716e+00
8.800000000000000044e-01
3.830000000000000071e+00
2.750000000000000000e+00
-9.019999999999999574e+00
-1.870000000000000107e+00
9.660000000000000142e+00
6.700000000000000400e-01
8.380000000000000782e+00
-2.399999999999999911e+00
-1.424000000000000021e+01
-2.250000000000000000e+00
2.385999999999999943e+01
6.067999999999999972e+01
4.075999999999999801e+01
-8.484000000000000341e+01
-5.971999999999999886e+01
2.878000000000000114e+01
8.140999999999999659e+01
1.233799999999999955e+02
-7.625000000000000000e+01
1.850000000000000089e+00
-2.251000000000000156e+01
-1.625000000000000000e+01
2.369999999999999929e+01
9.070000000000000284e+00
-1.600000000000000000e+01
-8.210000000000000853e+00
7.769999999999999574e+00
-8.439999999999999503e+00
7.080000000000000071e+00
7.330000000000000071e+00
-4.849999999999999645e+00
1.585999999999999943e+01
1.207000000000000028e+01
-1.085999999999999943e+01
-1.540000000000000036e+00
1.816000000000000014e+01
-8.019999999999999574e+00
-1.878999999999999915e+01
1.502999999999999936e+01
2.839999999999999858e+00
-1.607000000000000028e+01
1.356000000000000050e+01
8.029999999999999361e+00
-1.334999999999999964e+01
4.699999999999999734e-01
1.236999999999999922e+01
-1.360000000000000098e+00
-1.923000000000000043e+01
8.369999999999999218e+00
1.055000000000000071e+01
-3.112999999999999901e+01
-2.841000000000000014e+01
9.642000000000000171e+01
-1.037999999999999972e+02
-1.514300000000000068e+02
1.015999999999999943e+02
1.036099999999999994e+02
-1.766000000000000014e+01
-2.412999999999999901e+01
-1.173599999999999994e+02
-1.490800000000000125e+02
1.700600000000000023e+02
-1.224099999999999966e+02
-1.135199999999999960e+02
2.859999999999999876e+00
1.616000000000000014e+01
-4.860000000000000320e+00
-2.529999999999999805e+00
2.600000000000000000e+01
-5.360000000000000320e+00
-3.354999999999999716e+01
3.390000000000000124e+00
-2.950000000000000178e+00
-1.678000000000000114e+01
4.335999999999999943e+01
-3.642999999999999972e+01
-2.280999999999999872e+01
2.578000000000000114e+01
1.441999999999999993e+01
-1.305000000000000071e+01
5.419999999999999929e+00
1.746999999999999886e+01
-1.769999999999999929e+01
-2.509999999999999787e+00
1.735999999999999943e+01
-5.040000000000000036e+00
-2.342000000000000171e+01
3.347999999999999687e+01
4.230000000000000426e+00
-1.892999999999999972e+01
1.710000000000000142e+01
1.001999999999999957e+01
-2.392000000000000171e+01
-1.393999999999999950e+01
2.755999999999999872e+01
6.219999999999999751e+00
-7.269999999999999574e+00
6.669999999999999929e+00
7.910000000000000142e+00
2.410000000000000142e+00
2.421999999999999886e+01
-1.946999999999999886e+01
-3.239000000000000057e+01
-5.100000000000000089e-01
8.625000000000000000e+01
-7.700000000000000178e+00
-2.298999999999999844e+01
1.630000000000000071e+01
-5.271000000000000085e+01
-5.164000000000000057e+01
-4.549999999999999822e+00
9.799999999999999822e-01
-6.610000000000000320e+00
1.194699999999999989e+02
-7.756999999999999318e+01
1.169999999999999929e+01
9.034000000000000341e+01
1.486999999999999922e+01
-2.119399999999999977e+02
-3.838000000000000256e+01
4.450000000000000000e+01
-1.828999999999999915e+01
2.275200000000000102e+02
1.208799999999999955e+02
-1.595300000000000011e+02
-3.250000000000000000e+01
-3.925999999999999801e+01
1.794999999999999929e+01
2.555000000000000071e+01
-6.400000000000000355e+00
2.210999999999999943e+01
2.662999999999999901e+01
-4.700999999999999801e+01
-1.577999999999999936e+01
-1.260000000000000009e+00
3.300000000000000155e-01
2.919999999999999929e+00
6.509999999999999787e+00
-1.199999999999999956e+00
1.415000000000000036e+01
1.953000000000000114e+01
-1.310999999999999943e+01
-6.471999999999999886e+01
3.176999999999999957e+01
-1.758999999999999986e+01
1.117999999999999972e+01
-4.120000000000000107e+00
-5.832999999999999829e+01
2.957000000000000028e+01
1.078999999999999915e+01
-3.109999999999999876e+00
-7.164000000000000057e+01
-1.294999999999999929e+01
-1.866000000000000014e+01
1.252999999999999936e+01
-8.759999999999999787e+00
-1.432000000000000028e+01
5.767999999999999972e+01
7.585999999999999943e+01
-1.128199999999999932e+02
-2.251999999999999957e+01
-1.226999999999999957e+01
-2.301000000000000156e+01
4.490000000000000213e+00
2.049999999999999822e+00
1.175999999999999979e+01
1.202999999999999936e+01
6.934000000000000341e+01
-7.092000000000000171e+01
-3.140000000000000124e+00
1.223000000000000043e+01
-6.950000000000000178e+00
-4.172999999999999687e+01
3.153999999999999915e+01
-2.464999999999999858e+01
1.101999999999999957e+01
-1.701999999999999957e+01
-2.783999999999999986e+01
-1.939999999999999947e+00
3.665999999999999659e+01
3.296000000000000085e+01
-1.483000000000000007e+01
2.830000000000000071e+00
-2.800000000000000266e-01
1.085999999999999943e+01
1.860000000000000098e+00
-1.102999999999999936e+01
-1.457000000000000028e+01
3.689999999999999947e+00
1.198599999999999994e+02
5.589999999999999858e+01
-4.629999999999999893e+00
3.990000000000000213e+00
-1.851999999999999957e+01
1.830000000000000071e+01
-8.040999999999999659e+01
4.738000000000000256e+01
2.082000000000000028e+01
-2.428000000000000114e+01
8.740000000000000213e+00
-2.603000000000000114e+01
-7.759999999999999432e+01
-5.445000000000000284e+01
3.142799999999999727e+02
2.301999999999999957e+01
-4.439000000000000057e+01
-5.081000000000000227e+01
-7.410000000000000142e+00
-1.397000000000000064e+01
2.230999999999999872e+01
1.566000000000000014e+01
-1.771000000000000085e+01
-5.389999999999999680e+00
1.678000000000000114e+01
-8.699999999999999956e-01
-1.076999999999999957e+01
5.980000000000000426e+00
1.657999999999999829e+01
1.780000000000000027e+00
1.053599999999999994e+02
-6.889000000000000057e+01
-3.120000000000000107e+00
-1.516999999999999993e+01
-1.514000000000000057e+01
5.309999999999999609e+00
-1.969000000000000128e+01
2.426999999999999957e+01
-1.755000000000000071e+01
4.410000000000000142e+00
1.896999999999999886e+01
3.346999999999999886e+01
2.033999999999999986e+01
-4.178999999999999915e+01
-2.028999999999999915e+01
6.393999999999999773e+01
-1.468600000000000136e+02
-1.081000000000000050e+01
-8.487000000000000455e+01
4.639000000000000057e+01
3.307999999999999829e+01
9.009999999999999787e+00
-4.578999999999999915e+01
-9.769999999999999574e+00
9.640000000000000568e+00
2.569999999999999929e+01
-1.807000000000000028e+01
-5.669999999999999929e+00
-3.330000000000000071e+00
-1.571000000000000085e+01
-2.507000000000000028e+01
2.603000000000000114e+01
3.012000000000000099e+01
1.172000000000000064e+01
1.865600000000000023e+02
-2.365500000000000114e+02
-7.481000000000000227e+01
-3.234000000000000341e+01
1.122800000000000011e+02
2.410000000000000142e+00
2.144300000000000068e+02
-1.060999999999999943e+01
-2.195300000000000011e+02
1.917999999999999972e+01
-6.493999999999999773e+01
-8.800000000000000711e+00
2.595799999999999841e+02
3.807200000000000273e+02
-2.289000000000000057e+02
-7.164000000000000057e+01
-9.553000000000000114e+01
-1.382700000000000102e+02
6.769999999999999574e+00
1.448400000000000034e+02
-5.524000000000000199e+01
1.121000000000000085e+01
-2.118899999999999864e+02
3.169999999999999929e+00
9.400000000000000000e+01
3.025099999999999909e+02
1.501100000000000136e+02
-3.664999999999999858e+01
-7.690000000000000391e+00
-3.303999999999999915e+01
1.838700000000000045e+02
-3.295799999999999841e+02
-7.979999999999999716e+01
-8.599999999999999645e+00
-2.555000000000000071e+01
-1.435999999999999943e+01
4.889999999999999680e+00
8.009999999999999787e+00
1.785000000000000142e+01
2.225000000000000000e+01
-3.450000000000000178e+00
-3.100000000000000089e+00
-1.971999999999999886e+01
-1.750000000000000000e+00
-2.214000000000000057e+01
-2.919999999999999929e+01
6.740000000000000213e+00
1.013000000000000078e+01
1.676000000000000156e+01
-1.356000000000000050e+01
2.871000000000000085e+01
1.189999999999999947e+00
-2.389999999999999858e+01
1.116999999999999993e+01
1.860000000000000142e+01
-9.240000000000000213e+00
-1.196000000000000085e+01
2.805999999999999872e+01
8.849999999999999645e+00
-2.671000000000000085e+01
3.470000000000000195e+00
-5.300000000000000266e-01
-1.191999999999999993e+01
1.225999999999999979e+01
5.347999999999999687e+01
-3.867000000000000171e+01
-2.674599999999999795e+02
7.570999999999999375e+01
9.701999999999999602e+01
1.666500000000000057e+02
-2.242000000000000171e+01
1.303999999999999915e+01
5.599999999999999645e+00
-1.817999999999999972e+01
-1.324000000000000021e+01
-4.700999999999999801e+01
4.030000000000000249e+00
2.126000000000000156e+01
6.746999999999999886e+01
-2.098000000000000043e+01
-1.903999999999999915e+01
-3.886999999999999744e+01
5.629999999999999716e+01
7.684000000000000341e+01
-1.405399999999999920e+02
2.016000000000000014e+01
-4.067000000000000171e+01
1.703999999999999915e+01
-1.102999999999999936e+01
7.101000000000000512e+01
8.296999999999999886e+01
-2.587500000000000000e+02
6.480000000000000426e+00
9.279999999999999361e+00
4.611999999999999744e+01
1.604699999999999989e+02
-1.026200000000000045e+02
-3.016000000000000014e+01
-8.800000000000000044e-01
1.550999999999999979e+01
2.480000000000000071e+01
-2.139999999999999858e+01
-5.480000000000000426e+00
-3.400000000000000244e-01
-2.850000000000000089e+00
-1.598000000000000043e+01
-1.664000000000000057e+01
3.135999999999999943e+01
8.126999999999999602e+01
1.391899999999999977e+02
6.395000000000000284e+01
-8.717200000000000273e+02
7.956000000000000227e+01
1.391999999999999886e+02
-2.653299999999999841e+02
2.646200000000000045e+02
5.113799999999999955e+02
-8.337000000000000455e+01
-3.375400000000000205e+02
4.742699999999999818e+02
-3.654399999999999977e+02
1.095699999999999932e+02
5.159000000000000341e+01
7.889999999999999680e+00
-3.570000000000000284e+01
4.959999999999999964e+00
1.057199999999999989e+02
-3.139000000000000057e+01
3.957999999999999829e+01
-4.713000000000000256e+01
-2.242999999999999972e+01
-2.780999999999999872e+01
2.146000000000000085e+01
9.740000000000000213e+00
2.330000000000000071e+00
-7.065999999999999659e+01
1.176599999999999966e+02
5.446000000000000085e+01
2.319000000000000128e+01
-4.917999999999999972e+01
-3.636999999999999744e+01
-1.325300000000000011e+02
-1.385999999999999943e+02
-5.457999999999999829e+01
-3.850999999999999801e+01
1.902800000000000011e+02
1.488499999999999943e+02
2.446999999999999886e+02
5.371000000000000085e+01
-4.953999999999999915e+01
-2.025000000000000000e+01
6.950000000000000178e+00
-5.965999999999999659e+01
-1.878000000000000114e+01
5.530000000000000249e+00
-1.233000000000000007e+01
5.336999999999999744e+01
5.000000000000000000e+00
7.471999999999999886e+01
1.381100000000000136e+02
-5.457999999999999545e+02
3.339900000000000091e+02
-3.680000000000000160e+00
-3.463000000000000256e+01
6.060999999999999943e+01
1.261299999999999955e+02
-5.667999999999999972e+01
-1.304499999999999886e+02
1.812999999999999901e+01
1.061299999999999955e+02
8.392000000000000171e+01
-4.214000000000000057e+01
-1.001999999999999957e+01
-2.609999999999999876e+00
-2.862000000000000099e+01
-4.400999999999999801e+01
1.297700000000000102e+02
1.628799999999999955e+02
5.311999999999999744e+01
-2.415099999999999909e+02
-5.567599999999999909e+02
4.195799999999999841e+02
2.308700000000000045e+02
1.793600000000000136e+02
3.870000000000000284e+01
-1.317400000000000091e+02
-1.888899999999999864e+02
-9.623000000000000398e+01
-1.719999999999999929e+01
4.919999999999999929e+00
1.673000000000000043e+01
3.853000000000000114e+01
1.776399999999999864e+02
4.168299999999999841e+02
5.336999999999999744e+01
-7.660000000000000142e+00
-1.646000000000000085e+01
-4.440999999999999659e+01
6.549999999999999822e+00
-2.728000000000000114e+01
-2.158999999999999986e+01
4.990000000000000213e+00
-3.640000000000000124e+00
-1.386999999999999922e+01
-2.033999999999999986e+01
1.969999999999999973e+00
-2.850000000000000089e+00
-1.639999999999999858e+01
7.500000000000000000e+00
8.339999999999999858e+00
-2.555999999999999872e+01
-9.698000000000000398e+01
6.140999999999999659e+01
1.919999999999999929e+00
8.960000000000000853e+00
1.151999999999999957e+01
-6.530000000000000249e+00
-2.058999999999999986e+01
9.560000000000000497e+00
5.889999999999999680e+00
-1.830999999999999872e+01
7.950000000000000178e+00
4.860000000000000320e+00
-8.029999999999999361e+00
2.609999999999999876e+00
-8.100000000000000533e-01
4.400000000000000022e-01
-1.084999999999999964e+01
-6.929999999999999716e+00
5.549999999999999822e+00
-1.644000000000000128e+01
6.290000000000000036e+00
1.036999999999999922e+01
-1.619000000000000128e+01
5.690000000000000391e+00
1.498000000000000043e+01
-8.089999999999999858e+00
1.000000000000000021e-02
1.260999999999999943e+01
-1.059999999999999964e+01
-1.489999999999999991e+00
2.775000000000000000e+01
-8.900000000000000133e-01
-2.960000000000000142e+01
1.625000000000000000e+01
1.272000000000000064e+01
-3.130999999999999872e+01
3.979999999999999982e+00
5.959999999999999964e+00
-2.642000000000000171e+01
2.316000000000000014e+01
1.257000000000000028e+01
-1.205000000000000071e+01
7.120000000000000107e+00
1.269999999999999929e+01
-6.809999999999999609e+00
-1.501999999999999957e+01
1.755000000000000071e+01
5.999999999999999778e-01
-2.642999999999999972e+01
1.393999999999999950e+01
1.250999999999999979e+01
-1.682000000000000028e+01
5.870000000000000107e+00
1.016000000000000014e+01
-7.639999999999999680e+00
-6.219999999999999751e+00
5.490000000000000213e+00
-2.169999999999999929e+00
-3.914999999999999858e+01
1.188000000000000078e+01
1.259999999999999964e+01
-1.340000000000000036e+01
4.860000000000000320e+00
9.949999999999999289e+00
-1.128999999999999915e+01
8.330000000000000071e+00
1.574000000000000021e+01
-5.860000000000000320e+00
-1.109899999999999949e+02
5.446000000000000085e+01
1.338000000000000078e+01
-1.259999999999999964e+01
1.176999999999999957e+01
-1.381000000000000050e+01
-2.125000000000000000e+01
1.960999999999999943e+01
-6.400000000000000133e-01
-2.767999999999999972e+01
1.199999999999999956e-01
1.150000000000000000e+01
-2.339999999999999858e+00
-2.740000000000000213e+00
7.230000000000000426e+00
-1.388000000000000078e+01
-7.598999999999999488e+01
7.309999999999999432e+01
3.814999999999999858e+01
-1.513000000000000078e+01
7.370000000000000107e+00
2.521999999999999886e+01
-4.074000000000000199e+01
9.640000000000000568e+00
1.894999999999999929e+01
-1.971000000000000085e+01
-1.076999999999999957e+01
-3.899999999999999911e+00
-9.490000000000000213e+00
5.000000000000000278e-02
1.291999999999999993e+01
-8.849999999999999645e+00
-1.299000000000000021e+01
1.046000000000000085e+01
5.900000000000000355e+00
-2.673999999999999844e+01
1.717999999999999972e+01
3.229999999999999982e+00
-2.792999999999999972e+01
1.458000000000000007e+01
1.619000000000000128e+01
-1.439000000000000057e+01
2.029999999999999805e+00
1.301999999999999957e+01
-3.640000000000000124e+00
-2.473000000000000043e+01
1.097000000000000064e+01
1.016000000000000014e+01
-1.689000000000000057e+01
-2.160000000000000142e+00
6.190000000000000391e+00
1.320000000000000062e+00
-2.285999999999999943e+01
5.269999999999999574e+00
9.500000000000000000e+00
-1.762000000000000099e+01
-3.629999999999999893e+00
7.900000000000000355e+00
2.139000000000000057e+01
-4.115999999999999659e+01
1.955000000000000071e+01
2.058999999999999986e+01
-3.162000000000000099e+01
6.650000000000000355e+00
1.061800000000000068e+02
2.904100000000000250e+02
-6.370000000000000284e+01
-5.947699999999999818e+02
2.105399999999999920e+02
4.310600000000000023e+02
-3.008999999999999986e+01
6.445999999999999375e+01
-1.209099999999999966e+02
1.238199999999999932e+02
-3.157000000000000028e+01
-1.918899999999999864e+02
-5.589999999999999858e+01
1.335200000000000102e+02
4.046000000000000085e+01
2.055000000000000071e+01
-1.246200000000000045e+02
1.527400000000000091e+02
-1.304699999999999989e+02
-6.065999999999999659e+01
4.407599999999999909e+02
1.153299999999999983e+02
-1.233900000000000006e+02
-1.546699999999999875e+02
6.445000000000000284e+01
3.211299999999999955e+02
-2.761499999999999773e+02
2.105500000000000114e+02
5.440000000000000391e+00
4.371999999999999886e+01
-2.265800000000000125e+02
1.352999999999999936e+01
5.704999999999999716e+01
5.322999999999999687e+01
-5.014999999999999858e+01
