1589055551.00
64.000000
-0.00
-0.00
-0.00
-0.00
-0.00
-0.00
-0.00
-0.00
-0.00
-0.00
0.00
0.01
0.01
-0.00
-0.03
-0.05
-0.05
0.00
0.13
0.36
0.66
1.01
1.37
1.72
2.06
2.40
2.79
3.24
3.80
4.42
5.06
5.66
6.20
6.68
7.15
7.68
8.31
9.14
10.09
11.04
11.88
12.56
13.14
13.76
14.65
15.96
17.91
20.32
22.90
25.38
27.58
29.57
31.68
34.32
37.81
42.54
48.15
54.10
59.83
64.97
69.58
74.14
79.34
85.71
93.76
103.00
112.62
121.73
129.77
136.75
143.30
150.75
157.77
166.64
177.95
191.79
206.97
220.57
228.25
225.36
208.53
176.87
132.76
80.05
23.07
-34.94
-92.44
-149.16
-205.23
-260.37
-313.74
-363.87
-409.83
-450.91
-486.50
-515.74
-537.23
-549.22
-549.96
-538.37
-514.21
-478.67
-433.88
-382.45
-327.02
-269.84
-212.63
-156.66
-102.95
-52.37
-5.90
35.58
71.43
101.35
125.50
144.38
158.69
169.15
176.37
180.75
182.57
182.07
179.51
175.23
169.65
163.18
156.14
148.80
141.29
133.70
126.04
118.36
110.71
103.15
95.74
88.55
81.61
74.97
68.65
62.66
56.99
51.63
46.56
41.77
37.28
33.09
29.21
25.67
22.44
19.50
16.80
14.31
12.00
9.88
8.00
6.40
5.10
4.07
3.24
2.48
1.68
0.81
-0.12
-0.97
-1.61
-1.95
-2.00
-1.91
-1.92
-2.23
-2.92
-3.89
-4.88
-5.61
-5.87
-5.68
-5.29
-5.08
-5.38
-6.32
-7.71
-9.18
-10.29
-10.80
-10.69
-10.26
-9.88
-9.90
-10.56
-12.04
-14.41
-17.43
-20.36
-21.91
-20.51
-15.08
-5.72
6.05
17.71
26.68
31.32
31.44
28.05
22.64
16.39
9.97
3.60
-2.42
-7.52
-11.00
-12.38
-11.82
-10.12
-8.38
-7.51
-7.81
-8.80
-9.54
-9.12
-7.08
-3.61
0.61
4.77
8.34
11.31
13.99
16.81
20.05
23.64
27.26
30.46
32.90
34.38
34.96
34.83
34.29
33.68
33.37
33.64
34.64
36.21
37.88
38.96
38.75
36.83
33.31
28.71
23.87
19.52
16.14
13.57
11.47
9.48
7.42
5.33
3.33
1.57
-0.06
-1.80
-3.95
-6.71
-10.00
-13.56
-16.97
-20.00
-22.60
-25.03
-27.65
-30.67
-33.99
-37.17
-39.65
-40.95
-40.88
-39.61
-37.55
-35.28
-33.30
-31.97
-31.32
-31.10
-30.78
-29.78
-27.63
-24.18
-19.54
-14.00
-7.87
-1.39
5.20
11.52
17.01
21.12
23.64
24.79
25.26
25.61
26.13
26.60
26.51
25.41
23.31
20.73
18.41
17.04
16.77
17.38
18.38
19.27
19.73
19.61
18.87
17.37
15.53
13.39
10.94
8.13
5.04
1.87
-1.05
-3.40
-4.99
-5.81
-6.11
-6.15
-6.09
-5.97
-5.75
-5.47
-5.29
-5.46
-6.08
-7.14
-8.30
-9.07
-9.08
-8.21
-6.68
-4.96
-3.49
-2.55
-2.17
-2.21
-2.43
-2.72
-3.09
-3.72
-4.73
-6.17
-7.91
-9.74
-11.45
-12.95
-14.40
-16.07
-18.38
-21.57
-25.67
-30.39
-35.16
-39.26
-42.01
-42.94
-41.84
-38.77
-34.00
-27.86
-20.69
-12.85
-4.64
3.60
11.51
18.73
24.94
29.88
33.45
35.69
36.81
37.16
37.16
37.15
37.29
37.55
37.74
37.62
37.03
35.97
34.52
32.83
31.03
29.17
27.24
25.15
22.78
20.01
16.73
12.96
8.82
4.62
0.69
-2.65
-5.26
-7.24
-8.84
-10.40
-12.14
-14.20
-16.55
-19.11
-21.78
-24.52
-27.26
-29.89
-32.30
-34.37
-36.09
-37.67
-39.47
-41.84
-44.92
-48.45
-51.75
-53.92
-54.16
-52.11
-47.99
-42.48
-36.45
-30.61
-25.35
-20.68
-16.43
-12.41
-8.56
-4.92
-1.72
0.81
2.41
2.93
2.25
0.28
-3.17
-8.39
-15.65
-24.85
-35.15
-44.85
-51.52
-52.60
-46.03
-30.81
-7.09
23.88
60.15
99.21
138.22
174.30
204.97
228.67
245.20
255.75
262.26
266.61
269.61
270.61
267.71
258.51
241.06
214.67
180.13
139.47
95.40
50.67
7.60
-32.14
-67.58
-98.43
-125.05
-148.27
-169.25
-189.13
-208.64
-227.73
-245.61
-260.91
-272.28
-278.73
-280.01
-276.48
-268.94
-258.27
-245.20
-230.15
-213.24
-194.36
-173.31
-150.02
-124.67
-97.84
-70.43
-43.39
-17.48
6.92
29.75
51.09
70.85
88.70
104.11
116.71
126.44
133.59
138.56
141.62
142.77
141.78
138.44
132.73
124.95
115.58
104.96
93.16
80.05
65.64
50.44
35.41
21.44
9.18
-1.15
-9.92
-17.92
-25.91
-34.37
-43.28
-52.42
-62.03
-72.19
-82.70
-93.04
-102.63
-110.98
-117.91
-123.46
-128.02
-132.87
-138.54
-144.56
-149.45
-151.71
-150.26
-144.86
-135.92
-124.33
-111.87
-99.17
-85.68
-70.37
-53.18
-35.29
-18.56
-4.38
13.62
38.16
67.92
98.07
123.64
141.52
151.38
154.93
155.39
155.36
154.77
152.82
148.92
143.22
135.82
127.30
117.58
107.04
95.75
82.49
66.39
47.30
25.97
2.94
-20.41
-42.20
-60.33
-73.46
-81.90
-86.58
-88.48
-83.45
-70.82
-53.80
-38.11
-28.12
-24.92
-26.83
-30.44
-32.20
-29.82
-24.94
-18.56
-11.79
-5.32
0.50
5.48
9.73
13.64
17.77
22.06
26.34
30.56
34.81
39.20
43.75
48.42
53.03
57.27
60.34
61.88
61.99
61.34
60.91
61.59
63.89
67.87
73.14
78.91
84.48
89.39
93.38
96.42
98.46
99.43
99.25
97.86
95.39
92.23
88.99
86.18
83.96
81.96
79.45
75.79
70.72
64.53
57.73
50.73
43.49
35.70
27.08
17.75
8.35
-0.34
-7.79
-14.14
-20.15
-26.79
-34.81
-44.35
-55.01
-65.91
-76.13
-84.79
-91.23
-95.00
-95.88
-94.00
-89.81
-84.05
-77.54
-71.04
-64.95
-59.34
-53.98
-48.50
-42.62
-36.33
-29.94
-23.99
-19.04
-15.48
-13.33
-12.33
-12.07
-12.19
-12.48
-12.84
-13.17
-13.30
-13.10
-12.69
-12.69
-14.07
-17.83
-24.40
-33.48
-44.11
-55.15
-65.95
-76.45
-86.93
-97.29
-106.71
-113.85
-117.54
-117.49
-114.33
-109.13
-102.44
-93.71
-81.44
-64.05
-40.92
-13.00
17.42
47.45
74.49
96.79
113.48
124.16
128.63
126.87
119.46
107.87
94.50
82.22
73.68
70.39
72.36
78.33
86.60
95.95
106.16
117.85
131.59
147.05
162.50
175.19
182.40
182.28
174.41
159.59
139.40
115.68
90.38
65.58
43.50
26.23
15.28
11.19
13.43
20.63
30.82
41.64
50.33
53.83
49.16
34.16
8.44
-26.11
-65.43
-104.21
-137.45
-161.76
-176.12
-181.82
-181.47
-177.87
-172.98
-167.63
-161.75
-155.07
-147.61
-140.01
-133.23
-128.11
-124.93
-123.16
-121.49
-118.17
-111.49
-100.35
-84.58
-65.00
-42.97
-19.91
3.26
26.35
49.81
74.38
100.89
130.04
162.21
197.10
233.29
268.07
297.80
318.91
329.15
328.37
318.61
303.20
285.41
267.46
250.20
233.55
217.17
200.99
185.13
169.56
153.71
136.46
116.63
93.46
67.04
38.31
8.61
-20.90
-49.74
-78.27
-107.41
-138.25
-171.67
-208.12
-247.61
-289.70
-333.31
-376.69
-417.53
-453.46
-482.79
-505.06
-521.18
-532.86
-541.77
-548.65
-552.97
-553.29
-547.95
-535.83
-516.80
-491.62
-461.63
-428.41
-393.43
-358.04
-323.33
-290.04
-258.57
-228.90
-200.69
-173.37
-146.41
-119.46
-92.45
-65.51
-38.79
-12.33
14.11
41.12
69.61
100.44
134.00
169.53
204.95
237.08
262.53
278.84
285.33
283.17
274.89
263.27
250.46
237.70
225.35
213.46
202.09
191.54
182.15
174.02
166.84
159.79
151.86
142.19
130.45
117.12
103.25
90.01
78.10
67.47
57.30
46.61
34.66
21.51
7.95
-4.74
-15.14
-22.18
-25.26
-24.37
-19.82
-12.28
-2.34
9.60
23.19
37.98
53.25
68.08
81.58
93.28
103.10
111.45
118.92
125.82
131.99
136.88
139.86
140.64
139.59
137.51
135.60
135.22
137.39
142.51
150.18
159.27
168.08
174.56
176.18
171.08
158.94
141.14
120.21
98.84
79.09
61.82
46.91
32.95
19.22
6.48
-3.70
-10.73
-16.02
-22.55
-33.56
-51.00
-75.93
-106.48
-137.67
-163.07
-177.58
-179.17
-169.04
-150.98
-130.22
-114.02
-107.90
-113.39
-128.24
-148.38
-169.66
-188.26
-201.06
-194.17
-161.54
-110.43
-56.54
-12.37
17.68
34.91
42.96
45.58
45.82
43.83
39.50
34.10
29.89
28.55
30.18
33.95
38.82
44.13
48.57
51.60
54.44
59.12
66.50
75.16
81.90
83.16
76.61
61.47
39.69
15.66
-5.71
-21.37
-30.98
-36.20
-39.17
-41.35
-43.56
-46.04
-48.54
-50.83
-53.16
-56.05
-59.81
-64.25
-68.78
-72.63
-75.13
-75.55
-73.26
-67.91
-59.48
-48.25
-34.66
-19.27
-2.69
14.30
30.92
46.32
59.83
71.12
80.28
87.76
94.07
99.50
103.94
106.89
107.78
106.21
102.19
96.18
88.94
81.30
73.93
67.24
61.37
56.27
51.76
47.60
43.56
39.46
35.22
30.82
26.32
21.83
17.42
13.11
8.75
4.00
-1.58
-8.35
-16.41
-25.38
-34.38
-42.21
-47.77
-50.48
-50.53
-48.86
-46.77
-45.53
-45.92
-48.12
-51.80
-56.26
-60.62
-63.95
-65.36
-64.11
-59.81
-52.50
-42.78
-31.60
-20.13
-9.41
-0.22
7.16
12.89
17.56
21.96
26.79
32.35
38.44
44.28
48.92
51.56
51.90
50.21
47.11
43.34
39.44
35.66
32.01
28.47
25.07
21.92
19.20
16.98
15.22
13.67
12.05
10.12
7.79
5.13
2.36
-0.32
-2.84
-5.24
-7.71
-10.40
-13.37
-16.53
-19.65
-22.46
-24.80
-26.66
-28.16
-29.52
-30.96
-32.66
-34.80
-37.53
-40.95
-44.93
-49.01
-52.32
-53.80
-52.47
-47.83
-39.99
-29.66
-17.88
-5.66
6.21
17.25
27.23
36.05
43.64
49.92
54.83
58.29
60.30
60.93
60.41
59.02
57.09
54.83
52.32
49.50
46.31
42.79
39.09
35.42
31.93
28.67
25.55
22.44
19.23
15.90
12.53
9.21
6.03
3.08
0.34
-2.26
-4.87
-7.61
-10.54
-13.59
-16.59
-19.31
-21.58
-23.40
-24.92
-26.39
-28.05
-30.04
-32.48
-35.46
-39.13
-43.54
-48.50
-53.41
-57.23
-58.80
-57.16
-52.00
-43.81
-33.63
-22.70
-11.98
-1.91
7.54
16.60
25.40
33.80
41.39
47.66
52.20
54.84
55.67
55.03
53.33
51.03
48.48
45.91
43.42
41.03
38.72
36.45
34.18
31.86
29.42
26.82
24.06
21.16
18.24
15.37
12.62
9.96
7.29
4.52
1.56
-1.57
-4.83
-8.06
-11.15
-14.03
-16.71
-19.30
-21.94
-24.75
-27.80
-31.03
-34.35
-37.64
-40.96
-44.52
-48.57
-53.19
-58.08
-62.47
-65.24
-65.37
-62.26
-55.99
-47.29
-37.27
-26.96
-17.11
-7.99
0.47
8.42
15.95
22.95
29.18
34.30
38.02
40.19
40.82
40.12
38.41
36.12
33.66
31.35
29.40
27.86
26.68
25.73
24.82
23.79
22.54
21.01
19.26
17.39
15.54
13.81
12.21
10.63
8.91
6.92
4.58
1.94
-0.87
-3.73
-6.62
-9.61
-12.83
-16.37
-20.18
-24.04
-27.67
-30.85
-33.55
-35.99
-38.57
-41.75
-45.83
-50.83
-56.33
-61.52
-65.34
-66.73
-64.99
-59.94
-52.08
-42.28
-31.56
-20.74
-10.37
-0.70
8.16
16.07
22.93
28.67
33.30
36.92
39.62
41.41
42.23
42.03
40.87
38.96
36.65
34.27
32.08
30.18
28.57
27.16
25.90
24.68
23.42
22.00
20.38
18.50
16.37
14.03
11.53
8.97
6.45
4.08
1.89
-0.13
-2.13
-4.29
-6.76
-9.52
-12.42
-15.26
-17.86
-20.23
-22.48
-24.79
-27.32
-30.09
-33.09
-36.29
-39.69
-43.28
-46.95
-50.30
-52.66
-53.25
-51.39
-46.81
-39.71
-30.79
-20.90
-10.86
-1.23
7.70
15.78
22.93
28.97
33.73
37.09
39.13
40.09
40.31
40.16
39.84
39.44
38.88
38.06
36.94
35.58
34.13
32.68
31.21
29.61
27.71
25.39
22.70
19.81
16.89
14.06
11.29
8.50
5.64
2.77
0.08
-2.24
-4.09
-5.57
-6.95
-8.55
-10.60
-13.15
-16.09
-19.19
-22.18
-24.91
-27.32
-29.48
-31.61
-33.99
-36.96
-40.73
-45.18
-49.79
-53.69
-55.87
-55.49
-52.20
-46.20
-38.16
-28.95
-19.33
-9.85
-0.76
7.79
15.73
22.87
29.01
33.91
37.48
39.77
40.97
41.35
41.16
40.53
39.47
37.95
36.01
33.74
31.41
29.23
27.35
25.77
24.32
22.78
21.02
19.00
16.77
14.44
12.12
9.90
7.83
5.90
4.10
2.34
0.57
-1.26
-3.13
-5.02
-6.96
-9.04
-11.37
-14.04
-17.03
-20.17
-23.26
-26.15
-28.85
-31.51
-34.43
-37.88
-42.01
-46.76
-51.76
-56.37
-59.73
-60.99
-59.53
-55.17
-48.24
-39.47
-29.72
-19.69
-9.87
-0.54
8.15
15.99
22.78
28.35
32.65
35.75
37.80
38.95
39.33
39.01
38.13
36.82
35.24
33.54
31.77
30.01
28.29
26.69
25.25
23.96
22.73
21.40
19.84
17.95
15.78
13.46
11.15
8.96
6.90
4.87
2.69
0.23
-2.56
-5.60
-8.75
-11.92
-15.14
-18.52
-22.14
-25.92
-29.55
-32.61
-34.74
-35.88
-36.33
-36.67
-37.52
-39.38
-42.43
-46.43
-50.76
-54.48
-56.52
-55.97
-52.32
-45.72
-36.85
-26.75
-16.43
-6.57
2.51
10.80
18.30
24.93
30.45
34.59
37.25
38.51
38.67
38.13
37.26
36.33
35.40
34.39
33.20
31.75
30.10
28.39
26.74
25.18
23.63
21.96
20.09
18.06
16.01
14.09
12.39
10.83
9.22
7.37
5.14
2.57
-0.21
-2.98
-5.57
-7.92
-10.08
-12.19
-14.42
-16.84
-19.37
-21.88
-24.18
-26.23
-28.07
-29.87
-31.80
-34.07
-36.85
-40.24
-44.20
-48.39
-52.10
-54.32
-54.05
-50.63
-44.04
-34.94
-24.38
-13.52
-3.19
6.19
14.56
22.04
28.68
34.40
39.04
42.45
44.61
45.70
45.99
45.77
45.26
44.51
43.43
41.89
39.84
37.32
34.57
31.87
29.42
27.32
25.50
23.83
22.16
20.41
18.58
16.66
14.63
12.43
10.01
7.27
4.27
1.08
-2.12
-5.16
-7.95
-10.51
-13.02
-15.64
-18.47
-21.50
-24.58
-27.56
-30.31
-32.88
-35.40
-38.07
-41.08
-44.55
-48.51
-52.73
-56.71
-59.60
-60.45
-58.40
-53.11
-44.90
-34.67
-23.60
-12.74
-2.74
6.19
14.16
21.36
27.87
33.64
38.47
42.14
44.39
45.09
44.30
42.39
40.09
38.38
38.35
40.90
46.54
55.18
66.19
78.45
90.61
101.37
109.65
114.70
116.21
114.18
108.96
101.20
91.70
81.22
70.36
59.34
48.11
36.54
24.55
12.22
-0.44
-13.70
-28.19
-44.57
-62.96
-82.50
-101.32
-117.19
-128.39
-134.36
-135.90
-134.73
-132.82
-131.74
-132.41
-135.04
-139.19
-143.85
-147.50
-148.47
-145.37
-137.64
-125.78
-111.09
-95.18
-79.34
-64.20
-49.86
-36.20
-23.10
-10.71
0.80
11.20
20.43
28.50
35.36
40.99
45.25
48.10
49.60
50.00
49.69
49.10
48.62
48.46
48.61
48.80
48.75
48.21
47.18
45.90
44.70
43.86
43.41
43.10
42.54
41.39
39.51
37.07
34.47
32.12
30.32
29.03
27.96
26.63
24.61
21.72
18.06
13.95
9.75
5.73
1.91
-1.86
-5.83
-10.31
-15.45
-21.36
-27.91
-34.82
-41.54
-47.36
-51.56
-53.61
-53.32
-50.84
-46.59
-41.07
-34.61
-27.30
-19.00
-9.45
1.45
13.54
26.30
39.01
50.99
61.87
71.72
80.98
90.20
99.73
109.52
119.05
127.57
134.19
138.17
139.00
136.43
130.48
121.45
109.92
96.63
82.29
67.45
52.48
37.60
23.06
9.14
-3.95
-16.08
-27.30
-37.79
-47.70
-57.10
-65.89
-73.88
-80.84
-86.62
-91.11
-94.24
-95.99
-96.44
-95.84
-94.67
-93.50
-92.90
-93.21
-94.41
-96.06
-97.33
-97.02
-93.89
-87.04
-76.25
-62.21
-46.27
-30.03
-14.70
-0.71
12.24
24.72
37.01
48.72
58.82
66.13
69.88
70.04
67.30
62.64
56.99
50.89
44.53
37.95
31.28
24.89
19.20
14.54
10.93
8.07
5.51
2.88
0.03
-2.97
-5.88
-8.52
-10.83
-12.93
-14.97
-17.14
-19.51
-22.05
-24.68
-27.26
-29.73
-32.11
-34.50
-37.01
-39.64
-42.24
-44.51
-46.23
-47.30
-47.99
-48.72
-49.93
-51.84
-54.37
-57.14
-59.57
-61.08
-61.01
-58.81
-54.03
-46.58
-36.76
-25.24
-12.90
-0.51
11.50
23.11
34.48
45.78
56.93
67.56
77.16
85.25
91.60
96.22
99.44
101.71
103.38
104.59
105.12
104.43
101.91
97.11
89.99
81.03
70.96
60.54
50.28
40.33
30.62
21.00
11.37
1.82
-7.49
-16.35
-24.61
-32.20
-39.11
-45.39
-51.08
-56.18
-60.61
-64.26
-67.00
-68.95
-70.51
-72.45
-75.71
-81.12
-88.92
-98.57
-108.71
-117.40
-122.61
-122.58
-116.20
-103.20
-84.19
-60.64
-34.80
-9.38
12.81
29.25
38.38
39.98
35.34
26.79
16.82
7.11
-2.00
-11.22
-21.41
-32.53
-43.15
-50.81
-53.16
-49.14
-39.62
-26.95
-13.89
-2.43
6.67
13.72
19.30
23.79
27.08
28.96
29.37
28.66
27.45
26.34
25.42
24.30
22.22
18.51
13.08
6.62
0.46
-3.92
-5.54
-4.35
-1.36
1.83
3.52
2.59
-1.22
-7.32
-14.62
-22.00
-28.64
-34.18
-38.72
-42.64
-46.43
-50.44
-54.76
-58.99
-62.34
-63.81
-62.51
-58.02
-50.48
-40.64
-29.51
-18.10
-7.09
3.25
12.97
22.21
31.00
39.11
46.14
51.72
55.65
58.05
59.23
59.59
59.44
58.91
58.04
56.85
55.42
53.93
52.59
51.53
50.73
49.98
48.96
47.31
44.80
41.40
37.34
33.02
28.99
25.64
23.20
21.56
20.34
19.07
17.35
15.05
12.24
9.19
6.10
3.05
0.00
-3.15
-6.43
-9.77
-13.06
-16.30
-19.67
-23.54
-28.23
-33.77
-39.70
-45.11
-48.75
-49.53
-46.79
-40.59
-31.68
-21.20
-10.29
0.25
10.10
19.31
28.06
36.40
44.15
50.92
56.30
60.06
62.18
62.91
62.56
61.48
59.87
57.90
55.70
53.41
51.20
49.18
47.31
45.44
43.30
40.70
37.61
34.24
30.90
27.87
25.23
22.86
20.45
17.71
14.57
11.16
7.79
4.73
2.04
-0.49
-3.22
-6.42
-10.11
-14.05
-17.84
-21.16
-23.97
-26.52
-29.25
-32.60
-36.82
-41.93
-47.69
-53.61
-58.98
-62.94
-64.60
-63.28
-58.71
-51.09
-41.11
-29.71
-17.83
-6.20
4.67
14.55
23.31
30.90
37.22
42.23
45.86
48.17
49.24
49.23
48.25
46.47
44.07
41.29
38.46
35.94
34.01
32.71
31.88
31.16
30.20
28.80
26.90
24.65
22.18
19.60
16.93
14.17
11.32
8.42
5.53
2.66
-0.20
-3.08
-6.02
-9.00
-12.01
-15.04
-18.09
-21.16
-24.18
-27.08
-29.77
-32.30
-34.85
-37.71
-41.24
-45.66
-50.92
-56.55
-61.61
-64.92
-65.38
-62.34
-55.88
-46.76
-36.15
-25.19
-14.68
-4.89
4.24
12.88
21.04
28.53
35.06
40.33
44.23
46.78
48.21
48.79
48.83
48.53
47.95
47.04
45.79
44.26
42.63
41.14
39.90
38.90
37.99
37.01
35.79
34.16
31.88
28.67
24.34
18.85
12.44
5.58
-1.13
-7.19
-12.26
-16.17
-18.93
-20.72
-21.90
-22.96
-24.44
-26.69
-29.81
-33.58
-37.67
-41.78
-45.82
-49.91
-54.27
-59.08
-64.31
-69.64
-74.38
-77.64
-78.50
-76.29
-70.85
-62.55
-52.18
-40.73
-29.07
-17.87
-7.48
2.00
10.60
18.45
25.58
31.92
37.28
41.41
44.14
45.51
45.79
45.44
44.86
44.25
43.56
42.59
41.18
39.33
37.22
35.13
33.22
31.49
29.76
27.80
25.45
22.67
19.55
16.21
12.80
9.42
6.19
3.22
0.52
-1.97
-4.45
-7.18
-10.31
-13.86
-17.67
-21.51
-25.18
-28.56
-31.62
-34.40
-36.96
-39.52
-42.34
-45.76
-49.87
-54.36
-58.39
-60.79
-60.43
-56.70
-49.68
-40.15
-29.23
-17.97
-7.09
3.05
12.41
20.97
28.68
35.41
40.99
45.27
48.21
49.82
50.20
49.54
48.02
45.82
43.11
40.03
36.75
33.47
30.44
27.84
25.78
24.24
23.10
22.14
21.15
19.95
18.47
16.73
14.84
12.88
10.93
8.97
6.99
4.94
2.88
0.84
-1.10
-2.95
-4.79
-6.74
-8.97
-11.52
-14.33
-17.27
-20.16
-22.89
-25.45
-28.01
-30.87
-34.28
-38.37
-42.89
-47.20
-50.37
-51.43
-49.71
-45.02
-37.75
-28.69
-18.76
-8.77
0.76
9.57
17.61
24.90
31.42
37.12
41.93
45.81
48.78
50.97
52.49
53.48
54.05
54.31
54.42
54.64
55.27
56.56
58.60
61.19
63.91
66.26
67.76
68.14
67.26
65.19
62.09
58.16
53.56
48.41
42.81
36.94
31.05
25.51
20.67
16.69
13.46
10.55
7.43
3.73
-0.61
-5.29
-9.83
-13.86
-17.33
-20.55
-24.07
-28.48
-34.23
-41.55
-50.27
-59.88
-69.44
-77.78
-83.63
-85.96
-84.36
-79.10
-71.15
-61.82
-52.36
-43.62
-35.91
-29.18
-23.28
-18.30
-14.58
-12.62
-12.75
-14.89
-18.45
-22.58
-26.53
-29.93
-32.94
-36.00
-39.53
-43.66
-48.16
-52.60
-56.65
-60.27
-63.58
-66.70
-69.62
-72.12
-73.83
-74.23
-72.65
-68.38
-60.94
-50.48
-38.16
-26.06
-16.70
-12.14
-13.26
-19.38
-28.67
-38.88
-48.14
-55.46
-60.60
-63.71
-65.01
-64.53
-62.26
-58.26
-52.85
-46.55
-39.97
-33.59
-27.54
-21.60
-15.33
-8.21
0.06
9.41
19.45
29.53
38.92
47.06
53.66
58.74
62.58
65.53
67.84
69.50
70.30
69.91
68.22
65.42
62.04
58.72
55.97
53.92
52.36
50.89
49.16
47.08
44.81
42.63
40.80
39.37
38.20
36.96
35.36
33.13
30.21
26.73
23.02
19.43
16.19
13.27
10.42
7.34
3.82
-0.10
-4.18
-8.18
-11.99
-15.71
-19.53
-23.60
-27.83
-31.91
-35.51
-38.41
-40.74
-42.87
-45.30
-48.27
-51.60
-54.65
-56.45
-56.09
-53.03
-47.32
-39.44
-30.22
-20.39
-10.52
-0.87
8.49
17.46
25.88
33.47
40.01
45.41
49.76
53.27
56.17
58.59
60.50
61.81
62.47
62.56
62.34
62.10
62.06
62.23
62.40
62.23
61.44
59.90
57.79
55.52
53.70
52.97
53.84
56.55
60.96
66.58
72.64
78.32
82.80
85.41
85.66
83.20
77.89
69.80
59.31
47.00
33.66
20.13
7.21
-4.56
-14.97
-24.20
-32.76
-41.17
-49.71
-58.05
-65.31
-70.30
-72.02
-70.08
-64.95
-57.76
-49.85
-42.34
-35.73
-29.96
-24.61
-19.27
-13.80
-8.37
-3.41
0.64
3.56
5.31
6.09
6.13
5.59
4.58
3.18
1.55
-0.00
-1.12
-1.56
-1.28
-0.59
0.02
0.04
-0.80
-2.39
-4.26
-5.84
-6.76
-6.99
-6.84
-6.80
-7.22
-8.14
-9.37
-10.59
-11.58
-12.36
-13.12
-14.12
-15.60
-17.59
-19.97
-22.47
-24.75
-26.54
-27.72
-28.32
-28.55
-28.69
-28.99
-29.64
-30.64
-31.77
-32.52
-32.10
-29.63
-24.44
-16.33
-5.72
6.42
18.91
30.66
40.93
49.33
55.76
60.24
62.81
63.63
62.95
61.12
58.54
55.55
52.43
49.35
46.53
44.13
42.31
41.18
40.74
40.87
41.44
42.31
43.34
44.46
45.58
46.68
47.80
49.04
50.63
52.79
55.72
59.21
63.02
66.99
71.13
75.53
80.00
84.14
87.33
88.66
86.68
80.08
68.14
51.05
30.16
7.35
-15.04
-34.90
-50.93
-63.54
-73.93
-83.35
-92.64
-101.81
-110.83
-119.13
-125.71
-129.52
-131.36
-131.72
-130.27
-126.15
-118.37
-108.30
-97.82
-88.34
-80.57
-77.71
-80.92
-88.43
-96.85
-102.18
-105.32
-108.33
-112.36
-117.38
-127.25
-142.97
-161.50
-177.86
-186.66
-190.93
-196.38
-208.33
-230.93
-272.60
-335.57
-412.90
-490.67
-551.39
-588.21
-600.59
-592.29
-525.83
-391.55
-213.39
-33.79
95.95
187.10
255.64
310.96
360.04
401.17
423.67
420.80
394.73
355.00
317.55
291.22
279.28
279.48
285.20
284.50
270.32
243.70
211.57
183.29
160.65
141.38
123.23
104.94
83.58
57.76
27.53
-6.41
-42.31
-76.91
-107.14
-126.97
-129.39
-111.46
-75.96
-31.29
11.46
43.55
59.60
59.37
47.30
29.13
11.00
-1.50
-5.87
-3.68
2.90
12.49
24.68
38.74
52.48
62.74
66.20
60.46
45.23
23.07
-1.57
-23.42
-37.66
-41.38
-34.46
-19.98
-3.16
10.94
20.18
23.06
21.34
18.25
16.06
14.85
13.02
8.78
1.78
-6.42
-13.47
-17.27
-17.35
-14.76
-11.25
-8.38
-6.80
-6.02
-4.85
-2.35
2.08
7.80
13.37
17.46
19.40
19.45
18.27
16.48
14.14
11.15
7.26
2.57
-2.28
-6.40
-9.12
-10.48
-11.17
-12.22
-14.19
-17.14
-20.58
-23.80
-26.22
-27.67
-28.30
-28.33
-28.73
-29.54
-30.47
-31.04
-30.87
-29.90
-28.41
-26.88
-25.80
-25.47
-25.68
-25.87
-25.24
-22.99
-18.67
-12.45
-5.26
1.53
6.61
9.35
9.99
9.47
9.01
9.53
11.43
14.59
18.59
22.83
26.54
28.66
28.05
23.97
16.81
8.46
1.96
0.33
5.28
16.44
31.49
47.33
61.34
72.20
79.80
84.68
87.29
87.72
85.85
81.71
75.61
68.10
59.69
50.68
41.14
31.18
21.08
11.40
2.85
-3.89
-8.31
-10.18
-9.68
-7.45
-4.44
-1.64
0.17
0.72
0.19
-0.98
-2.35
-3.69
-5.06
-6.68
-8.79
-11.40
-14.38
-17.56
-20.91
-24.49
-28.44
-32.83
-37.65
-42.71
-47.61
-51.94
-55.45
-58.18
-60.34
-62.23
-64.07
-66.12
-68.67
-71.84
-75.66
-80.04
-84.49
-87.85
-88.44
-84.54
-75.26
-60.94
-42.49
-21.71
-0.94
17.48
32.20
43.36
52.11
59.85
67.38
76.04
86.17
96.37
104.05
107.14
105.42
100.42
94.53
89.98
90.42
97.89
111.10
125.08
133.54
131.30
115.70
87.46
51.24
18.41
1.77
10.15
44.75
99.79
165.52
231.22
288.22
312.05
287.41
218.13
125.90
33.82
-45.59
-108.94
-156.21
-187.01
-201.05
-196.89
-176.63
-147.64
-120.78
-105.47
-104.48
-115.99
-134.38
-153.22
-165.19
-165.91
-155.64
-138.47
-119.62
-102.91
-90.19
-81.52
-76.05
-70.87
-62.92
-52.30
-39.93
-27.38
-15.85
-6.27
0.85
5.13
7.22
8.00
8.17
8.27
8.65
9.84
12.24
16.08
21.13
27.04
33.21
38.77
43.09
45.69
46.56
46.00
44.50
42.38
39.69
36.27
31.83
26.34
19.91
12.81
5.40
-1.99
-9.16
-16.09
-22.85
-29.56
-36.18
-42.59
-48.61
-54.05
-58.83
-63.01
-66.89
-70.91
-75.67
-81.66
-89.11
-97.70
-106.39
-113.61
-117.57
-116.89
-111.01
-100.46
-86.60
-71.20
-55.79
-41.25
-27.69
-14.68
-1.79
11.05
23.29
33.97
42.12
47.21
49.42
49.47
48.35
46.85
45.43
44.31
43.65
43.88
45.47
48.84
53.90
60.06
66.35
71.84
76.06
78.99
81.04
82.75
84.56
86.68
89.18
91.96
94.79
97.24
98.71
98.48
95.82
90.18
81.29
69.17
54.18
36.91
18.21
-0.98
-19.66
-36.97
-52.25
-65.12
-75.50
-83.60
-89.92
-95.07
-99.56
-103.45
-106.20
-106.71
-103.71
-96.33
-84.55
-69.32
-52.15
-34.60
-17.71
-1.86
13.01
27.03
40.05
51.58
60.99
67.86
72.15
74.29
74.89
74.54
73.60
72.14
70.04
67.17
63.54
59.35
54.96
50.77
47.08
43.97
41.31
38.79
36.05
32.85
29.13
25.10
21.17
17.81
15.44
14.29
14.29
15.13
16.31
17.37
17.97
18.04
17.70
17.21
16.73
16.19
15.29
13.45
9.96
4.05
-4.92
-17.32
-33.01
-51.12
-70.05
-87.72
-102.20
-112.24
-117.64
-119.13
-117.84
-114.75
-110.26
-104.29
-96.74
-87.88
-78.54
-69.75
-62.19
-55.73
-49.41
-41.90
-32.24
-20.35
-7.22
5.59
16.63
25.21
31.69
37.27
43.29
50.61
59.24
68.39
76.95
84.01
89.16
92.50
94.46
95.68
97.04
99.67
104.89
113.78
126.58
142.30
158.71
173.00
182.81
187.19
186.85
183.73
179.80
175.98
171.57
164.67
153.28
136.59
115.56
92.62
70.58
51.27
34.84
19.91
4.68
-11.99
-29.79
-47.09
-61.64
-71.44
-75.31
-72.93
-64.67
-51.23
-33.50
-12.57
10.28
33.51
55.25
73.34
85.57
90.14
86.24
74.44
56.56
35.04
12.10
-10.91
-33.42
-54.88
-73.99
-88.55
-96.10
-95.21
-86.53
-72.94
-58.49
-46.79
-39.74
-37.08
-37.07
-37.55
-37.06
-35.16
-32.18
-28.59
-24.47
-19.32
-12.33
-2.92
8.71
21.44
33.47
42.86
48.17
48.77
44.87
37.05
25.95
12.05
-4.20
-22.21
-41.22
-60.52
-79.66
-98.51
-117.01
-134.74
-150.59
-162.85
-169.71
-169.91
-163.23
-150.51
-133.41
-113.75
-93.11
-72.50
-52.50
-33.40
-15.62
0.23
13.50
23.80
31.52
37.74
44.01
51.65
61.33
72.84
85.44
98.38
111.27
124.22
137.55
151.44
165.81
180.28
194.45
208.03
220.87
232.77
243.29
251.54
256.32
256.30
250.49
238.68
221.67
201.16
179.20
157.50
136.78
116.67
96.02
73.63
48.90
22.16
-5.65
-33.39
-60.33
-86.46
-112.33
-138.89
-167.31
-198.87
-234.57
-274.45
-316.60
-356.75
-388.81
-406.68
-406.48
-388.19
-355.69
-315.18
-272.72
-232.47
-196.11
-163.74
-135.25
-111.06
-92.02
-78.67
-70.50
-65.96
-63.10
-60.42
-57.24
-53.70
-50.32
-47.40
-44.79
-41.96
-38.35
-33.73
-28.37
-22.85
-17.81
-13.56
-9.98
-6.63
-3.06
0.86
4.91
8.54
11.21
12.60
12.72
11.94
10.79
9.85
9.54
10.00
11.08
12.20
12.55
11.36
8.24
3.51
-1.73
-5.75
-6.63
-2.65
7.17
22.86
43.35
66.67
90.20
111.20
127.13
136.07
136.91
129.41
114.25
92.89
67.51
40.73
15.29
-6.49
-23.10
-34.13
-40.11
-42.19
-41.68
-39.79
-37.51
-35.67
-35.01
-36.09
-39.17
-44.00
-49.83
-55.57
-60.19
-63.12
-64.56
-65.44
-67.23
-71.58
-79.89
-92.88
-110.44
-131.50
-154.03
-175.33
-192.49
-203.10
-205.96
-201.47
-191.70
-179.71
-168.74
-161.25
-158.55
-160.69
-167.01
-176.60
-188.73
-203.04
-219.35
-237.33
-256.05
-273.66
-287.42
-294.11
-290.98
-276.55
-251.17
-216.89
-176.79
-133.90
-90.62
-48.40
-8.08
29.79
64.84
97.20
127.89
158.96
192.78
230.84
272.54
314.73
352.39
380.20
394.50
394.48
382.39
362.67
340.41
319.95
303.72
291.85
282.35
271.86
256.84
234.84
205.55
171.13
135.57
103.50
78.71
63.32
57.47
59.81
67.95
79.02
90.16
99.12
104.88
108.15
111.19
116.90
127.75
144.73
167.30
193.65
221.58
248.80
273.03
291.87
302.94
304.60
296.63
280.73
259.96
237.66
216.07
195.67
175.47
153.87
129.82
103.29
75.21
46.79
18.83
-8.67
-36.40
-65.40
-96.60
-130.57
-167.41
-206.57
-246.82
-286.19
-322.22
-352.57
-375.69
-391.40
-400.86
-406.06
-409.02
-411.18
-413.35
-416.18
-420.57
-427.70
-438.56
-453.10
-469.72
-485.18
-495.40
-496.67
-486.74
-465.55
-435.03
-398.30
-358.67
-318.65
-279.49
-241.23
-203.25
-164.89
-125.72
-85.89
-46.21
-8.52
24.36
49.40
64.70
70.58
69.88
67.02
66.28
70.02
77.80
87.26
96.29
104.80
114.59
127.88
145.59
166.65
188.51
208.18
223.56
234.63
243.40
252.28
262.40
273.04
282.38
288.37
288.75
281.30
264.82
239.59
207.04
169.31
129.12
90.50
60.34
46.02
48.88
62.24
77.14
87.96
93.82
96.78
101.21
109.89
122.71
137.28
151.03
162.91
173.47
183.95
190.78
186.34
167.07
135.30
98.46
65.10
41.25
28.61
25.21
27.23
31.75
37.49
43.90
50.26
55.47
58.79
60.18
60.20
59.77
59.85
61.41
64.61
68.68
72.39
74.95
76.35
77.19
78.30
80.73
84.54
88.98
92.87
95.06
94.81
91.76
85.39
74.27
62.21
50.07
37.60
24.20
9.35
-7.12
-25.00
-43.52
-61.23
-75.98
-86.40
-92.16
-93.65
-91.80
-87.94
-83.40
-79.04
-74.93
-70.60
-66.39
-64.86
-67.87
-75.58
-86.61
-98.93
-110.16
-117.65
-119.06
-113.63
-105.77
-99.16
-94.87
-92.40
-91.83
-94.03
-99.76
-109.19
-122.26
-144.42
-177.43
-217.55
-258.64
-296.84
-331.14
-361.51
-387.21
-406.55
-425.05
-444.30
-460.20
-467.02
-462.77
-449.43
-430.06
-407.06
-333.97
-201.94
-43.03
98.37
199.71
261.69
294.84
310.23
316.14
317.61
309.60
290.40
264.93
241.06
223.31
211.62
203.70
197.26
191.05
179.20
160.29
138.61
120.45
108.75
102.40
98.47
94.58
89.96
81.82
70.96
62.16
61.62
72.47
92.72
116.32
134.99
140.74
126.76
92.83
45.78
0.56
-28.30
-32.27
-10.70
29.52
78.06
122.63
153.17
164.09
152.61
123.89
85.71
46.47
13.26
-9.59
-21.30
-23.42
-18.94
-10.72
-1.17
7.39
13.14
14.79
12.24
6.47
-0.44
-6.23
-9.37
-9.52
-8.20
-7.48
-8.97
-13.07
-19.02
-25.29
-30.44
-33.70
-35.11
-35.69
-36.62
-38.54
-41.26
-44.02
-45.93
-46.61
-46.54
-46.45
-47.38
-49.90
-53.69
-57.79
-60.99
-62.43
-62.30
-61.81
-62.36
-65.50
-72.31
-82.87
-95.98
-108.75
-117.12
-117.13
-106.63
-85.81
-57.94
-28.19
-1.41
19.92
37.03
54.02
75.71
102.00
130.78
157.30
175.45
180.00
168.36
142.06
106.31
68.14
34.16
9.91
-2.22
-3.21
3.32
10.36
10.81
1.66
-14.14
-31.29
-45.13
-54.39
-60.18
-64.01
-66.54
-66.78
-62.98
-53.65
-38.76
-18.13
7.69
37.74
70.48
103.26
132.28
153.27
163.31
154.39
126.71
86.53
43.63
7.44
-16.55
-27.98
-30.54
-31.16
-35.13
-42.95
-52.18
-60.34
-66.99
-73.27
-80.16
-87.41
-93.87
-97.89
-98.09
-94.71
-88.74
-80.45
-69.06
-53.33
-33.09
-10.73
8.88
19.10
13.08
-13.47
-60.14
-121.57
-188.90
-252.59
-305.19
-338.63
-348.47
-336.03
-307.56
-271.61
-236.10
-206.14
-183.30
-166.00
-149.32
-129.21
-103.95
-73.86
-40.17
-4.22
32.57
68.42
101.57
134.00
166.97
200.24
232.31
261.97
288.80
312.34
331.35
343.89
352.85
360.00
364.86
365.73
362.69
358.89
358.94
366.26
381.20
406.98
442.11
480.15
512.74
534.72
545.81
548.14
543.20
491.76
377.57
216.80
49.18
-90.79
-189.28
-249.64
-283.03
-301.26
-312.66
-314.86
-304.98
-284.39
-259.18
-235.90
-218.48
-207.77
-202.55
-200.63
-195.10
-181.78
-161.60
-139.76
-121.64
-110.07
-105.14
-105.15
-107.77
-108.11
-103.77
-95.96
-88.69
-85.55
-87.94
-94.91
-104.04
-112.74
-117.73
-117.83
-114.48
-110.78
-109.15
-110.96
-116.69
-125.84
-136.52
-144.72
-145.56
-135.17
-112.57
-80.07
-44.02
-12.78
6.87
12.88
8.68
0.91
-3.88
-1.50
10.35
30.30
54.55
79.16
101.87
122.05
139.50
153.52
155.15
140.21
111.62
77.30
44.91
19.01
0.92
-10.58
-18.27
-25.22
-32.43
-39.80
-46.60
-51.83
-54.55
-54.41
-51.92
-48.35
-45.04
-42.50
-41.35
-42.56
-47.08
-55.10
-65.62
-76.74
-86.50
-93.95
-99.18
-103.82
-110.04
-118.93
-129.41
-138.35
-142.07
-137.88
-124.92
-104.25
-78.37
-50.19
-21.94
4.77
28.44
47.28
59.44
64.35
63.67
61.18
61.55
68.64
84.04
106.75
133.82
161.52
186.50
206.01
218.01
221.23
215.54
202.18
183.52
162.26
140.39
119.15
98.60
78.24
58.05
39.05
22.98
11.13
3.41
-1.47
-4.08
-4.20
-0.86
7.21
20.78
39.19
59.62
77.41
87.55
88.04
79.13
62.55
40.64
16.25
-7.58
-27.94
-42.32
-48.46
-42.49
-22.18
11.17
52.45
94.56
130.75
156.31
169.35
158.57
121.11
65.48
7.66
-39.35
-71.32
-90.86
-102.85
-111.21
-117.54
-119.28
-113.89
-101.36
-84.87
-69.30
-59.45
-58.69
-68.27
-85.94
-104.65
-115.96
-113.18
-93.94
-60.69
-19.92
19.55
47.97
57.33
45.95
17.36
-21.05
-59.66
-89.13
-102.74
-97.32
-75.33
-44.39
-14.10
7.00
14.83
10.49
0.09
-9.04
-12.47
-10.22
-5.08
0.19
3.44
3.88
0.83
-6.42
-18.60
-34.68
-50.73
-60.40
-57.27
-38.88
-7.19
31.87
69.98
98.79
112.84
111.14
97.27
77.55
57.26
40.94
31.74
30.47
35.05
41.18
44.32
40.91
28.52
3.53
-35.23
-84.78
-138.27
-186.69
-221.12
-235.22
-227.63
-191.41
-134.02
-73.88
-27.81
-0.81
12.09
18.41
23.11
27.51
30.63
29.46
23.61
15.83
9.88
8.02
10.28
15.11
20.59
25.21
26.96
25.86
24.02
24.09
27.45
34.07
42.73
52.15
61.53
69.74
76.42
81.65
84.91
84.77
79.68
69.05
54.00
36.90
19.96
4.86
-7.41
-16.79
-23.53
-27.81
-29.66
-29.25
-27.37
-25.67
-25.82
-28.00
-31.85
-36.17
-39.42
-40.52
-39.34
-36.82
-34.56
-33.95
-35.40
-38.32
-41.00
-41.27
-37.40
-28.94
-17.08
-4.38
6.18
12.43
12.65
7.11
-1.05
-7.96
-10.55
-6.88
3.65
20.30
41.12
62.93
80.29
87.20
80.75
63.72
42.63
23.89
11.08
4.62
2.77
3.35
5.07
7.75
11.64
16.52
21.45
25.23
27.06
26.95
25.72
24.74
25.30
27.98
32.30
37.03
40.87
42.90
42.91
41.38
39.24
37.43
36.37
36.04
35.97
35.76
34.95
33.66
32.36
31.73
32.42
34.77
38.78
44.17
50.70
57.68
64.80
71.99
79.34
86.96
94.92
103.22
111.78
120.74
129.46
137.68
145.21
151.83
157.22
160.75
161.44
157.40
151.72
145.03
137.72
130.02
122.13
114.15
106.17
98.27
90.63
83.58
76.80
70.24
64.00
58.10
52.54
47.18
41.89
36.61
31.49
26.26
21.00
15.87
11.01
5.85
-0.14
-7.01
-14.53
-22.28
-30.24
-38.12
-45.57
-52.42
-59.33
-67.07
-76.05
-86.35
-97.76
-110.06
-122.76
-135.26
-147.18
-159.75
-173.92
-189.65
-206.37
-223.97
-242.94
-263.55
-285.05
-305.31
-324.49
-340.64
-349.40
-346.70
-332.00
-308.13
-279.25
-248.88
-219.15
-198.15
-189.60
-190.28
-193.59
-195.20
-193.96
-190.10
-183.76
-174.85
-174.89
-189.90
-215.46
-242.00
-263.69
-280.02
-292.82
-303.85
-314.11
-339.11
-386.37
-448.96
-512.55
-567.68
-612.36
-648.96
-681.12
-617.54
-431.68
-178.59
57.84
233.63
348.21
418.53
462.06
491.13
512.68
514.67
490.80
448.65
403.53
366.41
340.98
326.56
320.96
321.88
315.87
295.99
266.76
238.29
216.85
202.92
194.29
188.80
185.42
176.84
160.00
138.45
118.78
104.75
96.42
92.16
90.36
90.01
86.75
77.76
63.33
45.37
25.67
5.88
-11.68
-24.41
-30.31
-30.74
-28.70
-25.83
-22.98
-19.62
-14.13
-4.54
9.73
26.92
42.91
52.90
53.71
45.37
31.28
16.49
5.59
0.41
0.05
2.15
4.78
7.23
8.95
8.67
3.53
-9.50
-31.24
-58.49
-84.54
-102.17
-107.15
-100.50
-86.79
-72.16
-60.86
-53.83
-49.43
-45.65
-41.89
-39.31
-39.67
-43.08
-48.12
-52.19
-52.85
-48.54
-39.21
-25.72
-8.55
8.33
24.12
39.44
55.72
74.43
96.51
122.03
150.16
179.20
206.57
229.75
245.95
252.96
249.96
237.90
219.16
196.75
173.30
150.36
128.94
109.33
91.73
76.48
63.90
53.82
45.46
37.45
28.41
17.79
5.68
-7.24
-20.06
-32.07
-43.10
-53.42
-63.60
-74.23
-85.55
-97.45
-109.40
-120.37
-128.96
-133.53
-132.56
-125.06
-110.95
-91.10
-67.25
-41.52
-15.81
8.63
31.27
52.17
71.47
89.17
105.00
118.52
129.44
137.78
143.86
148.20
151.40
154.02
156.76
160.45
166.02
174.24
185.30
198.62
212.91
226.67
238.56
247.82
254.20
257.61
257.93
254.82
248.07
238.12
226.34
214.81
205.59
199.73
196.64
194.34
190.29
182.57
170.74
155.87
139.82
124.30
110.18
97.38
85.33
73.67
62.55
52.59
44.41
38.26
33.78
30.25
26.82
23.02
18.85
14.80
11.55
9.66
9.32
10.19
11.53
12.39
11.96
9.73
5.54
-0.49
-8.18
-17.59
-29.03
-43.11
-60.46
-81.41
-105.68
-132.26
-159.61
-185.96
-209.92
-230.83
-248.96
-265.29
-281.09
-297.29
-314.14
-331.22
-347.76
-363.07
-377.05
-390.32
-404.16
-420.41
-441.36
-469.30
-505.89
-551.02
-601.92
-652.97
-696.90
-726.90
-738.94
-732.95
-712.43
-682.68
-648.60
-613.27
-577.87
-542.45
-507.06
-472.16
-438.48
-406.36
-375.49
-344.97
-314.01
-282.37
-250.55
-219.71
-191.04
-165.31
-142.50
-121.93
-102.63
-83.73
-64.87
-46.26
-28.46
-12.04
2.73
15.98
28.17
39.79
51.16
62.34
73.21
83.65
93.67
103.53
113.56
123.97
134.71
145.48
155.85
165.60
174.85
184.15
194.27
205.80
218.96
233.39
248.44
263.42
278.00
292.38
307.13
323.11
341.30
362.77
388.34
418.03
450.31
481.71
507.35
522.31
523.39
510.35
485.92
454.53
420.46
386.51
353.69
321.88
291.02
261.61
234.59
210.69
189.86
171.29
153.83
136.69
119.74
103.40
88.31
74.90
63.16
52.70
43.02
33.72
24.70
16.06
8.02
0.67
-6.09
-12.67
-19.57
-27.18
-35.54
-44.12
-51.90
-57.57
-60.00
-58.69
-53.92
-46.82
-38.90
-31.61
-25.97
-22.23
-20.08
-18.73
-17.28
-14.92
-11.10
-5.57
1.66
10.30
19.76
29.24
37.70
44.08
47.57
47.86
45.38
41.15
36.56
32.86
30.80
30.40
31.09
32.04
32.54
32.28
31.52
30.89
31.15
32.89
36.18
40.53
44.93
48.15
49.13
47.35
43.04
37.11
30.87
25.56
21.90
19.90
18.71
16.91
12.85
5.10
-6.97
-22.94
-41.19
-59.20
-74.06
-83.30
-85.53
-80.92
-71.22
-59.22
-48.18
-40.99
-39.57
-44.50
-54.91
-68.67
-82.79
-94.05
-99.81
-98.70
-91.05
-78.82
-64.98
-52.49
-43.43
-38.47
-36.99
-37.60
-38.81
-39.35
-38.26
-34.71
-27.99
-17.71
-4.20
11.24
26.46
38.97
46.71
48.74
45.37
37.99
28.44
18.40
9.13
1.41
-4.23
-7.38
-7.73
-5.29
-0.59
5.27
10.77
14.42
15.29
13.28
9.19
4.44
0.57
-1.29
-0.83
1.33
3.94
5.57
5.23
2.76
-1.17
-5.42
-8.81
-10.61
-10.63
-9.16
-6.72
-3.86
-1.03
1.38
3.13
4.06
4.27
3.91
3.31
2.78
2.56
2.73
3.12
3.34
2.89
1.31
-1.56
-5.50
-9.98
-14.29
-17.84
-20.31
-21.63
-22.00
-21.65
-20.87
-19.90
-18.97
-18.27
-17.79
-17.39
-16.84
-15.94
-14.67
-13.23
-11.91
-10.96
-10.37
-9.80
-8.78
-6.88
-3.96
-0.25
3.70
7.17
9.55
10.50
9.98
8.25
5.74
2.95
0.41
-1.43
-2.21
-1.81
-0.41
1.50
3.28
4.37
4.54
4.00
3.29
3.09
3.87
5.76
8.48
11.39
13.79
15.00
14.59
12.41
8.63
3.74
-1.50
-6.20
-9.47
-10.68
-9.64
-6.69
-2.70
1.23
4.06
5.23
4.89
3.76
2.78
2.70
3.72
5.45
7.06
7.81
7.31
5.67
3.38
0.94
-1.28
-3.10
-4.54
-5.67
-6.64
-7.64
-8.85
-10.36
-12.26
-14.32
-16.03
-16.85
-16.46
-14.88
-12.54
-10.08
-8.21
-7.71
-8.80
-11.14
-13.96
-16.46
-18.09
-18.71
-18.67
-18.73
-20.39
-24.48
-30.96
-39.14
-48.09
-56.84
-64.40
-69.87
-72.86
-74.74
-77.41
-83.22
-94.31
-112.11
-136.24
-163.97
-191.04
-213.01
-227.58
-233.12
-228.76
-214.46
-191.77
-163.70
-134.04
-107.15
-79.77
-54.44
-36.01
-28.18
-30.82
-41.45
-57.07
-74.69
-92.07
-107.70
-121.66
-133.65
-143.90
-151.08
-154.59
-154.76
-151.66
-145.76
-137.70
-128.98
-120.24
-111.10
-100.30
-86.08
-71.52
-57.99
-46.38
-37.13
-30.84
-27.33
-25.76
-24.89
-23.83
-22.03
-18.41
-12.13
-2.64
10.13
26.14
45.28
67.21
90.99
115.11
138.34
159.26
176.55
189.11
196.46
198.72
196.56
190.90
182.62
172.92
162.81
153.12
144.60
137.88
133.52
131.95
133.52
138.50
147.35
160.22
176.63
195.28
214.05
230.49
242.57
249.27
250.69
247.96
242.46
235.39
227.50
219.13
210.33
200.95
190.63
178.90
165.32
149.73
132.46
114.22
95.91
78.24
61.55
45.84
30.84
16.26
1.93
-12.05
-25.37
-37.66
-48.67
-58.60
-68.14
-78.30
-90.07
-103.98
-119.82
-136.64
-153.13
-168.01
-180.39
-189.95
-196.79
-200.85
-201.33
-196.22
-182.34
-156.07
-114.54
-56.83
15.26
97.12
182.21
263.44
334.74
392.48
436.26
468.88
495.35
520.99
549.12
579.57
608.44
629.58
637.21
628.21
603.21
565.89
521.21
473.43
425.19
377.63
331.22
286.61
244.75
206.39
171.46
138.98
107.40
75.56
43.35
11.91
-16.73
-40.54
-58.32
-70.13
-77.25
-81.55
-84.82
-88.17
-91.86
-95.46
-98.36
-100.20
-101.13
-101.71
-102.67
-104.45
-107.02
-109.88
-112.31
-113.65
-113.66
-112.51
-110.73
-108.90
-107.49
-106.62
-106.21
-106.08
-106.18
-106.72
-108.14
-110.88
-115.28
-121.38
-128.88
-137.32
-146.28
-155.45
-164.83
-174.62
-185.24
-197.25
-211.10
-226.84
-243.79
-260.40
-274.39
-283.44
-285.86
-281.29
-270.75
-256.24
-239.95
-223.58
-208.04
-193.48
-179.76
-166.78
-154.60
-143.37
-133.18
-124.02
-115.77
-108.41
-101.99
-96.68
-92.62
-89.81
-88.07
-87.09
-86.46
-85.79
-84.77
-83.24
-81.23
-78.95
-76.71
-74.92
-73.92
-73.84
-74.58
-75.70
-76.51
-76.23
-74.15
-69.94
-63.75
-56.21
-48.26
-40.78
-34.36
-29.16
-25.05
-21.88
-19.61
-18.39
-18.32
-19.34
-21.06
-22.99
-24.68
-26.05
-27.20
-28.45
-29.92
-31.45
-32.65
-33.06
-32.34
-30.43
-27.53
-24.05
-20.50
-17.48
-15.47
-14.79
-15.45
-17.17
-19.37
-21.44
-22.84
-23.27
-22.76
-21.57
-20.08
-18.67
-17.65
-17.11
-17.09
-17.47
-18.10
-18.82
-19.50
-19.99
-20.07
-19.59
-18.44
-16.72
-14.78
-13.15
-12.36
-12.61
-13.68
-14.85
-15.23
-14.02
-10.91
-6.19
-0.59
4.89
9.41
12.43
13.89
14.04
13.39
12.41
11.42
10.46
9.34
7.82
5.74
3.22
0.59
-1.71
-3.39
-4.34
-4.66
-4.52
-4.05
-3.31
-2.36
-1.35
-0.51
-0.03
-0.05
-0.51
-1.19
-1.84
-2.25
-2.34
-2.17
-1.89
-1.68
-1.66
-1.89
-2.34
-2.97
-3.73
-4.59
-5.56
-6.63
-7.79
-8.94
-9.96
-10.71
-11.14
-11.30
-11.35
-11.52
-11.98
-12.77
-13.68
-14.28
-13.99
-12.27
-8.86
-3.85
2.19
8.44
13.94
17.99
20.23
20.79
20.16
18.94
17.69
16.68
15.98
15.45
14.91
14.21
13.34
12.37
11.45
10.73
10.35
10.31
10.52
10.81
10.98
10.90
10.52
9.84
8.88
7.67
6.27
4.81
3.44
2.35
1.60
1.14
0.73
0.10
-0.99
-2.61
-4.59
-6.63
-8.38
-9.58
-10.18
-10.27
-10.11
-9.92
-9.86
-9.95
-10.14
-10.29
-10.32
-10.21
-10.03
-9.92
-10.08
-10.64
-11.64
-12.95
-14.12
-14.51
-13.48
-10.56
-5.80
0.24
6.62
12.29
16.47
18.90
19.86
19.98
20.02
20.45
21.41
22.66
23.70
24.09
23.49
21.89
19.47
16.60
13.57
10.65
8.02
5.83
4.31
3.61
3.78
4.60
5.62
6.18
5.71
3.86
0.67
-3.44
-7.84
-11.90
-15.09
-17.16
-18.07
-17.97
-17.04
-15.51
-13.58
-11.44
-9.30
-7.37
-5.87
-5.00
-4.88
-5.50
-6.74
-8.30
-9.84
-11.07
-11.85
-12.24
-12.52
-12.93
-13.72
-14.91
-16.38
-17.83
-18.88
-19.05
-17.91
-15.25
-11.08
-5.83
-0.14
5.27
9.93
13.70
16.78
19.52
22.16
24.71
26.96
28.60
29.35
29.07
27.75
25.56
22.71
19.50
16.23
13.18
10.54
8.47
7.06
6.35
6.33
6.90
7.77
8.56
8.93
8.66
7.78
6.53
5.27
4.34
4.02
4.47
5.70
7.64
10.03
12.48
14.47
15.42
14.91
12.80
9.35
5.26
1.35
-1.67
-3.51
-4.46
-5.19
-6.50
-9.00
-12.82
-17.60
-22.63
-27.05
-30.07
-31.16
-30.09
-27.02
-22.37
-16.83
-11.03
-5.48
-0.47
4.03
8.16
12.05
15.69
18.86
21.14
22.18
21.79
20.12
17.61
14.86
12.39
10.45
8.91
7.39
5.48
2.97
-0.04
-3.18
-6.00
-8.17
-9.53
-10.13
-10.09
-9.50
-8.36
-6.61
-4.26
-1.43
1.55
4.30
6.44
7.75
8.20
7.98
7.37
6.65
6.01
5.47
4.93
4.24
3.25
1.90
0.20
-1.70
-3.66
-5.53
-7.28
-9.04
-10.93
-13.13
-15.65
-18.16
-20.09
-20.70
-19.32
-15.64
-9.84
-2.60
5.18
12.61
19.07
24.30
28.31
31.19
32.95
33.43
32.32
29.40
24.71
18.73
12.34
6.68
2.85
1.54
2.92
6.45
11.22
16.15
20.38
23.32
24.74
24.68
23.32
20.94
17.90
14.64
11.54
8.95
6.91
5.26
3.61
1.56
-1.21
-4.77
-8.93
-13.35
-17.51
-20.93
-23.23
-24.22
-24.02
-23.02
-21.74
-20.73
-20.25
-20.28
-20.43
-20.15
-18.90
-16.44
-12.88
-8.68
-4.54
-1.13
1.08
2.06
2.23
2.36
3.31
5.70
9.65
14.71
20.04
24.70
27.97
29.53
29.47
28.16
26.02
23.43
20.69
18.01
15.49
13.15
10.90
8.56
6.04
3.34
0.65
-1.69
-3.36
-4.08
-3.77
-2.48
-0.37
2.30
5.19
7.92
10.14
11.54
11.99
11.52
10.33
8.69
6.82
4.84
2.79
0.66
-1.52
-3.64
-5.57
-7.18
-8.43
-9.38
-10.10
-10.65
-10.98
-11.07
-10.86
-10.40
-9.77
-9.09
-8.40
-7.65
-6.68
-5.31
-3.51
-1.33
1.09
3.59
6.21
9.10
12.49
16.55
21.25
26.37
31.52
36.23
40.02
42.44
43.21
42.24
39.76
36.28
32.46
28.91
26.01
23.81
22.11
20.64
19.23
17.93
16.87
16.18
15.76
15.31
14.48
12.94
10.63
7.73
4.63
1.73
-0.62
-2.24
-3.20
-3.67
-3.95
-4.36
-5.18
-6.58
-8.51
-10.71
-12.66
-13.84
-13.76
-12.28
-9.65
-6.49
-3.62
-1.83
-1.50
-2.57
-4.49
-6.55
-8.15
-9.01
-9.23
-9.14
-9.17
-9.66
-10.82
-12.65
-14.92
-17.14
-18.66
-18.85
-17.35
-14.23
-10.04
-5.59
-1.65
1.39
3.55
5.17
6.67
8.29
9.98
11.49
12.46
12.65
12.02
10.78
9.34
8.23
7.86
8.43
9.81
11.62
13.39
14.78
15.66
16.25
16.88
17.88
19.26
20.68
21.38
20.31
16.49
9.23
-1.51
-14.97
-29.71
-43.95
-56.00
-64.73
-69.72
-71.25
-69.99
-66.65
-61.60
-54.82
-46.04
-34.88
-21.34
-5.86
10.49
26.15
39.29
48.09
51.16
47.81
38.20
23.48
5.42
-13.99
-32.82
-49.37
-62.38
-71.13
-75.54
-76.29
-74.38
-71.26
-68.60
-67.85
-69.98
-75.25
-83.45
-94.24
-107.48
-122.75
-139.74
-158.09
-177.08
-195.29
-210.75
-221.52
-226.26
-224.65
-216.13
-201.45
-183.25
-165.64
-152.89
-148.12
-152.30
-163.73
-178.16
-187.13
-183.08
-162.54
-127.02
-81.41
-31.39
18.22
64.28
105.52
146.33
190.25
237.25
283.91
326.35
362.77
393.68
420.64
445.19
473.57
509.27
550.48
591.19
625.02
648.44
660.91
663.28
621.84
520.55
369.59
200.30
42.87
-87.91
-190.36
-268.57
-328.04
-373.60
-403.43
-416.62
-416.04
-407.39
-396.61
-388.15
-382.48
-378.95
-376.75
-371.18
-359.46
-342.83
-325.13
-310.87
-302.88
-301.81
-307.09
-317.16
-327.06
-332.00
-332.43
-328.18
-319.44
-305.93
-287.04
-262.39
-231.86
-194.51
-150.47
-101.76
-49.02
5.57
58.46
105.36
142.34
167.08
179.64
181.46
174.66
166.91
164.27
169.41
181.60
198.93
220.36
246.01
276.38
311.54
358.73
421.55
497.30
577.86
654.07
719.72
772.37
812.18
840.53
869.27
906.34
951.85
998.79
1038.27
1064.51
1075.86
1073.20
995.65
816.92
553.13
255.42
-23.46
-253.93
-429.84
-557.83
-648.42
-711.54
-745.13
-748.84
-728.06
-693.51
-656.52
-624.45
-599.68
-581.52
-568.15
-550.21
-521.79
-483.45
-441.03
-401.71
-369.93
-346.49
-329.81
-317.29
-301.46
-276.81
-244.85
-209.58
-175.78
-146.44
-122.35
-102.86
-86.54
-69.35
-48.19
-22.37
6.50
34.55
56.87
68.30
64.52
43.43
7.19
-38.77
-87.37
-131.90
-167.53
-191.82
-204.81
-208.18
-204.24
-195.08
-182.14
-166.49
-149.14
-131.02
-112.88
-95.51
-79.71
-66.19
-55.33
-46.24
-37.08
-25.66
-8.86
16.82
53.44
100.03
151.61
199.43
234.26
248.34
236.53
201.44
153.53
106.26
71.56
56.23
60.66
82.81
117.83
155.88
190.22
219.32
243.46
263.87
281.72
297.01
311.94
326.39
331.45
321.86
300.28
272.30
244.51
222.09
207.53
206.30
222.23
248.41
280.44
318.61
360.07
398.72
427.09
406.30
314.39
204.68
107.84
20.36
-55.48
-119.20
-171.90
-215.57
-252.46
-279.17
-292.45
-298.95
-301.95
-298.47
-286.94
-268.35
-246.43
-226.04
-206.89
-186.58
-168.22
-151.56
-132.41
-109.10
-82.77
-56.17
-31.94
-8.81
15.41
38.09
57.38
73.56
86.40
95.81
102.42
107.60
114.34
125.05
138.58
153.12
167.39
179.68
188.53
192.90
192.07
185.84
173.97
155.81
132.18
105.94
81.00
61.11
48.57
43.71
45.24
51.31
60.54
72.30
86.44
102.51
119.34
135.11
147.99
156.94
162.15
164.91
166.96
169.46
172.33
174.01
172.05
164.28
150.01
130.53
108.70
87.65
69.33
53.77
39.38
24.02
6.26
-13.94
-35.44
-56.79
-77.15
-96.64
-115.98
-135.89
-156.57
-177.79
-199.27
-220.96
-242.62
-262.98
-279.22
-287.45
-284.26
-268.73
-243.48
-214.10
-186.98
-166.75
-154.79
-149.46
-147.87
-147.83
-148.84
-151.64
-156.94
-164.32
-171.98
-177.51
-179.29
-177.21
-172.79
-168.33
-165.87
-166.33
-169.51
-174.58
-180.72
-187.59
-195.06
-202.70
-209.21
-212.51
-210.25
-200.79
-184.02
-161.45
-135.75
-109.74
-85.56
-64.26
-45.90
-30.08
-16.42
-4.85
4.58
11.90
17.45
21.83
25.74
29.66
33.71
37.68
41.22
44.05
46.05
47.24
47.67
47.30
46.04
43.73
40.29
35.74
30.22
23.90
16.93
9.45
1.63
-6.41
-14.55
-22.73
-31.07
-39.77
-49.14
-59.39
-70.51
-82.22
-94.09
-105.65
-116.71
-127.48
-138.52
-150.61
-164.39
-180.09
-197.32
-215.00
-231.43
-244.60
-252.69
-254.46
-249.68
-239.28
-225.17
-209.69
-194.96
-182.24
-171.69
-162.48
-153.29
-142.70
-129.60
-113.17
-92.81
-68.12
-38.93
-5.56
30.98
68.88
105.75
139.14
167.11
188.72
204.12
214.29
220.44
223.45
223.61
220.70
214.38
204.70
192.39
178.81
165.65
154.56
146.98
143.94
146.08
153.59
166.08
182.61
201.94
222.83
244.19
264.70
282.35
293.89
294.95
281.17
249.88
201.76
141.37
76.33
15.23
-34.81
-69.68
-88.66
-93.43
-86.66
-71.03
-48.95
-22.88
4.14
28.59
47.21
57.81
60.10
55.68
47.18
37.19
27.35
18.00
8.65
-1.30
-11.86
-22.18
-31.00
-37.27
-40.72
-42.00
-42.45
-43.51
-46.11
-50.35
-55.55
-60.49
-63.94
-65.01
-63.46
-59.63
-54.31
-48.36
-42.49
-37.11
-32.43
-28.57
-25.75
-24.21
-24.17
-25.61
-28.21
-31.38
-34.46
-37.01
-38.93
-40.58
-42.60
-45.73
-50.52
-57.17
-65.33
-74.05
-81.85
-86.97
-87.82
-83.35
-73.40
-58.80
-41.10
-22.18
-3.66
13.33
28.22
40.79
50.98
58.67
63.85
66.72
67.91
68.45
69.46
71.80
75.73
80.88
86.35
91.17
94.59
96.24
96.16
94.58
91.81
88.11
83.68
78.73
73.49
68.26
63.27
58.69
54.55
50.71
46.81
42.33
36.69
29.41
20.33
9.67
-1.92
-13.54
-24.34
-33.73
-41.51
-47.82
-53.06
-57.71
-62.26
-67.13
-72.55
-78.40
-84.04
-88.31
-89.79
-87.18
-79.77
-67.72
-52.08
-34.35
-16.06
1.67
18.30
33.65
47.64
60.04
70.40
78.24
83.29
85.68
85.93
84.75
82.83
80.55
77.95
74.81
70.86
66.03
60.50
54.68
49.01
43.75
38.89
34.16
29.17
23.64
17.58
11.28
5.22
-0.10
-4.33
-7.45
-9.73
-11.65
-13.69
-16.12
-18.91
-21.69
-23.96
-25.35
-25.82
-25.78
-25.98
-27.33
-30.54
-36.01
-43.52
-52.23
-60.68
-67.01
-69.35
-66.34
-57.56
-43.74
-26.55
-8.13
9.51
25.00
37.76
47.88
55.76
61.71
65.85
68.16
68.68
67.68
65.70
63.37
61.11
58.94
56.57
53.60
49.85
45.55
41.24
37.47
34.56
32.39
30.52
28.46
25.88
22.71
19.11
15.26
11.30
7.24
3.06
-1.24
-5.61
-10.03
-14.52
-19.25
-24.40
-30.06
-36.09
-42.15
-47.87
-53.03
-57.81
-62.76
-68.63
-76.05
-85.26
-95.96
-107.31
-118.14
-127.15
-133.18
-135.46
-133.71
-128.21
-119.64
-108.91
-96.96
-84.69
-72.97
-62.64
-54.47
-48.99
-46.39
-46.48
-48.90
-53.25
-59.06
-65.48
-70.90
-73.06
-69.70
-59.59
-43.25
-22.77
-0.84
20.65
41.48
62.68
85.29
108.98
131.59
150.08
162.18
167.60
168.20
166.84
165.93
166.60
168.74
171.84
175.73
180.74
187.01
193.82
199.42
201.53
198.53
190.45
179.29
168.68
162.90
164.98
175.42
191.67
208.61
220.45
222.54
212.88
192.61
165.62
136.16
107.25
80.06
53.85
27.79
1.56
-24.28
-48.07
-66.76
-77.91
-80.14
-73.56
-60.50
-44.04
-27.89
-15.57
-9.15
-8.28
-12.64
-22.66
-39.45
-64.38
-95.90
-129.28
-157.58
-181.25
-198.20
-207.49
-210.34
-204.17
-193.36
-181.61
-170.62
-164.27
-163.91
-168.04
-173.88
-177.74
-176.19
-168.31
-154.77
-138.10
-121.72
-107.85
-96.57
-87.24
-79.26
-72.34
-67.16
-63.64
-61.33
-59.77
-58.34
-56.16
-53.24
-50.07
-47.14
-44.88
-42.58
-38.88
-32.45
-22.30
-8.36
8.13
25.16
40.80
53.78
64.16
72.83
80.76
88.55
96.20
103.26
109.30
114.32
118.72
123.15
127.94
132.80
136.67
137.93
134.77
125.78
110.45
89.53
64.94
39.19
14.66
-7.07
-25.47
-40.66
-52.88
-61.97
-67.37
-68.61
-65.98
-60.76
-55.00
-50.75
-49.19
-50.21
-52.67
-55.14
-56.66
-57.13
-57.17
-57.57
-58.84
-60.95
-63.42
-65.68
-67.34
-68.41
-69.24
-70.33
-72.06
-74.41
-76.70
-77.62
-75.46
-68.61
-56.09
-38.02
-15.57
9.27
34.31
57.70
78.24
95.40
109.16
119.72
127.28
132.02
134.07
133.56
130.54
125.05
117.03
106.54
93.80
79.25
63.62
47.75
32.51
18.58
6.43
-3.74
-11.96
-18.37
-23.23
-26.78
-29.27
-30.89
-31.83
-32.26
-32.41
-32.49
-32.63
-32.83
-32.99
-32.99
-32.79
-32.49
-32.33
-32.61
-33.56
-35.27
-37.68
-40.62
-43.90
-47.32
-50.81
-54.32
-57.98
-61.93
-66.30
-71.05
-75.74
-79.46
-80.92
-78.78
-72.14
-60.88
-45.84
-28.57
-10.86
5.78
20.47
32.93
43.27
51.65
58.10
62.61
65.23
66.21
66.00
65.12
63.92
62.56
60.99
59.10
56.83
54.22
51.38
48.47
45.60
42.81
40.01
37.03
33.69
29.87
25.67
21.41
17.52
14.37
12.01
10.19
8.47
6.45
4.02
1.31
-1.34
-3.76
-6.01
-8.36
-11.14
-14.47
-18.18
-21.86
-25.07
-27.53
-29.26
-30.51
-31.72
-33.34
-35.81
-39.34
-43.82
-48.61
-52.59
-54.30
-52.42
-46.26
-36.05
-22.95
-8.62
5.30
17.60
27.68
35.40
40.90
44.35
45.94
45.97
44.85
43.08
41.22
39.71
38.77
38.45
38.66
39.20
39.91
40.67
41.52
42.57
43.93
45.56
47.18
48.34
48.58
47.61
45.48
42.59
39.46
36.49
33.81
31.38
29.23
27.52
26.61
26.90
28.69
32.04
36.73
42.29
48.27
54.55
61.20
68.55
77.22
88.14
102.04
118.54
135.58
149.53
156.36
152.57
136.25
107.50
68.27
21.54
-29.18
-79.82
-125.08
-158.31
-173.50
-167.32
-140.56
-98.23
-48.68
-1.66
33.92
52.02
50.82
31.68
-1.52
-42.66
-83.77
-115.70
-128.21
-115.14
-81.93
-38.99
1.31
27.71
31.62
10.54
-31.45
-85.53
-141.77
-188.76
-216.24
-219.61
-201.52
-169.29
-130.15
-89.10
-49.07
-12.49
18.10
40.78
54.56
60.08
60.03
58.45
58.49
60.98
64.90
67.52
65.91
58.05
43.83
25.42
6.42
-10.21
-23.01
-32.68
-41.64
-53.08
-70.26
-96.27
-133.52
-179.03
-229.09
-277.74
-317.44
-340.91
-343.45
-324.49
-288.21
-241.43
-190.67
-140.51
-92.26
-45.16
1.61
47.81
92.49
134.10
171.77
206.08
238.34
270.28
302.44
333.36
359.42
376.51
380.41
368.59
341.26
301.07
252.78
201.40
150.97
101.08
54.49
15.31
-13.09
-30.24
-40.14
-47.29
-55.08
-65.68
-80.21
-96.94
-114.12
-130.15
-144.25
-156.82
-168.99
-182.45
-198.87
-218.69
-240.09
-258.43
-267.13
-260.09
-234.06
-189.77
-132.12
-68.61
-4.24
51.98
92.06
113.48
119.10
114.09
103.03
89.04
74.28
60.64
49.39
41.73
38.13
37.54
37.87
37.14
34.40
29.98
25.09
20.82
18.29
18.29
20.26
22.89
24.96
26.22
27.26
29.48
34.39
43.38
56.94
73.36
89.18
100.26
103.35
97.02
81.98
60.41
34.27
7.57
-16.48
-35.91
-49.72
-57.36
-58.76
-54.51
-46.09
-35.63
-25.34
-17.38
-13.03
-12.44
-14.33
-16.51
-17.03
-14.78
-10.03
-4.10
0.80
2.46
-0.85
-9.88
-24.37
-42.64
-61.26
-75.36
-79.95
-72.13
-51.64
-23.97
3.27
23.62
34.16
36.51
35.64
37.31
44.38
55.89
67.11
71.97
65.71
46.66
16.87
-18.72
-53.85
-82.62
-100.44
-104.30
-92.36
-64.38
-23.13
25.00
71.05
105.95
123.81
124.15
111.73
94.65
80.88
74.69
75.61
79.47
80.87
75.57
61.95
40.75
14.63
-11.17
-30.59
-39.17
-36.22
-24.70
-8.75
9.29
29.95
54.31
85.34
123.09
164.40
204.37
238.62
264.97
283.49
293.69
296.02
291.17
279.06
259.61
233.72
203.71
173.13
145.16
121.71
103.25
89.02
76.62
63.72
48.99
32.49
15.75
0.10
-13.43
-24.13
-31.89
-38.60
-46.35
-56.52
-69.24
-82.85
-96.79
-110.95
-125.18
-139.70
-157.41
-180.76
-210.28
-244.11
-277.52
-309.51
-340.95
-372.72
-404.73
-438.10
-470.47
-495.78
-506.32
-493.75
-459.46
-410.05
-353.12
-295.70
-247.49
-215.69
-203.53
-209.71
-225.94
-248.43
-273.46
-295.90
-279.18
-201.33
-64.89
102.29
240.83
343.19
414.73
461.80
495.85
520.44
532.02
527.41
507.02
475.81
444.69
417.48
394.61
375.43
357.87
336.63
307.89
271.23
230.14
192.75
161.64
136.48
115.88
97.31
76.43
50.30
18.64
-16.00
-47.97
-75.24
-97.82
-116.66
-133.63
-151.54
-172.72
-198.28
-227.70
-257.97
-286.20
-308.75
-321.48
-321.24
-307.29
-281.47
-247.63
-210.16
-172.26
-136.11
-102.54
-71.60
-43.51
-18.92
1.26
16.47
26.99
34.00
39.08
43.53
47.92
51.93
54.68
55.36
53.69
50.21
45.96
42.08
39.25
37.47
36.17
34.51
31.92
28.22
23.66
18.70
13.73
8.94
4.31
-0.30
-4.99
-9.76
-14.49
-18.95
-22.93
-26.31
-29.08
-31.45
-33.78
-36.51
-39.95
-44.24
-49.16
-54.16
-58.51
-61.47
-62.57
-61.61
-58.76
-54.42
-49.05
-43.07
-36.76
-30.36
-24.06
-18.12
-12.84
-8.51
-5.35
-3.47
-2.89
-3.54
-5.36
-8.22
-11.96
-16.28
-20.81
-25.17
-29.05
-32.34
-35.16
-37.82
-40.72
-44.21
-48.52
-53.71
-59.63
-65.97
-72.27
-77.96
-82.52
-85.53
-86.83
-86.57
-85.10
-82.89
-80.26
-77.29
-73.69
-68.89
-62.33
-53.70
-43.28
-31.99
-21.30
-12.72
-7.37
-5.57
-6.64
-9.11
-11.18
-11.08
-7.52
0.16
11.99
27.51
45.80
65.80
86.33
106.33
124.90
141.37
155.22
166.06
173.61
177.60
177.95
174.77
168.41
159.55
148.95
137.39
125.46
113.54
101.80
90.44
79.64
69.62
60.49
52.11
44.05
35.70
26.64
16.79
6.56
-3.41
-12.55
-20.63
-27.86
-34.69
-41.54
-48.50
-55.34
-61.55
-66.61
-70.15
-72.09
-72.58
-72.06
-71.08
-70.14
-69.50
-68.91
-67.54
-64.14
-57.55
-47.19
-33.43
-17.61
-1.67
12.51
23.69
31.54
36.60
39.80
42.06
43.96
45.62
46.88
47.41
46.95
45.40
42.79
39.27
34.99
30.03
24.44
18.25
11.58
4.80
-1.51
-6.69
-10.23
-12.00
-12.37
-12.06
-11.86
-12.27
-13.34
-14.69
-15.78
-16.20
-15.91
-15.22
-14.71
-14.95
-16.24
-18.57
-21.66
-25.14
-28.68
-32.16
-35.62
-39.13
-42.62
-45.81
-48.21
-49.33
-48.82
-46.53
-42.47
-36.69
-29.11
-19.63
-8.21
4.87
19.00
33.24
46.53
57.94
66.84
72.93
76.20
76.87
75.29
71.90
67.19
61.58
55.49
49.18
42.89
36.73
30.82
25.20
19.90
14.90
10.10
5.36
0.43
-4.92
-10.81
-17.05
-23.22
-28.69
-32.90
-35.60
-36.95
-37.47
-37.79
-38.31
-39.01
-39.44
-38.97
-37.14
-33.94
-29.95
-26.16
-23.67
-23.28
-25.28
-29.29
-34.46
-39.59
-43.51
-45.17
-43.88
-39.27
-31.58
-21.51
-10.23
0.93
10.85
18.82
24.78
29.01
32.03
34.23
35.74
36.50
36.42
35.55
34.10
32.40
30.73
29.23
27.89
26.63
25.43
24.29
23.30
22.45
21.69
20.83
19.63
17.90
15.59
12.81
9.74
6.57
3.37
0.11
-3.36
-7.21
-11.48
-16.12
-20.88
-25.48
-29.65
-33.28
-36.43
-39.30
-42.00
-44.57
-46.92
-48.93
-50.60
-52.01
-53.28
-54.32
-54.67
-53.47
-49.73
-42.63
-31.93
-18.15
-2.48
13.53
28.35
40.85
50.44
57.11
61.25
63.44
64.18
63.82
62.48
60.19
56.92
52.72
47.74
42.26
36.69
31.57
27.42
24.67
23.46
23.50
24.07
24.20
22.99
19.91
14.99
8.83
2.33
-3.64
-8.51
-12.15
-14.86
-17.12
-19.38
-21.87
-24.52
-27.11
-29.41
-31.32
-32.88
-34.27
-35.65
-37.09
-38.63
-40.31
-42.23
-44.46
-47.01
-49.71
-52.14
-53.71
-53.76
-51.76
-47.35
-40.54
-31.70
-21.52
-10.87
-0.53
8.89
17.12
24.09
29.81
34.17
36.98
38.04
37.26
34.76
30.86
26.03
20.74
15.50
10.67
6.49
3.01
0.04
-2.66
-5.34
-8.00
-10.44
-12.35
-13.43
-13.61
-12.98
-11.84
-10.48
-9.13
-7.95
-7.00
-6.35
-6.04
-6.18
-6.78
-7.84
-9.24
-10.74
-12.04
-12.88
-13.13
-12.92
-12.65
-12.76
-13.68
-15.54
-18.23
-21.41
-24.60
-27.27
-28.84
-28.78
-26.72
-22.62
-16.90
-10.35
-3.93
1.61
5.97
9.34
12.15
14.76
17.16
18.99
19.80
19.32
17.74
15.72
14.15
13.79
15.01
17.67
21.25
25.09
28.64
31.53
33.61
34.84
35.27
35.04
34.41
33.77
33.48
33.75
34.51
35.38
35.82
35.35
33.68
30.83
27.03
22.65
18.04
13.49
9.22
5.40
2.24
-0.18
-1.86
-3.11
-4.48
-6.65
-10.19
-15.33
-21.79
-28.81
-35.48
-40.98
-44.72
-46.31
-45.44
-41.85
-35.46
-26.58
-16.06
-5.24
4.43
11.84
16.52
18.73
19.21
18.81
18.23
17.90
18.09
18.90
20.31
22.03
23.54
24.14
23.21
20.44
16.05
10.66
5.12
0.10
-4.05
-7.41
-10.32
-13.12
-16.10
-19.32
-22.70
-25.98
-28.84
-30.86
-31.58
-30.58
-27.62
-22.77
-16.54
-9.89
-3.99
-0.01
1.26
-0.37
-4.49
-10.25
-16.70
-23.06
-29.01
-34.57
-39.92
-45.15
-50.10
-54.34
-57.35
-58.83
-58.76
-57.35
-54.94
-51.68
-47.53
-42.26
-35.78
-28.18
-19.92
-11.55
-3.63
3.44
9.43
14.12
17.28
18.66
18.13
15.81
12.05
7.34
2.19
-2.86
-7.22
-10.05
-10.43
-7.60
-1.45
7.18
16.52
24.37
28.89
29.15
25.58
19.64
13.25
8.07
5.02
4.20
5.14
7.17
9.64
12.03
13.90
14.81
14.42
12.69
10.00
7.17
5.15
4.59
5.49
7.20
8.67
8.88
7.34
4.20
0.21
-3.72
-6.72
-8.26
-8.12
-6.42
-3.39
0.65
5.34
10.37
15.43
20.24
24.56
28.14
30.72
32.12
32.17
30.86
28.39
25.16
21.79
18.85
16.78
15.63
15.13
14.74
13.92
12.31
9.87
6.86
3.72
1.00
-0.80
-1.38
-0.63
1.20
3.61
5.95
7.61
8.28
8.06
7.36
6.69
6.45
6.74
7.43
8.24
8.92
9.39
9.64
9.77
9.87
9.99
10.19
10.54
11.05
11.62
12.01
11.87
10.93
9.07
6.48
3.67
1.32
0.04
0.19
1.72
4.12
6.65
8.61
9.64
9.73
9.22
8.54
7.97
7.50
6.78
5.43
3.12
-0.13
-4.01
-7.95
-11.37
-13.87
-15.29
-15.83
-15.90
-15.95
-16.37
-17.43
-19.25
-21.83
-25.05
-28.62
-32.19
-35.39
-38.05
-40.25
-42.42
-45.09
-48.77
-53.61
-59.49
-66.19
-73.57
-81.59
-90.27
-99.73
-110.03
-121.10
-132.57
-143.86
-154.51
-164.24
-172.98
-180.93
-188.75
-197.50
-208.29
-221.70
-237.28
-253.41
-267.31
-275.01
-272.43
-256.86
-228.06
-188.37
-141.74
-92.18
-42.97
3.96
48.36
90.78
131.31
169.05
202.19
229.02
248.73
261.02
262.72
249.69
220.80
179.55
131.80
82.32
33.90
-11.46
-52.49
-88.41
-118.35
-141.69
-159.76
-173.14
-182.87
-190.00
-194.73
-197.14
-197.34
-195.19
-190.43
-182.96
-172.66
-159.04
-144.62
-130.37
-116.66
-103.52
-90.58
-77.41
-63.84
-50.08
-36.84
-24.92
-14.38
-5.11
3.04
10.38
17.23
23.81
30.13
35.93
40.87
45.06
48.66
51.81
54.66
57.28
59.56
61.27
62.07
61.60
59.95
57.39
54.28
51.04
47.94
45.08
42.37
39.59
36.61
33.60
31.01
29.44
29.45
31.25
34.69
39.15
43.89
48.29
52.27
56.25
61.01
67.31
75.45
85.09
95.33
105.06
113.48
120.43
126.46
132.60
140.04
149.78
162.45
177.98
195.27
212.08
225.16
231.06
227.26
213.15
190.39
162.16
131.90
101.88
72.59
43.14
12.42
-19.55
-51.07
-78.97
-99.76
-110.84
-111.36
-102.23
-85.62
-63.95
-39.16
-12.30
16.20
45.92
76.01
104.96
130.93
152.32
168.32
179.02
185.17
187.72
187.37
184.51
179.28
171.95
163.16
153.83
145.01
137.43
131.28
126.20
121.52
116.58
110.96
104.61
97.70
90.50
83.17
75.70
67.92
59.69
50.93
41.76
32.42
23.22
14.40
6.02
-2.08
-10.25
-18.90
-28.36
-38.70
-49.71
-61.02
-72.18
-82.85
-92.91
-102.51
-112.12
-122.37
-133.80
-146.49
-159.68
-171.62
-179.90
-182.02
-176.21
-161.91
-139.95
-112.14
-80.65
-47.45
-14.08
18.43
49.20
77.47
102.53
123.80
141.01
154.19
163.58
169.61
172.75
173.44
172.08
169.02
164.63
159.30
153.46
147.54
141.83
136.41
131.08
125.46
119.15
111.93
103.85
95.31
86.77
78.62
71.02
63.81
56.69
49.37
41.74
33.95
26.35
19.33
13.04
7.39
1.95
-3.79
-10.19
-17.30
-24.76
-31.95
-38.25
-43.36
-47.32
-50.61
-53.92
-57.97
-63.27
-69.84
-77.11
-83.72
-87.77
-87.16
-80.18
-66.03
-45.10
-18.78
10.98
42.22
73.41
103.45
131.52
156.75
178.08
194.41
204.85
209.15
207.84
202.18
193.78
184.22
174.62
165.46
156.54
147.12
136.20
122.89
106.75
88.14
68.29
49.14
32.92
21.50
15.78
15.42
18.95
24.29
29.46
33.11
34.73
34.41
32.50
29.42
25.87
23.17
23.42
29.02
41.78
61.89
87.67
116.36
145.28
172.83
198.53
222.16
242.74
258.27
266.40
265.87
257.47
243.98
228.95
215.08
203.22
192.45
180.97
167.24
150.64
131.46
110.44
88.34
65.73
43.10
21.03
0.33
-18.04
-33.18
-44.58
-52.22
-56.63
-58.71
-59.36
-59.27
-58.73
-57.60
-55.54
-52.26
-47.70
-42.11
-35.98
-29.93
-24.45
-19.84
-16.18
-13.44
-11.57
-10.65
-10.90
-12.55
-15.82
-20.69
-26.89
-33.95
-41.30
-48.49
-55.29
-61.76
-68.16
-74.79
-81.80
-89.13
-96.43
-103.32
-109.51
-115.00
-120.16
-125.61
-131.97
-139.61
-148.54
-158.39
-168.67
-178.94
-189.06
-199.18
-209.71
-221.21
-234.38
-249.91
-268.09
-288.37
-308.94
-326.70
-338.07
-340.10
-331.63
-313.81
-289.63
-262.89
-236.90
-213.80
-194.44
-178.97
-167.29
-159.30
-154.69
-152.65
-151.80
-150.96
-149.09
-145.66
-140.71
-134.89
-129.14
-124.04
-119.78
-115.99
-112.43
-108.83
-104.97
-100.85
-96.65
-92.68
-89.11
-86.10
-83.64
-82.71
-84.07
-87.94
-94.02
-101.69
-110.34
-119.01
-126.97
-133.58
-141.19
-151.58
-165.10
-180.68
-196.96
-213.17
-228.52
-243.29
-257.52
-276.39
-302.82
-335.59
-370.30
-402.60
-430.81
-454.66
-476.93
-499.59
-531.20
-574.65
-624.71
-670.59
-702.27
-715.43
-709.68
-690.91
-664.71
-645.66
-641.58
-650.45
-663.09
-670.32
-668.20
-655.53
-637.65
-548.64
-363.02
-103.73
170.31
405.20
577.77
676.26
729.27
757.87
775.11
777.34
762.27
736.15
709.69
693.43
693.07
711.84
746.22
792.31
837.23
870.15
884.73
878.72
851.64
803.44
737.77
658.29
571.59
479.71
385.40
293.26
209.46
139.99
88.61
57.35
43.54
42.47
45.72
46.03
39.50
25.98
7.87
-11.59
-28.95
-42.59
-51.90
-58.23
-63.31
-68.29
-73.45
-78.20
-81.81
-83.65
-84.09
-84.22
-85.50
-89.31
-96.33
-106.25
-117.84
-129.54
-140.22
-149.76
-159.03
-169.38
-181.73
-195.70
-209.24
-219.05
-221.44
-213.41
-193.67
-162.97
-123.89
-80.12
-35.44
7.13
45.86
80.54
112.35
143.59
177.02
214.90
257.85
304.09
349.44
388.29
415.32
427.15
423.33
406.09
379.19
346.44
310.72
273.87
237.01
201.10
167.07
135.64
106.91
80.22
54.40
28.35
1.71
-24.71
-48.92
-68.38
-80.86
-85.19
-81.58
-71.45
-56.79
-39.52
-21.09
-2.61
14.79
29.72
40.73
46.94
48.92
49.08
51.43
60.55
80.22
112.20
155.42
205.81
256.81
300.63
330.24
341.45
334.61
314.81
290.36
269.75
258.34
256.46
259.63
261.00
254.47
237.12
209.81
175.87
139.10
102.26
66.64
32.65
0.81
-27.84
-52.03
-71.04
-85.45
-97.25
-109.20
-123.86
-142.76
-165.97
-192.14
-219.13
-244.37
-265.47
-280.55
-288.48
-288.97
-282.66
-270.83
-255.17
-237.42
-219.16
-201.69
-186.07
-173.07
-163.10
-156.12
-151.51
-148.18
-144.76
-140.04
-133.29
-124.51
-114.44
-104.22
-94.93
-87.17
-80.92
-75.60
-70.51
-65.20
-59.66
-54.25
-49.44
-45.50
-42.33
-39.62
-36.99
-34.30
-31.69
-29.52
-28.18
-27.85
-28.47
-29.69
-31.00
-31.91
-32.01
-31.10
-29.11
-26.21
-22.68
-18.94
-15.39
-12.36
-10.02
-8.32
-7.07
-5.97
-4.83
-3.56
-2.42
-1.76
-2.07
-3.70
-6.85
-11.43
-17.03
-23.10
-28.96
-34.00
-37.77
-40.12
-41.24
-41.58
-41.66
-41.92
-42.53
-43.36
-44.01
-44.01
-43.00
-40.84
-37.66
-33.80
-29.69
-25.74
-22.16
-19.00
-16.11
-13.26
-10.27
-7.09
-3.92
-1.12
0.81
1.41
0.38
-2.30
-6.33
-11.12
-15.94
-20.09
-23.12
-24.92
-25.75
-26.12
-26.59
-27.59
-29.33
-31.71
-34.39
-36.96
-38.98
-40.14
-40.26
-39.33
-37.40
-34.62
-31.15
-27.21
-23.06
-19.05
-15.56
-12.92
-11.27
-10.50
-10.38
-10.55
-10.78
-11.00
-11.28
-11.71
-12.27
-12.75
-12.83
-12.17
-10.52
-7.93
-4.64
-1.00
2.62
5.94
8.87
11.38
13.47
15.05
16.00
16.16
15.51
14.22
12.57
10.97
9.69
8.88
8.54
8.58
8.80
9.00
8.86
8.01
6.12
3.05
-1.09
-5.86
-10.62
-14.76
-17.82
-19.62
-20.15
-19.57
-18.13
-16.06
-13.69
-11.39
-9.47
-8.15
-7.42
-7.08
-6.78
-6.22
-5.26
-3.94
-2.53
-1.34
-0.64
-0.58
-1.17
-2.26
-3.60
-4.83
-5.49
-5.17
-3.67
-1.01
2.52
6.50
10.59
14.59
18.43
22.08
25.35
27.97
29.61
30.06
29.33
27.66
25.39
22.86
20.35
18.04
16.10
14.66
13.79
13.44
13.49
13.72
13.82
13.56
12.73
11.23
9.12
6.58
3.86
1.21
-1.29
-3.67
-6.06
-8.52
-10.98
-13.20
-14.82
-15.62
-15.50
-14.64
-13.43
-12.28
-11.65
-11.78
-12.75
-14.39
-16.40
-18.41
-20.00
-20.85
-20.66
-19.38
-17.13
-14.24
-11.20
-8.50
-6.43
-4.93
-3.63
-1.99
0.36
3.48
7.04
10.42
13.04
14.54
14.97
14.62
13.94
13.26
12.73
12.25
11.58
10.43
8.61
6.09
3.00
-0.38
-3.66
-6.49
-8.63
-10.00
-10.74
-11.07
-11.23
-11.43
-11.68
-11.92
-12.04
-11.92
-11.54
-10.96
-10.32
-9.77
-9.48
-9.49
-9.80
-10.36
-11.08
-11.80
-12.37
-12.61
-12.39
-11.65
-10.38
-8.69
-6.73
-4.68
-2.69
-0.87
0.69
1.93
2.80
3.31
3.55
3.69
3.93
4.46
5.43
6.93
8.95
11.43
14.27
17.33
20.47
23.63
26.80
30.01
33.23
36.29
38.87
40.55
40.97
39.94
37.58
34.22
30.24
26.07
22.04
18.38
15.25
12.59
10.22
7.76
4.81
1.09
-3.40
-8.39
-13.36
-17.78
-21.26
-23.61
-24.95
-25.55
-25.86
-26.26
-27.01
-28.03
-28.95
-29.21
-28.28
-25.94
-22.31
-17.87
-13.26
-9.08
-5.76
-3.49
-2.24
-1.76
-1.72
-1.79
-1.69
-1.26
-0.55
0.26
0.84
0.88
0.17
-1.36
-3.43
-5.56
-7.14
-7.65
-6.87
-4.97
-2.34
0.56
3.38
6.02
8.40
10.50
12.21
13.38
13.99
14.10
13.87
13.47
12.95
12.30
11.49
10.63
9.88
9.42
9.28
9.25
9.05
8.40
7.24
5.69
3.99
2.28
0.65
-0.93
-2.42
-3.69
-4.57
-4.93
-4.71
-4.08
-3.32
-2.68
-2.34
-2.34
-2.64
-3.20
-3.98
-4.97
-6.10
-7.26
-8.28
-9.00
-9.38
-9.48
-9.48
-9.58
-9.90
-10.54
-11.50
-12.80
-14.43
-16.27
-18.02
-19.27
-19.62
-18.89
-17.22
-15.06
-12.90
-11.11
-9.80
-8.81
-7.94
-6.99
-5.86
-4.53
-2.94
-1.05
1.09
3.40
5.74
7.93
9.84
11.55
13.20
14.95
16.93
19.09
21.29
23.29
24.88
25.87
26.14
25.67
24.52
22.79
20.59
18.02
15.08
11.79
8.18
4.44
0.97
-1.76
-3.41
-4.00
-3.83
-3.38
-3.20
-3.74
-5.20
-7.38
-9.81
-11.91
-13.24
-13.53
-12.79
-11.39
-10.04
-9.56
-10.33
-12.27
-14.95
-17.95
-20.56
-22.32
-23.31
-24.30
-26.54
-30.46
-35.86
-41.99
-48.41
-54.17
-58.80
-62.79
-67.98
-76.91
-90.70
-109.62
-133.65
-163.64
-198.48
-235.77
-272.11
-304.25
-329.57
-344.62
-347.70
-339.93
-325.86
-307.09
-281.99
-246.71
-198.18
-135.95
-59.66
27.96
120.62
208.01
283.70
344.83
391.09
422.21
426.21
396.57
338.18
279.31
229.25
190.22
158.87
135.77
121.72
117.33
127.33
155.21
199.92
253.41
308.36
358.95
401.30
432.05
432.27
393.27
320.41
230.11
137.63
53.65
-17.22
-74.25
-119.22
-154.69
-179.55
-192.83
-196.08
-194.39
-191.92
-190.95
-191.85
-194.24
-197.39
-198.89
-195.75
-187.35
-176.15
-164.90
-155.54
-148.95
-145.50
-145.21
-146.57
-148.22
-149.84
-152.50
-157.32
-164.73
-174.41
-185.08
-195.30
-203.05
-208.59
-212.07
-214.03
-215.02
-215.35
-215.09
-213.80
-211.18
-207.18
-202.20
-196.85
-191.93
-188.10
-185.81
-185.23
-185.17
-184.67
-183.31
-181.39
-179.19
-176.70
-173.44
-168.66
-161.56
-148.40
-126.70
-96.40
-59.96
-20.84
17.97
54.56
87.84
117.24
148.69
186.34
230.20
276.00
318.34
353.77
381.79
404.11
423.44
452.53
500.65
569.49
652.73
740.79
825.94
904.05
973.76
1035.02
1101.08
1181.17
1275.33
1373.97
1464.04
1535.72
1584.70
1610.97
1535.93
1321.75
983.33
583.99
196.03
-134.48
-393.44
-586.78
-727.99
-830.75
-893.17
-913.85
-897.97
-858.47
-810.94
-767.29
-733.47
-710.59
-696.79
-679.15
-647.39
-599.12
-539.82
-478.17
-420.35
-368.48
-322.61
-283.23
-250.18
-225.04
-211.24
-210.90
-222.44
-240.22
-257.54
-270.06
-276.60
-274.39
-259.70
-230.11
-185.84
-131.58
-75.35
-25.89
10.65
32.69
43.89
50.08
51.33
46.79
33.74
9.85
-24.62
-65.82
-106.64
-137.91
-149.93
-135.08
-89.85
-18.29
67.59
150.14
211.09
237.59
226.33
183.99
123.85
60.96
7.01
-31.21
-50.98
-52.03
-35.28
-3.59
37.08
77.14
105.73
114.04
98.61
62.70
14.11
-38.09
-87.07
-129.43
-164.07
-189.51
-202.74
-200.26
-180.64
-147.14
-107.54
-71.70
-47.21
-35.91
-33.22
-30.96
-22.26
-5.72
13.66
27.62
29.17
17.44
-0.79
-14.17
-12.50
6.78
36.51
62.66
72.20
58.89
27.05
-9.67
-34.52
-34.22
-4.81
47.60
109.98
169.31
215.69
245.31
260.98
270.01
281.77
303.28
336.57
377.90
420.80
455.88
473.95
469.17
440.21
391.41
329.90
263.53
188.74
111.10
40.64
-13.14
-42.73
-53.49
-53.23
-49.48
-47.72
-49.79
-52.49
-51.93
-45.52
-32.87
-16.24
1.76
18.27
31.04
38.87
42.96
44.15
42.72
38.54
31.28
21.42
8.91
-7.06
-26.91
-48.08
-65.43
-71.96
-61.44
-32.28
10.96
57.83
95.98
116.56
118.20
106.17
89.01
74.04
64.39
59.47
56.89
54.95
53.77
54.69
58.36
63.63
67.90
68.27
63.19
53.08
40.27
27.84
18.33
12.80
10.61
9.95
8.71
5.62
0.64
-5.15
-10.17
-13.12
-13.61
-12.20
-10.11
-8.64
-8.56
-9.89
-12.03
-14.07
-15.35
-15.69
-15.48
-15.41
-16.19
-18.18
-21.32
-25.16
-29.14
-32.86
-36.26
-39.65
-43.52
-48.35
-54.33
-61.34
-68.93
-76.58
-83.91
-90.88
-97.81
-105.23
-113.66
-123.35
-134.17
-145.65
-157.17
-168.25
-178.72
-188.77
-199.01
-210.31
-223.71
-240.02
-259.32
-280.36
-300.41
-315.73
-322.78
-319.41
-305.86
-284.65
-259.65
-234.75
-212.71
-194.81
-181.13
-171.17
-164.26
-159.77
-157.03
-155.25
-153.69
-151.67
-148.78
-144.69
-139.11
-131.91
-123.10
-113.10
-102.69
-92.83
-84.35
-77.63
-72.37
-67.53
-61.46
-52.28
-38.39
-19.12
4.77
31.04
56.49
77.90
92.89
100.54
101.20
96.14
87.04
75.74
64.23
54.60
48.52
46.72
48.48
51.77
54.06
53.36
49.16
42.49
35.28
29.36
25.66
24.03
23.53
23.15
22.20
20.47
18.05
15.03
11.37
6.91
1.58
-4.48
-10.81
-16.75
-21.71
-25.38
-27.89
-29.67
-31.25
-32.96
-34.83
-36.53
-37.54
-37.34
-35.54
-32.00
-26.67
-19.56
-10.73
-0.44
10.65
21.53
30.93
37.78
41.55
42.45
41.27
39.01
36.49
34.14
31.99
29.86
27.57
24.99
22.07
18.76
15.10
11.23
7.45
4.16
1.76
0.45
0.24
0.87
1.98
3.08
3.72
3.47
2.08
-0.45
-3.86
-7.63
-11.15
-13.83
-15.22
-15.14
-13.65
-11.09
-8.05
-5.29
-3.53
-3.30
-4.71
-7.46
-10.86
-14.14
-16.67
-18.26
-19.04
-19.35
-19.49
-19.56
-19.47
-18.95
-17.83
-16.00
-13.54
-10.59
-7.31
-3.83
-0.27
3.12
6.08
8.25
9.38
9.39
8.50
7.10
5.68
4.61
4.01
3.71
3.36
2.66
1.48
-0.02
-1.52
-2.77
-3.69
-4.52
-5.59
-7.21
-9.43
-11.90
-14.04
-15.26
-15.24
-13.96
-11.79
-9.23
-6.77
-4.68
-2.91
-1.15
1.13
4.46
9.26
15.50
22.65
29.61
35.09
37.87
37.35
33.70
27.84
21.15
15.01
10.45
7.92
7.37
8.34
10.11
11.95
13.13
13.07
11.49
8.43
4.29
-0.30
-4.48
-7.55
-9.00
-8.80
-7.38
-5.46
-3.82
-2.99
-3.05
-3.67
-4.33
-4.54
-4.10
-3.08
-1.75
-0.43
0.62
1.28
1.49
1.35
0.98
0.61
0.42
0.54
0.94
1.53
2.18
2.77
3.29
3.78
4.31
4.90
5.52
6.10
6.56
6.75
6.52
5.66
4.05
1.70
-1.23
-4.37
-7.34
-9.81
-11.59
-12.64
-13.06
-12.93
-12.40
-11.53
-10.41
-9.04
-7.37
-5.26
-2.56
0.76
4.61
8.72
12.77
16.48
19.66
22.25
24.25
25.65
26.36
26.31
25.48
24.02
22.24
20.53
19.17
18.30
17.80
17.41
16.78
15.69
14.08
12.05
9.85
7.67
5.67
3.92
2.36
0.94
-0.46
-1.85
-3.22
-4.46
-5.45
-6.09
-6.41
-6.52
-6.55
-6.64
-6.79
-6.89
-6.81
-6.43
-5.74
-4.80
-3.78
-2.83
-2.11
-1.77
-1.89
-2.56
-3.84
-5.73
-8.10
-10.64
-12.84
-14.17
-14.19
-12.74
-10.04
-6.68
-3.35
-0.66
1.05
1.85
1.93
1.55
0.92
0.14
-0.68
-1.36
-1.71
-1.56
-0.86
0.20
1.32
2.24
2.83
3.15
3.44
3.88
4.58
5.49
6.48
7.42
8.30
9.05
9.60
9.79
9.33
8.09
6.14
3.88
1.97
1.09
1.53
3.14
5.29
7.16
8.06
7.64
6.00
3.55
0.94
-1.26
-2.57
-2.79
-2.05
-0.75
0.48
1.00
0.46
-1.05
-3.06
-4.82
-5.67
-5.38
-4.09
-2.34
-0.68
0.56
1.43
2.37
3.98
6.75
10.85
16.02
21.60
26.77
30.75
32.95
33.04
31.00
27.10
21.82
15.88
10.03
4.95
1.03
-1.69
-3.42
-4.53
-5.22
-5.58
-5.48
-4.78
-3.43
-1.66
0.13
1.42
1.85
1.40
0.51
0.11
1.30
4.97
11.32
19.61
28.24
35.19
38.69
37.67
32.07
22.77
11.32
-0.56
-11.29
-19.72
-25.40
-28.55
-29.96
-30.77
-32.06
-34.48
-38.10
-42.43
-46.59
-49.72
-51.11
-50.41
-47.69
-43.29
-37.68
-31.24
-24.29
-17.02
-9.62
-2.37
4.32
10.01
14.33
17.15
18.59
18.95
18.67
18.16
17.64
17.04
16.15
14.76
12.85
10.64
8.45
6.54
5.00
3.57
1.78
-0.86
-4.51
-8.96
-13.65
-18.10
-21.94
-25.16
-28.13
-31.48
-35.79
-41.23
-47.50
-53.84
-59.89
-65.26
-69.89
-74.27
-79.44
-86.45
-95.76
-106.90
-118.63
-130.37
-141.23
-150.55
-158.31
-165.30
-172.74
-181.93
-194.14
-210.15
-231.13
-255.24
-277.37
-290.99
-290.80
-275.42
-248.04
-215.13
-183.23
-157.38
-136.42
-114.22
-84.10
-42.85
7.26
59.90
107.72
157.83
207.89
250.08
276.95
285.96
279.54
261.88
237.68
211.47
186.07
163.14
144.85
133.78
131.18
137.32
150.65
169.21
191.28
214.27
234.33
248.63
256.26
251.34
230.39
193.52
145.95
94.95
46.73
6.74
-25.41
-50.09
-67.38
-76.77
-78.84
-73.37
-59.91
-37.76
-5.84
37.08
88.56
142.50
191.30
227.69
249.25
257.48
255.74
248.15
238.44
229.55
223.06
226.22
235.45
246.48
255.04
256.62
248.11
228.88
201.58
171.48
144.90
125.37
111.49
101.80
93.01
82.67
71.81
65.79
72.25
96.84
138.23
188.43
234.61
263.29
266.20
243.42
202.54
154.57
109.22
71.29
41.66
19.05
1.77
-10.73
-18.18
-20.94
-21.05
-22.04
-27.81
-40.31
-58.78
-80.58
-102.22
-121.03
-136.23
-149.04
-161.65
-176.11
-193.04
-211.38
-229.20
-244.84
-257.87
-269.54
-282.10
-297.50
-316.00
-335.46
-351.41
-358.11
-350.11
-324.02
-280.06
-222.69
-160.03
-101.96
-57.38
-31.71
-25.50
-34.92
-53.70
-75.45
-95.45
-111.10
-121.31
-125.62
-123.74
-115.80
-102.71
-86.41
-69.29
-53.34
-39.47
-27.39
-16.01
-4.34
7.89
19.97
30.59
38.49
43.08
44.65
44.23
43.02
41.78
40.42
38.13
33.69
26.05
14.70
-0.10
-17.53
-36.40
-55.53
-74.00
-91.30
-107.40
-122.80
-138.29
-154.69
-172.46
-191.23
-209.71
-225.93
-237.77
-243.68
-243.25
-237.21
-227.17
-214.90
-201.82
-188.63
-175.47
-162.17
-148.59
-134.82
-121.02
-107.22
-93.20
-78.54
-62.89
-46.28
-29.18
-12.27
3.97
19.57
35.10
51.37
68.94
87.76
107.19
126.31
144.46
161.49
177.67
193.09
207.17
218.42
224.74
224.25
216.18
201.30
181.79
160.53
140.05
121.90
106.32
92.49
78.95
64.07
46.45
25.22
0.53
-26.08
-51.54
-71.69
-82.32
-80.55
-65.95
-40.80
-9.41
23.28
53.23
78.25
98.10
113.72
126.37
136.78
144.99
150.64
153.44
153.54
151.56
148.33
144.51
140.38
135.84
130.67
124.78
118.42
112.03
106.11
100.87
96.11
91.33
85.89
79.40
71.82
63.45
54.81
46.28
38.03
29.94
21.73
13.19
4.26
-4.91
-14.07
-22.94
-31.37
-39.27
-46.56
-53.16
-58.97
-64.00
-68.46
-72.73
-77.25
-82.31
-87.80
-93.22
-97.64
-99.94
-99.03
-94.12
-84.89
-71.66
-55.23
-36.79
-17.57
1.44
19.77
37.28
54.12
70.31
85.63
99.64
111.84
121.86
129.66
135.45
139.57
142.38
144.10
144.83
144.59
143.30
140.78
136.72
130.76
122.57
112.03
99.39
85.16
70.05
54.64
39.31
24.22
9.47
-4.72
-17.90
-29.51
-39.13
-46.57
-51.95
-55.64
-58.06
-59.58
-60.53
-61.17
-61.86
-62.98
-64.79
-67.47
-70.93
-74.82
-78.51
-81.14
-81.77
-79.63
-74.41
-66.31
-56.13
-44.95
-33.80
-23.36
-13.82
-4.94
3.65
12.23
20.86
29.23
36.87
43.27
48.02
50.92
52.08
51.83
50.67
49.14
47.66
46.54
45.86
45.56
45.45
45.28
44.77
43.68
41.90
39.42
36.36
32.86
28.92
24.47
19.31
13.29
6.49
-0.70
-7.72
-14.02
-19.30
-23.72
-27.61
-31.39
-35.20
-38.82
-41.87
-43.94
-44.98
-45.30
-45.49
-46.14
-47.66
-50.12
-53.28
-56.61
-59.40
-60.83
-60.11
-56.71
-50.54
-42.12
-32.46
-22.81
-14.28
-7.57
-2.81
0.21
1.82
2.29
1.78
0.37
-1.71
-4.13
-6.53
-8.63
-10.39
-11.97
-13.64
-15.64
-18.08
-20.95
-24.23
-27.94
-32.14
-36.81
-41.94
-47.28
-52.53
-57.38
-61.55
-64.92
-67.51
-69.50
-71.17
-72.87
-74.91
-77.45
-80.46
-83.67
-86.79
-89.62
-92.13
-94.48
-96.81
-99.12
-101.21
-102.80
-103.68
-103.91
-103.80
-103.85
-104.61
-106.52
-109.86
-114.60
-120.05
-124.74
-126.47
-122.74
-111.53
-92.22
-65.84
-34.87
-2.50
28.47
56.24
80.15
100.29
116.94
130.14
139.72
145.55
147.89
147.42
145.12
141.95
138.53
135.09
131.45
127.24
122.16
115.99
108.73
100.42
91.14
81.00
70.22
59.12
48.23
38.10
29.15
21.53
14.98
8.90
2.56
-4.70
-13.28
-23.16
-34.00
-45.22
-56.14
-66.23
-75.21
-83.03
-89.86
-95.87
-101.13
-105.59
-109.17
-111.86
-113.88
-115.63
-117.48
-119.75
-122.43
-125.26
-127.61
-128.54
-126.95
-121.74
-112.19
-98.21
-80.58
-60.70
-40.24
-20.75
-3.32
11.42
23.20
31.87
37.39
39.96
40.16
38.96
37.50
36.85
37.72
40.39
44.71
50.31
56.65
63.34
70.20
77.34
85.09
93.78
103.47
113.68
123.45
131.48
136.55
137.67
134.25
126.01
112.93
95.30
73.75
49.39
23.68
-1.74
-25.51
-46.77
-65.29
-81.36
-95.52
-108.47
-120.88
-133.43
-146.67
-160.87
-175.75
-190.28
-202.64
-210.58
-211.96
-205.30
-190.25
-167.58
-139.01
-106.68
-72.69
-38.80
-6.29
23.96
51.28
75.18
95.34
111.69
124.55
134.57
142.60
149.44
155.47
160.63
164.44
166.24
165.48
161.96
155.90
147.83
138.46
128.41
118.19
108.04
97.98
87.88
77.54
66.88
55.93
44.97
34.35
24.46
15.50
7.43
-0.01
-7.22
-14.49
-21.92
-29.38
-36.66
-43.60
-50.27
-56.96
-64.12
-72.20
-81.50
-92.02
-103.39
-114.84
-125.23
-133.07
-136.91
-135.55
-128.42
-115.84
-98.89
-79.18
-58.47
-38.18
-19.28
-2.33
12.31
24.39
33.65
40.04
43.89
45.92
47.08
48.20
49.67
51.42
53.06
54.26
55.01
55.74
57.21
60.27
65.65
73.80
84.83
98.50
114.13
130.58
146.36
159.86
169.72
175.23
176.42
173.97
168.87
162.04
154.05
145.15
135.43
125.01
114.12
103.11
92.31
81.87
71.73
61.63
51.31
40.52
29.13
17.24
5.18
-6.42
-16.66
-24.53
-29.03
-29.43
-25.46
-17.38
-5.91
7.91
23.00
38.41
53.45
67.64
80.66
92.18
101.84
109.31
114.38
117.10
117.88
117.39
116.36
115.42
114.90
114.79
114.79
114.46
113.36
111.24
108.00
103.69
98.46
92.43
85.70
78.30
70.30
61.77
52.90
43.85
34.78
25.83
16.96
8.14
-0.69
-9.54
-18.27
-26.65
-34.25
-40.70
-45.74
-49.43
-52.14
-54.56
-57.48
-61.56
-67.03
-73.54
-80.14
-85.48
-88.22
-87.23
-82.05
-72.90
-60.64
-46.51
-31.88
-17.84
-5.15
5.78
14.76
21.59
26.00
27.71
26.54
22.54
16.10
7.84
-1.49
-11.20
-20.72
-29.64
-37.63
-44.59
-50.56
-55.81
-60.67
-65.42
-70.12
-74.55
-78.28
-80.83
-81.82
-81.06
-78.59
-74.71
-69.84
-64.53
-59.31
-54.64
-50.77
-47.77
-45.54
-43.90
-42.72
-41.95
-41.71
-42.23
-43.83
-46.81
-51.38
-57.39
-64.27
-70.98
-76.17
-78.50
-77.04
-71.50
-62.40
-50.83
-38.19
-25.81
-14.69
-5.44
1.64
6.47
9.06
9.45
7.77
4.23
-0.83
-6.94
-13.62
-20.42
-26.99
-33.10
-38.62
-43.46
-47.55
-50.81
-53.19
-54.60
-55.00
-54.37
-52.67
-49.87
-45.89
-40.63
-34.08
-26.37
-17.84
-9.04
-0.61
6.92
13.20
18.20
22.07
25.09
27.45
29.25
30.55
31.36
31.81
31.96
31.88
31.49
30.64
29.15
26.92
24.11
21.01
18.04
15.47
13.31
11.19
8.50
4.68
-0.48
-6.70
-13.26
-19.24
-23.91
-26.93
-28.35
-28.47
-27.56
-25.74
-23.10
-19.80
-16.24
-13.02
-10.78
-9.85
-10.18
-11.36
-12.87
-14.33
-15.63
-16.92
-18.45
-20.31
-22.49
-24.82
-27.13
-29.30
-31.32
-33.21
-35.02
-36.79
-38.56
-40.29
-41.87
-42.99
-43.26
-42.37
-40.14
-36.72
-32.49
-28.00
-23.68
-19.84
-16.52
-13.53
-10.57
-7.33
-3.60
0.70
5.40
10.15
14.48
18.00
20.43
21.74
22.04
21.52
20.25
18.24
15.43
11.87
7.82
3.67
-0.12
-3.20
-5.45
-6.96
-7.91
-8.43
-8.58
-8.36
-7.80
-6.99
-6.12
-5.43
-5.12
-5.23
-5.67
-6.25
-6.78
-7.17
-7.43
-7.70
-8.17
-8.96
-10.12
-11.55
-13.12
-14.62
-15.84
-16.64
-16.91
-16.67
-16.06
-15.42
-15.18
-15.73
-17.27
-19.56
-21.92
-23.34
-22.82
-19.73
-14.21
-7.25
-0.42
4.57
6.44
4.81
0.22
-6.01
-12.29
-17.19
-19.76
-19.65
-17.13
-12.85
-7.67
-2.43
2.22
5.98
8.85
11.11
13.15
15.28
17.60
19.93
21.91
23.16
23.36
22.40
20.36
17.51
14.11
10.45
6.70
2.96
-0.81
-4.67
-8.72
-13.00
-17.50
-22.08
-26.46
-30.30
-33.21
-34.89
-35.15
-34.06
-31.87
-29.00
-25.94
-23.07
-20.63
-18.64
-16.98
-15.47
-13.86
-11.97
-9.59
-6.65
-3.20
0.50
4.03
6.92
8.75
9.40
8.99
7.93
6.74
5.97
5.94
6.76
8.29
10.21
12.21
13.97
15.30
16.14
16.58
16.82
17.07
17.48
18.06
18.61
18.81
18.26
16.74
14.29
11.28
8.20
5.57
3.70
2.64
2.20
1.99
1.57
0.54
-1.29
-3.91
-7.06
-10.32
-13.24
-15.49
-16.95
-17.68
-17.87
-17.70
-17.27
-16.63
-15.81
-14.80
-13.55
-11.98
-9.93
-7.30
-4.14
-0.72
2.48
4.89
6.00
5.59
3.71
0.69
-3.05
-7.12
-11.30
-15.51
-19.78
-24.09
-28.38
-32.49
-36.22
-39.44
-42.09
-44.21
-45.87
-47.23
-48.51
-49.94
-51.74
-54.01
-56.72
-59.70
-62.82
-66.14
-69.97
-74.84
-81.24
-89.52
-99.60
-111.15
-123.64
-136.69
-150.15
-164.16
-178.96
-194.84
-211.86
-229.90
-248.50
-266.77
-283.34
-296.35
-303.82
-304.09
-296.32
-280.64
-258.06
-230.07
-198.12
-163.55
-127.53
-91.34
-56.38
-23.99
4.93
30.24
52.61
73.32
93.82
115.47
139.17
165.25
193.14
221.23
247.03
267.69
280.81
285.15
281.05
270.15
254.69
236.70
217.41
197.30
176.38
154.71
132.64
110.80
89.85
70.25
52.16
35.55
20.34
6.58
-5.57
-15.88
-24.33
-31.18
-37.04
-42.64
-48.58
-55.05
-61.67
-67.65
-72.03
-74.02
-73.22
-69.71
-63.97
-56.76
-48.90
-41.17
-34.04
-27.36
-20.29
-11.26
1.61
19.88
44.35
74.75
110.17
149.49
191.81
236.20
281.33
324.90
363.61
393.81
412.51
418.25
411.42
393.75
367.45
334.53
296.62
255.18
212.00
169.28
129.44
94.45
65.31
41.89
23.23
8.12
-4.35
-14.39
-21.79
-26.24
-27.84
-27.26
-25.63
-24.21
-23.94
-25.22
-27.83
-31.17
-34.51
-37.23
-38.94
-39.54
-39.08
-37.75
-35.70
-33.07
-29.98
-26.67
-23.51
-20.99
-19.53
-19.36
-20.35
-22.14
-24.18
-25.94
-26.92
-26.67
-24.75
-20.76
-14.60
-6.59
2.43
11.28
18.81
24.24
27.37
28.56
28.47
27.69
26.65
25.47
24.19
22.86
21.59
20.51
19.65
18.79
17.59
15.74
13.16
10.17
7.33
5.17
3.95
3.52
3.41
3.13
2.40
1.27
-0.03
-1.29
-2.47
-3.73
-5.26
-7.21
-9.55
-12.11
-14.73
-17.32
-19.90
-22.57
-25.37
-28.23
-30.98
-33.35
-35.05
-35.94
-36.05
-35.63
-35.06
-34.82
-35.34
-36.89
-39.49
-42.75
-45.94
-47.98
-47.76
-44.45
-37.87
-28.57
-17.68
-6.62
3.37
11.50
17.50
21.51
23.86
24.79
24.47
22.95
20.26
16.57
12.12
7.27
2.38
-2.30
-6.64
-10.56
-14.05
-17.05
-19.46
-21.22
-22.31
-22.91
-23.23
-23.56
-24.12
-25.01
-26.20
-27.56
-28.88
-29.99
-30.77
-31.14
-31.08
-30.60
-29.78
-28.69
-27.49
-26.34
-25.39
-24.82
-24.73
-25.25
-26.48
-28.43
-31.03
-34.05
-37.23
-40.25
-42.99
-45.46
-47.86
-50.35
-52.93
-55.26
-56.69
-56.42
-53.77
-48.41
-40.52
-30.79
-20.17
-9.64
0.02
8.35
15.20
20.54
24.35
26.62
27.39
26.82
25.29
23.19
20.89
18.58
16.22
13.57
10.38
6.52
2.02
-2.91
-8.07
-13.29
-18.53
-23.84
-29.30
-35.01
-41.01
-47.33
-54.00
-61.03
-68.48
-76.40
-84.83
-93.76
-103.10
-112.79
-122.78
-133.05
-143.43
-153.53
-162.65
-169.90
-174.48
-175.97
-174.58
-171.13
-166.79
-162.61
-159.33
-157.18
-155.87
-154.80
-153.11
-149.84
-143.88
-134.17
-119.76
-100.07
-75.04
-45.14
-11.24
25.56
64.12
103.22
141.47
177.20
208.54
233.76
251.64
261.88
265.19
263.05
257.23
249.26
240.11
230.06
219.03
206.80
193.33
178.88
163.90
148.94
134.42
120.65
107.81
96.08
85.62
76.57
68.83
62.04
55.60
48.79
41.03
32.14
22.33
12.17
2.42
-6.36
-13.94
-20.52
-26.65
-32.95
-39.82
-47.24
-54.75
-61.60
-67.06
-70.79
-72.91
-74.09
-75.21
-77.08
-80.14
-84.21
-88.46
-91.51
-91.68
-87.40
-77.62
-62.10
-41.61
-17.79
7.30
31.64
53.72
72.69
88.26
100.37
108.93
113.76
114.80
112.36
107.19
100.40
93.11
86.14
79.86
74.28
69.30
64.91
61.15
58.08
55.57
53.32
50.98
48.26
45.11
41.63
37.98
34.30
30.63
26.95
23.28
19.69
16.26
13.04
10.00
6.96
3.72
0.09
-3.99
-8.49
-13.27
-18.10
-22.74
-27.01
-30.83
-34.28
-37.63
-41.20
-45.26
-49.87
-54.75
-59.22
-62.29
-62.92
-60.19
-53.65
-43.39
-30.07
-14.78
1.23
16.71
30.68
42.41
51.51
57.82
61.48
62.84
62.47
60.98
58.82
56.22
53.18
49.56
45.27
40.45
35.38
30.50
26.14
22.35
18.98
15.69
12.24
8.55
4.86
1.57
-0.84
-2.00
-1.74
-0.22
2.18
4.88
7.27
8.84
9.26
8.39
6.26
2.96
-1.43
-6.83
-13.13
-20.16
-27.66
-35.33
-42.83
-49.90
-56.36
-62.17
-67.47
-72.52
-77.59
-82.74
-87.62
-91.37
-92.78
-90.66
-84.29
-73.70
-59.71
-43.74
-27.29
-11.64
2.43
14.58
24.72
32.87
39.02
43.11
45.17
45.42
44.21
42.02
39.25
36.13
32.71
29.01
25.12
21.29
17.97
15.51
14.17
13.88
14.38
15.26
16.15
16.70
16.63
15.65
13.52
10.12
5.53
0.05
-5.84
-11.55
-16.67
-20.98
-24.49
-27.38
-29.82
-31.86
-33.42
-34.27
-34.28
-33.47
-32.09
-30.48
-29.07
-28.18
-28.06
-28.90
-30.84
-33.85
-37.57
-41.22
-43.72
-44.01
-41.50
-36.30
-29.22
-21.33
-13.66
-6.78
-0.82
4.36
8.88
12.79
16.04
18.64
20.76
22.70
24.75
27.11
29.69
32.17
34.13
35.17
35.05
33.80
31.61
28.73
25.35
21.45
16.89
11.57
5.68
-0.34
-5.81
-10.13
-12.99
-14.39
-14.66
-14.28
-13.62
-12.91
-12.20
-11.44
-10.56
-9.63
-8.76
-8.17
-8.07
-8.61
-9.83
-11.66
-13.97
-16.63
-19.58
-22.72
-26.05
-29.53
-33.12
-36.62
-39.72
-41.84
-42.26
-40.30
-35.58
-28.29
-19.11
-9.14
0.53
9.05
15.95
21.05
24.29
25.68
25.23
23.16
19.95
16.30
12.99
10.62
9.45
9.35
9.90
10.63
11.15
11.32
11.21
11.00
10.82
10.68
10.44
9.90
8.89
7.42
5.57
3.46
1.21
-1.19
-3.81
-6.74
-9.96
-13.36
-16.72
-19.81
-22.43
-24.53
-26.26
-27.81
-29.44
-31.26
-33.24
-35.25
-37.18
-38.98
-40.70
-42.47
-44.38
-46.50
-48.79
-51.13
-53.22
-54.54
-54.29
-51.61
-45.82
-36.74
-24.82
-11.11
3.05
16.38
27.86
36.87
43.08
46.45
47.20
45.83
43.06
39.81
36.85
34.66
33.28
32.46
31.84
31.10
30.17
29.14
28.27
27.71
27.53
27.57
27.65
27.48
26.85
25.68
23.91
21.57
18.70
15.34
11.55
7.44
3.19
-0.96
-4.74
-8.05
-10.91
-13.55
-16.29
-19.30
-22.58
-25.88
-28.85
-31.18
-32.80
-33.81
-34.47
-35.10
-35.91
-37.02
-38.43
-39.98
-41.25
-41.58
-40.04
-35.79
-28.35
-17.92
-5.40
7.76
20.10
30.53
38.50
44.08
47.59
49.44
49.93
49.27
47.71
45.57
43.16
40.70
38.25
35.62
32.66
29.23
25.40
21.42
17.67
14.45
11.92
10.02
8.40
6.55
3.94
0.21
-4.67
-10.33
-16.15
-21.43
-25.69
-28.78
-30.87
-32.32
-33.49
-34.59
-35.71
-36.79
-37.77
-38.62
-39.25
-39.57
-39.46
-38.88
-37.87
-36.56
-35.12
-33.74
-32.56
-31.69
-31.22
-31.14
-31.27
-31.14
-30.04
-27.23
-22.18
-14.83
-5.62
4.58
14.83
24.33
32.62
39.54
45.05
49.05
51.32
51.57
49.66
45.87
40.90
35.73
31.28
28.08
26.10
24.89
23.75
22.21
20.13
17.73
15.38
13.41
11.87
10.68
9.60
8.49
7.28
5.99
4.65
3.17
1.45
-0.68
-3.19
-5.92
-8.56
-10.81
-12.50
-13.70
-14.67
-15.72
-17.00
-18.48
-19.96
-21.23
-22.19
-22.94
-23.64
-24.51
-25.65
-27.04
-28.49
-29.70
-30.28
-29.69
-27.44
-23.13
-16.74
-8.72
0.10
8.73
16.41
22.76
27.85
31.95
35.30
37.86
39.34
39.42
38.00
35.39
32.19
29.11
26.65
24.95
23.80
22.81
21.65
20.20
18.53
16.81
15.18
13.57
11.78
9.61
7.00
4.18
1.55
-0.50
-1.76
-2.34
-2.62
-2.93
-3.41
-3.89
-4.06
-3.73
-2.99
-2.25
-2.01
-2.65
-4.13
-6.14
-8.19
-9.95
-11.31
-12.42
-13.56
-14.99
-16.83
-19.01
-21.32
-23.36
-24.67
-24.71
-23.05
-19.41
-13.83
-6.74
1.15
8.89
15.61
20.75
24.16
26.02
26.69
26.51
25.55
23.67
20.66
16.44
11.27
5.72
0.49
-3.80
-6.84
-8.68
-9.64
-10.11
-10.44
-10.87
-11.49
-12.29
-13.26
-14.31
-15.40
-16.44
-17.41
-18.36
-19.44
-20.75
-22.34
-24.05
-25.61
-26.77
-27.40
-27.55
-27.48
-27.42
-27.60
-28.07
-28.70
-29.34
-29.77
-29.90
-29.75
-29.47
-29.34
-29.67
-30.68
-32.33
-34.33
-36.14
-37.09
-36.61
-34.27
-29.93
-23.80
-16.47
-8.71
-1.42
4.74
9.46
12.86
15.34
17.39
19.25
20.84
21.90
22.10
21.37
19.94
18.29
16.94
16.20
16.12
16.50
17.07
17.66
18.22
18.83
19.45
19.89
19.78
18.73
16.54
13.36
9.62
5.93
2.87
0.72
-0.53
-1.23
-1.81
-2.69
-4.08
-5.91
-7.89
-9.63
-10.79
-11.18
-10.83
-9.98
-8.92
-7.95
-7.31
-7.13
-7.45
-8.21
-9.18
-10.04
-10.31
-9.47
-7.10
-3.00
2.64
9.20
15.77
21.43
25.53
27.92
28.94
29.21
29.37
29.75
30.35
30.89
31.09
30.77
29.98
28.92
27.75
26.56
25.36
24.12
22.91
21.83
20.96
20.27
19.59
18.64
17.21
15.24
12.89
10.46
8.28
6.54
5.21
4.16
3.16
2.09
0.91
-0.28
-1.39
-2.38
-3.31
-4.28
-5.38
-6.63
-8.02
-9.46
-10.90
-12.29
-13.62
-14.88
-16.03
-17.05
-17.94
-18.63
-19.06
-19.04
-18.34
-16.73
-14.05
-10.33
-5.77
-0.75
4.31
8.98
12.99
16.19
18.62
20.36
21.45
21.81
21.26
19.65
16.99
13.54
9.81
6.33
3.50
1.46
0.10
-0.83
-1.55
-2.10
-2.50
-2.67
-2.66
-2.61
-2.69
-3.02
-3.63
-4.51
-5.60
-6.91
-8.44
-10.16
-12.08
-14.11
-16.14
-17.97
-19.42
-20.30
-20.53
-20.13
-19.30
-18.34
-17.64
-17.49
-17.93
-18.81
-19.81
-20.70
-21.36
-21.90
-22.48
-23.22
-24.03
-24.60
-24.47
-23.18
-20.47
-16.36
-11.13
-5.28
0.64
6.10
10.79
14.51
17.32
19.28
20.54
21.11
20.98
20.13
18.54
16.36
13.79
11.14
8.64
6.50
4.75
3.35
2.24
1.32
0.55
-0.10
-0.68
-1.31
-2.10
-3.10
-4.26
-5.33
-6.06
-6.29
-6.07
-5.67
-5.46
-5.74
-6.53
-7.67
-8.79
-9.73
-10.48
-11.26
-12.33
-13.81
-15.63
-17.57
-19.43
-21.08
-22.57
-24.04
-25.64
-27.53
-29.77
-32.32
-35.00
-37.55
-39.58
-40.74
-40.72
-39.39
-36.86
-33.43
-29.58
-25.84
-22.69
-20.43
-19.18
-18.81
-19.06
-19.65
-20.25
-20.56
-20.24
-19.04
-16.75
-13.45
-9.41
-5.08
-0.94
2.65
5.45
7.42
8.51
8.75
8.11
6.57
4.15
0.98
-2.73
-6.68
-10.51
-13.98
-17.00
-19.60
-21.97
-24.26
-26.50
-28.46
-29.78
-30.00
-28.74
-25.66
-20.54
-13.33
-4.25
5.98
16.24
25.11
31.38
34.40
34.32
31.95
28.29
24.20
20.10
16.18
12.60
9.74
8.14
8.27
10.15
13.33
17.00
20.31
22.75
24.23
24.97
25.27
25.27
24.84
23.68
21.53
18.35
14.44
10.31
6.53
3.47
1.15
-0.68
-2.45
-4.58
-7.27
-10.34
-13.28
-15.39
-15.97
-14.63
-11.42
-6.84
-1.78
2.77
6.01
7.56
7.79
7.89
9.84
16.04
28.67
48.90
76.24
108.49
142.27
173.94
200.52
220.18
232.11
236.20
232.60
221.74
204.44
182.15
156.86
130.65
105.07
80.76
57.41
34.23
10.52
-13.76
-37.88
-60.53
-80.34
-96.47
-108.82
-118.14
-125.61
-132.47
-139.52
-146.99
-154.59
-161.84
-168.39
-174.20
-179.50
-184.61
-189.62
-194.20
-197.65
-199.07
-197.71
-193.28
-186.09
-176.97
-166.99
-157.08
-147.77
-139.11
-130.72
-122.03
-112.58
-102.02
-90.21
-77.15
-62.91
-47.70
-31.87
-15.94
-0.47
14.05
27.43
39.75
51.36
62.66
73.90
85.01
95.54
104.75
111.79
115.98
117.05
115.17
110.91
105.04
98.33
91.36
84.43
77.72
71.40
65.76
61.23
58.29
57.28
58.17
60.50
63.49
66.22
67.92
68.17
66.97
64.69
61.93
59.32
57.36
56.27
56.00
56.23
56.57
56.67
56.34
55.64
54.67
53.63
52.66
51.83
51.16
50.63
50.20
49.68
48.89
47.62
45.81
43.52
40.91
38.09
35.01
31.41
27.00
21.64
15.44
8.84
2.44
-3.21
-7.82
-11.40
-14.24
-16.71
-19.12
-21.66
-24.30
-26.87
-29.15
-30.85
-31.75
-31.63
-30.33
-27.74
-23.91
-19.03
-13.48
-7.69
-2.03
3.27
8.17
12.79
17.27
21.75
26.24
30.62
34.62
37.91
40.14
41.08
40.65
39.04
36.58
33.70
30.73
27.88
25.20
22.66
20.19
17.71
15.10
12.20
8.87
5.04
0.79
-3.61
-7.84
-11.60
-14.73
-17.31
-19.57
-21.75
-23.99
-26.32
-28.60
-30.65
-32.30
-33.44
-34.13
-34.47
-34.71
-35.09
-35.79
-36.90
-38.30
-39.73
-40.84
-41.33
-41.10
-40.29
-39.24
-38.29
-37.54
-36.83
-35.82
-34.06
-31.25
-27.29
-22.31
-16.58
-10.38
-4.04
2.16
7.99
13.29
17.98
22.03
25.49
28.37
30.66
32.30
33.24
33.48
33.05
32.08
30.68
28.99
27.12
25.18
23.22
21.33
19.52
17.70
15.77
13.55
10.95
8.05
5.14
2.61
0.84
0.02
0.05
0.58
1.14
1.36
0.99
0.07
-1.27
-2.90
-4.69
-6.63
-8.62
-10.56
-12.28
-13.64
-14.54
-15.06
-15.41
-15.86
-16.61
-17.73
-19.09
-20.37
-21.16
-21.08
-19.94
-17.77
-14.81
-11.49
-8.27
-5.50
-3.37
-1.89
-0.93
-0.29
0.17
0.49
0.56
0.26
-0.47
-1.55
-2.77
-3.86
-4.68
-5.22
-5.55
-5.74
-5.74
-5.40
-4.63
-3.48
-2.15
-0.98
-0.21
0.07
-0.03
-0.32
-0.55
-0.56
-0.18
0.64
1.92
3.49
5.08
6.37
7.05
6.94
6.04
4.46
2.36
-0.03
-2.51
-4.83
-6.73
-8.05
-8.77
-9.05
-9.25
-9.76
-10.81
-12.43
-14.36
-16.11
-17.08
-16.80
-15.04
-11.89
-7.82
-3.48
0.48
3.60
5.65
6.65
6.72
6.00
4.68
2.94
1.02
-0.72
-1.96
-2.46
-2.22
-1.45
-0.55
0.13
0.37
0.29
0.25
0.74
2.17
4.64
7.83
11.12
13.82
15.43
15.84
15.43
14.87
15.01
16.55
19.79
24.44
29.73
34.63
38.21
40.01
40.14
39.20
37.87
36.70
35.78
34.88
33.57
31.39
28.02
23.21
16.85
8.88
-0.54
-11.06
-22.02
-32.67
-42.22
-49.88
-54.96
-56.89
-55.41
-50.75
-43.71
-35.56
-27.70
-21.19
-16.34
-12.84
-10.00
-7.35
-4.95
-3.49
-3.92
-6.94
-12.77
-20.80
-29.58
-36.71
-39.00
-33.06
-16.37
11.36
47.44
86.34
121.24
146.11
157.68
156.05
144.01
125.41
103.62
80.79
57.94
35.70
14.73
-4.23
-20.68
-34.79
-47.29
-59.15
-70.94
-82.54
-93.00
-101.05
-105.59
-106.17
-103.27
-98.08
-92.18
-86.86
-82.84
-80.08
-78.00
-75.79
-72.74
-68.47
-63.13
-57.24
-51.50
-46.56
-42.73
-40.01
-38.08
-36.40
-34.54
-32.37
-30.08
-27.85
-25.63
-22.90
-18.85
-12.75
-4.16
6.51
17.94
28.31
36.09
40.63
42.31
42.24
41.62
41.62
42.64
44.03
44.66
43.76
41.43
38.46
35.73
33.51
31.67
28.95
22.84
10.41
-10.31
-39.38
-74.53
-111.24
-143.37
-163.48
-165.36
-146.51
-108.95
-58.15
-1.52
53.67
102.01
134.65
146.12
138.14
117.10
89.36
59.40
30.08
3.52
-18.87
-36.62
-49.35
-57.56
-63.07
-68.15
-74.29
-81.98
-90.80
-99.94
-108.75
-115.99
-120.90
-123.66
-125.81
-127.42
-128.40
-128.47
-127.47
-125.66
-122.80
-119.12
-115.45
-112.89
-112.11
-113.48
-116.89
-121.98
-128.39
-134.97
-140.81
-145.35
-148.33
-149.38
-148.13
-143.82
-135.12
-124.64
-113.24
-101.49
-89.78
-78.38
-67.33
-56.62
-46.20
-36.10
-26.58
-17.38
-8.57
-0.34
7.02
13.25
18.08
21.36
23.03
23.05
21.95
20.18
18.19
16.35
15.37
15.75
17.58
20.49
23.48
26.27
28.70
30.67
32.11
33.35
34.66
36.15
37.73
38.91
39.92
41.22
43.29
46.53
52.05
60.41
71.29
83.35
93.91
101.51
105.33
104.86
100.06
93.76
88.31
84.61
81.75
75.68
65.75
52.93
38.54
24.24
16.51
19.88
35.00
58.14
78.81
93.45
102.18
106.34
108.75
120.40
149.75
199.49
265.71
333.58
399.01
462.97
527.34
595.05
677.96
783.17
909.26
1045.46
1166.76
1262.63
1330.48
1370.89
1314.88
1123.95
803.15
404.38
57.95
-211.09
-408.47
-545.76
-649.17
-728.54
-778.49
-794.70
-778.75
-740.04
-701.36
-670.91
-649.47
-635.67
-625.37
-607.72
-575.07
-525.01
-462.13
-402.27
-350.84
-308.18
-273.21
-242.81
-209.88
-169.44
-118.70
-59.69
-2.13
50.22
96.81
138.53
177.93
218.81
262.48
309.28
355.65
393.55
418.37
428.90
426.87
416.54
402.94
389.68
381.66
380.73
384.87
390.52
393.34
389.50
377.16
356.57
308.93
227.66
118.46
-1.57
-112.53
-201.15
-263.93
-304.50
-329.36
-344.80
-352.07
-351.64
-344.32
-332.06
-317.48
-302.77
-289.25
-277.71
-268.79
-260.42
-251.17
-240.65
-229.73
-219.72
-211.37
-204.00
-195.72
-184.11
-165.77
-139.66
-107.94
-75.56
-47.68
-28.08
-17.58
-14.35
-15.34
-17.30
-18.89
-20.50
-23.33
-27.98
-33.82
-39.23
-42.70
-43.73
-42.84
-41.47
-40.84
-41.30
-42.21
-42.40
-40.88
-37.46
-32.91
-28.56
-26.10
-26.54
-29.95
-35.41
-41.41
-46.26
-48.70
-48.26
-43.61
-34.88
-22.83
-8.52
7.14
23.60
40.66
58.27
76.20
93.84
110.02
123.45
133.16
138.59
139.75
137.12
131.47
123.60
114.25
103.77
92.50
80.78
69.02
57.75
47.53
38.78
31.58
25.72
20.52
15.33
9.63
3.26
-3.57
-10.36
-16.59
-21.93
-26.31
-30.00
-33.39
-36.88
-40.84
-45.58
-51.31
-57.85
-64.31
-69.05
-70.09
-66.07
-57.07
-45.00
-33.04
-24.46
-21.23
-23.33
-28.93
-35.24
-39.63
-40.41
-36.98
-29.55
-18.81
-5.60
9.14
24.33
38.81
51.53
61.69
68.79
72.93
74.59
74.51
73.37
71.55
69.02
65.44
60.24
52.79
42.40
28.31
9.94
-12.55
-37.79
-63.18
-85.51
-102.10
-111.72
-114.89
-113.25
-108.44
-101.10
-90.74
-76.46
-58.04
-36.80
-15.51
2.44
14.17
18.26
14.98
5.90
-6.80
-21.00
-35.10
-48.13
-59.79
-70.11
-79.32
-87.59
-94.98
-101.39
-106.70
-110.82
-113.74
-115.48
-115.98
-114.94
-111.84
-106.15
-97.66
-87.02
-75.85
-66.23
-59.83
-56.93
-56.10
-54.76
-50.33
-41.45
-28.51
-13.26
2.30
16.87
30.26
43.01
55.56
67.89
79.54
90.22
100.20
110.19
120.55
130.37
137.13
137.26
127.68
107.40
78.47
45.56
14.51
-9.68
-24.25
-29.06
-26.14
-18.46
-9.00
-0.07
6.73
10.36
10.20
6.07
-1.71
-12.31
-24.35
-36.18
-46.09
-52.73
-55.61
-55.21
-52.81
-49.97
-47.74
-46.34
-45.16
-43.35
-40.50
-36.93
-33.51
-31.07
-29.78
-29.13
-28.20
-26.33
-23.46
-20.18
-17.28
-15.28
-14.15
-13.33
-11.95
-9.22
-4.60
2.02
10.26
19.23
27.84
34.94
39.69
41.68
40.88
37.57
32.25
25.67
18.84
12.88
8.39
5.00
1.27
-4.86
-14.91
-28.82
-44.61
-58.96
-68.67
-71.90
-68.72
-60.67
-49.69
-37.18
-23.90
-10.41
2.24
12.31
17.90
17.85
12.46
3.59
-5.94
-13.30
-16.31
-13.75
-5.34
8.44
26.38
46.61
66.78
84.52
97.93
106.14
109.58
109.75
108.60
107.58
106.95
105.31
99.89
87.17
64.59
32.30
-5.89
-43.27
-72.38
-87.51
-86.41
-70.56
-44.71
-14.80
14.06
38.78
58.29
72.56
82.03
87.47
89.86
89.24
84.96
76.34
63.63
48.47
33.37
21.04
13.63
11.99
13.84
14.67
9.56
-4.88
-29.73
-64.46
-107.64
-157.33
-202.79
-231.47
-234.79
-213.78
-176.94
-133.63
-90.35
-50.60
-16.00
12.95
35.12
49.43
55.77
55.83
52.66
49.24
47.53
48.26
51.24
54.84
56.99
56.30
52.94
48.33
44.16
41.60
41.14
42.71
45.33
47.75
49.07
49.33
49.28
49.70
51.06
53.38
56.25
58.78
59.89
58.79
55.26
49.65
42.30
33.92
25.18
16.72
9.00
2.29
-3.16
-7.12
-9.36
-10.20
-9.67
-7.90
-5.07
-1.38
2.92
7.65
12.62
17.65
21.92
25.09
26.85
26.84
24.67
20.01
12.65
2.49
-7.05
-16.11
-24.68
-32.54
-39.29
-44.59
-48.21
-50.08
-50.27
-48.91
-46.82
-44.34
-41.70
-39.07
-36.53
-34.16
-31.97
-29.94
-27.89
-26.20
-24.88
-23.81
-22.94
-22.21
-21.60
-21.14
-20.84
-20.54
-20.65
-21.31
-22.46
-24.04
-25.87
-27.69
-29.16
-31.13
-32.15
-31.66
-29.25
-24.66
-17.83
-8.93
1.70
13.40
25.49
37.51
48.72
58.67
67.10
73.99
79.49
83.93
87.38
90.08
92.47
94.77
97.21
99.99
103.28
107.21
111.91
116.97
122.18
127.56
133.03
138.68
144.60
150.92
157.68
165.00
172.24
179.01
185.11
190.33
194.54
197.39
198.14
195.26
191.12
185.93
179.67
172.30
163.85
154.36
143.67
131.24
116.13
97.22
72.79
41.98
4.97
-36.98
-81.68
-126.66
-169.70
-209.42
-245.25
-277.86
-307.92
-335.75
-361.16
-383.65
-402.83
-418.79
-432.42
-445.10
-458.86
-475.85
-498.08
-526.95
-562.21
-601.02
-637.49
-663.75
-672.17
-658.27
-622.39
-569.74
-508.51
-446.82
-390.29
-341.04
-298.31
-260.21
-225.28
-193.03
-163.68
-137.46
-114.01
-92.57
-72.37
-53.14
-35.33
-19.84
-7.35
2.12
9.36
15.61
22.08
29.39
37.56
46.12
54.52
62.30
69.47
76.37
83.40
90.48
96.69
100.52
100.52
96.41
89.57
82.87
79.54
81.75
89.76
102.17
116.94
132.64
148.94
166.30
184.96
204.47
223.62
241.20
256.89
271.46
286.44
303.51
324.11
348.82
377.29
407.89
437.60
462.51
478.67
483.40
476.26
459.10
435.23
407.93
379.30
350.00
319.92
289.24
258.99
230.89
206.45
186.09
168.92
153.20
137.25
120.27
102.47
84.82
68.31
53.47
40.13
27.66
15.39
3.02
-9.10
-20.08
-28.64
-33.63
-34.37
-31.02
-24.71
-17.28
-10.90
-7.51
-8.30
-13.43
-22.18
-33.23
-45.09
-56.32
-65.68
-72.15
-75.06
-74.14
-69.65
-62.44
-53.85
-45.38
-38.47
-34.12
-32.82
-34.44
-38.23
-42.92
-46.96
-48.92
-47.82
-43.55
-36.82
-28.92
-21.33
-15.28
-11.48
-9.99
-10.34
-11.70
-13.23
-14.27
-14.49
-13.94
-12.87
-11.67
-10.66
-10.03
-9.84
-10.17
-11.05
-12.42
-14.14
-15.92
-17.41
-18.32
-18.55
-18.10
-17.19
-16.10
-15.16
-14.67
-14.87
-15.98
-18.16
-21.47
-25.84
-31.04
-36.62
-42.05
-46.72
-50.07
-51.65
-51.19
-48.59
-44.00
-37.84
-30.79
-23.66
-17.23
-11.97
-7.94
-4.87
-2.32
0.11
2.67
5.51
8.66
12.20
16.08
20.04
23.65
26.30
27.50
27.07
25.20
22.38
19.24
16.34
14.06
12.59
11.88
11.77
11.97
12.21
12.18
11.64
10.42
8.50
6.07
3.43
1.03
-0.75
-1.65
-1.76
-1.34
-0.77
-0.38
-0.26
-0.42
-0.79
-1.26
-1.79
-2.32
-2.87
-3.56
-4.78
-7.07
-11.00
-16.85
-24.35
-32.74
-40.93
-47.83
-52.74
-55.45
-56.15
-55.33
-53.47
-51.00
-48.30
-45.66
-43.33
-41.42
-39.88
-38.44
-36.71
-34.27
-30.74
-26.03
-20.28
-13.94
-7.61
-1.86
2.92
6.59
9.28
11.32
13.02
14.62
16.25
17.85
19.35
20.60
21.47
21.88
21.77
21.06
19.80
18.07
16.03
13.85
11.70
9.65
7.73
5.91
4.12
2.35
0.65
-0.94
-2.37
-3.61
-4.65
-5.51
-6.21
-6.81
-7.43
-8.24
-9.43
-11.06
-13.01
-14.94
-16.28
-16.38
-14.65
-10.74
-4.59
3.48
12.82
22.62
32.05
40.33
46.98
51.71
54.46
55.20
53.91
50.58
45.28
38.33
30.23
21.65
13.22
5.36
-1.78
-8.31
-14.36
-19.98
-25.06
-29.37
-32.68
-34.87
-35.93
-35.92
-34.96
-33.18
-30.74
-27.80
-24.55
-21.19
-17.89
-14.73
-11.70
-8.75
-5.82
-2.88
0.07
2.96
5.65
8.01
9.84
10.97
11.25
10.64
9.14
6.90
4.19
1.39
-1.14
-3.00
-3.91
-3.69
-2.35
-0.06
2.93
6.28
9.74
13.16
16.44
19.60
22.65
25.52
28.01
29.85
30.79
30.71
29.74
28.21
26.55
25.12
24.07
23.32
22.66
21.87
20.84
19.59
18.18
16.66
14.95
12.89
10.28
7.00
3.13
-1.07
-5.21
-8.88
-11.78
-13.83
-15.14
-15.97
-16.60
-17.27
-18.08
-18.94
-19.67
-20.06
-20.02
-19.64
-19.14
-18.89
-19.18
-20.15
-21.73
-23.67
-25.61
-27.19
-28.06
-27.97
-26.84
-24.74
-21.93
-18.86
-15.96
-13.57
-11.78
-10.40
-9.07
-7.41
-5.16
-2.34
0.79
3.88
6.59
8.75
10.36
11.55
12.48
13.33
14.19
14.97
15.61
15.91
15.74
15.03
13.79
12.11
10.11
7.96
5.77
3.72
1.94
0.56
-0.44
-1.13
-1.73
-2.44
-3.39
-4.49
-5.58
-6.44
-6.95
-7.17
-7.24
-7.37
-7.77
-8.50
-9.61
-11.02
-12.60
-14.18
-15.51
-16.30
-16.31
-15.35
-13.44
-10.75
-7.66
-4.59
-1.87
0.35
2.12
3.67
5.20
6.79
8.38
9.81
10.89
11.51
11.65
11.41
10.91
10.27
9.59
8.91
8.23
7.46
6.48
5.19
3.63
1.88
0.10
-1.59
-3.19
-4.77
-6.50
-8.40
-10.40
-12.32
-13.97
-15.23
-16.11
-16.69
-17.06
-17.30
-17.39
-17.40
-17.38
-17.35
-17.34
-17.28
-17.14
-16.88
-16.62
-16.49
-16.69
-17.26
-18.07
-18.76
-18.96
-18.38
-16.95
-14.84
-12.37
-9.92
-7.80
-6.11
-4.87
-3.95
-3.20
-2.48
-1.69
-0.78
0.23
1.28
2.23
2.90
3.12
2.76
1.79
0.31
-1.50
-3.39
-5.11
-6.42
-7.14
-7.16
-6.48
-5.24
-3.68
-2.18
-1.08
-0.62
-0.75
-1.19
-1.54
-1.46
-0.87
0.02
0.83
1.28
1.22
0.76
0.11
-0.50
-1.04
-1.55
-2.18
-3.01
-3.95
-4.89
-5.71
-6.35
-6.84
-7.27
-7.70
-8.10
-8.25
-7.88
-6.75
-4.79
-2.15
0.80
3.72
6.31
8.44
10.11
11.39
12.28
12.76
12.80
12.38
11.56
10.45
9.15
7.74
6.32
5.01
3.98
3.37
3.25
3.57
4.17
4.80
5.27
5.47
5.38
5.08
4.61
4.01
3.30
2.48
1.61
0.77
0.02
-0.57
-1.03
-1.44
-1.93
-2.59
-3.46
-4.49
-5.58
-6.59
-7.33
-7.69
-7.64
-7.30
-6.93
-6.84
-7.28
-8.31
-9.79
-11.36
-12.55
-12.96
-12.31
-10.57
-7.90
-4.61
-1.07
2.34
5.34
7.78
9.58
10.79
11.52
11.82
11.78
11.47
10.88
10.07
9.11
8.10
7.12
6.22
5.46
4.84
4.37
4.03
3.76
3.51
3.23
2.84
2.32
1.64
0.85
0.03
-0.72
-1.33
-1.71
-1.89
-1.98
-2.17
-2.62
-3.37
-4.28
-5.07
-5.51
-5.49
-5.12
-4.63
-4.29
-4.27
-4.57
-5.06
-5.58
-6.09
-6.63
-7.32
-8.22
-9.30
-10.26
-10.75
-10.33
-8.77
-6.13
-2.73
0.93
4.39
7.37
9.78
11.73
13.33
14.73
15.92
16.86
17.49
17.67
17.36
16.57
15.39
13.96
12.48
11.10
9.87
8.74
7.65
6.51
5.29
4.07
2.94
2.06
1.49
1.25
1.19
1.19
1.09
0.76
0.16
-0.72
-1.82
-3.05
-4.33
-5.59
-6.71
-7.61
-8.17
-8.36
-8.21
-7.82
-7.37
-6.97
-6.65
-6.40
-6.11
-5.77
-5.41
-5.13
-5.05
-5.22
-5.63
-6.13
-6.50
-6.58
-6.28
-5.57
-4.56
-3.42
-2.29
-1.28
-0.36
0.52
1.42
2.36
3.27
4.07
4.60
4.83
4.70
4.24
3.46
2.39
1.12
-0.23
-1.50
-2.58
-3.37
-3.92
-4.30
-4.59
-4.85
-5.06
-5.20
-5.29
-5.35
-5.41
-5.50
-5.61
-5.69
-5.70
-5.66
-5.68
-5.86
-6.24
-6.71
-7.10
-7.20
-6.88
-6.23
-5.46
-4.78
-4.31
-3.98
-3.67
-3.27
-2.80
-2.40
-2.25
-2.44
-2.91
-3.48
-3.95
-4.20
-4.19
-3.91
-3.37
-2.52
-1.31
0.21
1.89
3.48
4.74
5.49
5.68
5.41
4.89
4.36
3.98
3.78
3.62
3.32
2.68
1.67
0.37
-0.99
-2.15
-3.03
-3.62
-4.06
-4.51
-5.05
-5.68
-6.37
-7.00
-7.46
-7.63
-7.37
-6.67
-5.62
-4.46
-3.53
-3.11
-3.35
-4.14
-5.22
-6.28
-7.18
-7.90
-8.57
-9.34
-10.23
-11.24
-12.25
-13.16
-13.85
-14.27
-14.34
-14.05
-13.42
-12.60
-11.78
-11.12
-10.71
-10.43
-10.06
-9.36
-8.19
-6.54
-4.55
-2.43
-0.36
1.51
3.13
4.47
5.55
6.40
7.08
7.68
8.21
8.68
9.09
9.45
9.68
9.69
9.36
8.65
7.54
6.02
4.06
1.74
-0.74
-3.10
-5.00
-6.09
-6.14
-5.32
-4.28
-3.82
-4.51
-6.45
-9.28
-12.40
-14.93
-16.22
-16.39
-16.45
-17.74
-21.08
-26.58
-33.71
-41.67
-49.12
-54.79
-58.57
-61.85
-66.45
-73.55
-83.23
-94.92
-107.85
-120.48
-131.12
-139.17
-145.73
-152.30
-159.63
-167.34
-173.92
-176.65
-169.92
-146.65
-101.73
-35.05
48.42
140.34
231.03
311.65
367.18
382.73
355.60
298.80
230.28
162.53
101.03
47.44
1.99
-35.49
-63.95
-82.56
-92.42
-97.30
-101.54
-107.94
-116.99
-127.57
-139.01
-147.59
-150.11
-145.51
-135.50
-123.09
-110.89
-100.50
-92.61
-87.61
-84.38
-81.97
-80.13
-79.70
-81.72
-86.45
-93.02
-99.56
-107.12
-114.61
-120.91
-125.31
-127.89
-129.08
-129.25
-128.56
-127.08
-124.88
-121.35
-116.25
-109.58
-101.69
-93.08
-84.22
-75.45
-67.09
-59.35
-51.99
-44.91
-38.01
-31.21
-24.44
-17.67
-10.89
-4.24
2.09
8.13
13.72
18.66
22.74
25.76
27.59
28.14
27.38
25.30
22.05
17.73
12.40
6.07
-1.26
-9.59
-18.92
-29.21
-40.33
-51.98
-63.78
-75.23
-85.71
-94.61
-101.26
-105.13
-105.76
-102.90
-96.51
-86.78
-74.11
-59.11
-42.53
-25.20
-7.47
10.27
27.54
43.68
58.10
70.14
79.80
87.28
92.76
96.80
99.89
102.17
103.52
103.70
102.38
99.79
96.28
92.19
88.84
87.34
88.06
90.67
94.46
98.30
102.19
106.37
110.82
118.40
131.16
149.37
171.37
194.58
215.38
233.60
249.95
264.71
284.03
312.57
351.12
396.42
443.33
484.51
519.93
551.31
579.78
615.41
665.59
731.04
805.42
879.35
940.30
988.33
1027.44
1061.02
1103.16
1162.76
1237.52
1314.51
1376.90
1405.72
1401.45
1373.12
1249.27
993.89
616.87
175.05
-257.90
-584.27
-812.28
-966.34
-1067.37
-1130.09
-1160.26
-1156.26
-1121.62
-1067.39
-1007.79
-960.91
-928.57
-907.42
-894.25
-877.20
-846.78
-801.16
-745.80
-689.30
-643.34
-606.91
-574.91
-542.58
-500.83
-443.52
-371.19
-290.37
-210.14
-141.26
-85.81
-42.49
-9.44
17.87
43.37
68.48
92.36
113.03
127.09
134.20
134.63
128.44
116.78
101.40
83.90
65.68
47.95
31.19
16.40
3.97
-6.63
-16.68
-27.34
-39.30
-52.38
-65.56
-77.53
-87.28
-94.48
-99.44
-102.81
-105.08
-106.46
-106.94
-106.58
-105.66
-104.71
-104.17
-104.21
-104.79
-105.82
-107.51
-110.43
-115.20
-121.85
-129.35
-135.47
-137.42
-132.74
-120.16
-100.12
-74.49
-45.84
-16.47
12.09
39.24
64.88
88.89
110.73
129.46
144.02
153.72
158.50
158.89
155.74
149.90
141.91
132.05
120.51
107.55
93.68
79.65
66.28
54.36
44.41
36.64
30.99
27.12
24.64
23.27
22.93
23.77
26.02
29.73
34.56
39.92
45.11
49.65
53.42
56.47
58.69
59.55
58.13
53.46
45.11
33.48
19.64
4.90
-9.73
-23.76
-36.88
-48.55
-57.66
-62.83
-63.09
-58.49
-50.38
-40.90
-32.07
-25.06
-19.88
-15.76
-11.91
-8.08
-4.58
-1.93
-0.38
0.39
1.07
2.32
4.37
6.87
9.19
10.70
11.12
10.60
9.53
8.42
7.59
7.19
7.13
7.24
7.24
6.90
6.09
4.91
3.72
3.05
3.35
4.74
6.98
9.45
11.47
12.56
12.60
11.85
10.67
9.43
8.31
7.32
6.27
4.84
2.70
-0.35
-4.18
-8.47
-12.69
-16.35
-19.18
-21.44
-23.85
-27.37
-32.73
-40.09
-48.86
-57.79
-65.22
-69.44
-69.51
-65.61
-58.92
-50.99
-43.17
-36.27
-30.51
-25.67
-21.21
-17.39
-15.45
-17.20
-24.13
-36.83
-54.93
-77.46
-102.00
-124.37
-140.38
-147.07
-143.82
-132.08
-114.68
-95.05
-76.17
-59.13
-41.31
-18.79
13.10
56.23
108.56
164.57
216.99
259.60
282.29
283.26
266.63
238.41
202.54
160.33
112.38
60.64
9.49
-35.27
-67.91
-86.31
-92.63
-92.06
-91.38
-93.83
-100.09
-108.93
-118.24
-124.94
-126.66
-122.16
-111.47
-95.50
-75.66
-54.27
-34.39
-18.46
-9.88
-10.55
-19.64
-33.76
-47.99
-57.49
-59.24
-52.69
-39.43
-21.83
-1.97
18.62
38.78
57.33
72.99
84.36
91.31
93.43
91.10
85.53
78.05
69.54
60.29
50.28
39.50
28.21
16.80
5.96
-3.43
-10.57
-14.93
-16.32
-14.95
-11.43
-6.93
-3.23
-2.21
-5.25
-12.48
-22.71
-33.82
-43.29
-49.16
-50.84
-49.51
-47.48
-47.14
-49.90
-55.84
-63.80
-71.18
-73.86
-66.93
-46.24
-10.50
36.95
87.97
131.42
156.94
160.41
146.99
129.45
122.22
134.74
167.18
210.85
251.79
275.73
273.50
243.41
189.84
120.07
41.69
-38.34
-110.19
-159.92
-177.22
-161.17
-119.91
-65.31
-8.08
44.23
87.40
118.42
139.30
152.24
159.79
164.80
169.66
175.22
180.39
182.79
181.78
176.97
168.02
155.55
141.27
127.24
114.89
104.42
95.08
85.77
75.54
63.48
49.56
34.67
20.18
7.19
-3.96
-13.66
-22.75
-32.11
-42.51
-54.07
-66.31
-78.49
-90.02
-100.90
-111.59
-123.18
-136.73
-153.06
-172.47
-194.57
-218.15
-241.02
-260.47
-273.78
-280.17
-280.08
-274.96
-266.87
-257.95
-249.83
-243.15
-237.80
-233.36
-231.75
-234.29
-240.91
-250.17
-260.07
-268.92
-275.65
-280.05
-282.62
-287.66
-297.90
-313.35
-331.61
-349.66
-365.18
-376.62
-383.12
-383.86
-382.08
-378.84
-372.19
-358.11
-333.19
-296.25
-248.58
-193.69
-110.10
3.83
132.01
249.35
337.53
391.97
418.24
425.47
421.14
410.60
392.60
366.34
333.35
298.55
268.36
248.59
242.96
251.80
274.13
304.77
339.92
375.76
408.05
431.26
439.36
434.37
415.83
385.66
346.30
302.12
257.71
216.39
178.75
145.72
119.11
102.02
99.85
115.71
148.06
189.18
227.04
249.49
249.22
226.39
187.50
142.90
101.38
67.52
41.51
21.43
5.52
-6.61
-14.78
-20.00
-24.32
-30.84
-42.44
-60.51
-84.35
-111.51
-138.97
-164.56
-187.85
-209.48
-230.53
-251.76
-273.04
-293.49
-311.96
-327.71
-340.99
-353.45
-367.82
-387.15
-413.29
-445.23
-478.08
-503.68
-512.90
-499.01
-460.51
-401.87
-331.77
-259.68
-192.44
-132.72
-79.66
-30.81
15.54
58.84
96.61
125.90
144.97
154.07
154.99
149.72
140.22
127.70
112.54
94.84
75.23
55.18
36.69
21.33
8.91
-1.31
-10.39
-19.50
-29.67
-41.37
-54.39
-67.94
-81.02
-93.32
-103.31
-108.58
-106.63
-95.96
-76.48
-49.56
-17.89
19.68
57.22
86.01
99.63
97.28
82.35
59.23
31.62
2.21
-26.30
-53.48
-77.84
-97.44
-110.95
-118.42
-120.82
-119.16
-113.59
-104.30
-91.57
-74.77
-53.22
-27.10
2.14
32.27
61.16
87.46
110.74
131.00
149.27
167.01
185.61
205.90
227.82
250.14
270.35
284.92
290.24
284.29
267.45
242.31
212.72
182.31
153.56
127.41
103.72
81.98
62.01
43.79
27.05
10.97
-5.76
-24.20
-44.30
-64.48
-81.67
-92.20
-93.05
-83.03
-63.25
-36.81
-7.66
20.69
46.03
67.75
86.26
102.16
115.57
125.96
132.43
134.33
131.70
125.41
116.94
107.93
99.79
93.42
89.20
87.07
86.79
87.95
90.07
92.57
94.92
96.65
97.58
97.83
97.81
97.97
98.57
99.50
100.29
100.25
98.71
95.27
89.84
82.66
74.19
65.02
55.63
46.33
37.01
27.09
15.64
1.64
-15.58
-35.99
-58.69
-82.02
-103.80
-121.58
-132.90
-135.63
-128.25
-110.32
-82.74
-47.77
-8.63
31.21
68.75
102.03
130.21
153.25
171.43
185.00
193.91
197.97
197.11
191.60
182.19
170.05
156.50
142.65
129.26
116.56
104.53
92.96
81.73
70.83
60.33
50.19
40.26
30.24
19.74
8.48
-3.58
-16.15
-28.66
-40.38
-50.75
-59.57
-67.17
-74.28
-81.80
-90.35
-100.06
-110.49
-120.83
-130.25
-138.24
-144.81
-150.53
-156.37
-163.37
-172.25
-183.03
-194.59
-204.64
-210.08
-207.71
-195.30
-172.38
-140.58
-103.17
-64.08
-26.83
6.27
34.31
57.35
75.86
90.15
100.23
105.92
107.22
104.48
98.48
90.22
80.61
70.20
59.13
47.34
34.83
22.01
9.72
-1.07
-9.64
-15.86
-20.35
-24.11
-28.14
-33.03
-38.81
-44.98
-50.84
-55.73
-59.32
-61.68
-63.34
-65.03
-67.54
-71.38
-76.63
-82.82
-89.14
-94.72
-98.97
-101.86
-103.93
-106.22
-109.94
-116.17
-125.42
-137.23
-149.92
-160.53
-165.38
-161.00
-145.30
-118.43
-82.96
-43.18
-3.75
31.62
60.95
84.01
101.61
114.75
124.04
129.56
131.17
129.01
123.66
116.11
107.37
98.19
88.96
79.72
70.45
61.26
52.48
44.56
37.84
32.35
27.69
23.15
17.93
11.41
3.41
-5.72
-15.24
-24.30
-32.27
-38.99
-44.90
-50.84
-57.79
-66.49
-77.12
-89.18
-101.67
-113.43
-123.50
-131.55
-137.90
-143.46
-149.45
-157.00
-166.84
-178.88
-191.90
-203.51
-210.44
-209.23
-197.34
-174.14
-141.23
-102.12
-61.11
-21.90
13.25
43.71
69.98
92.81
112.50
128.82
141.14
148.98
152.31
151.67
147.88
141.87
134.42
126.12
117.43
108.72
100.31
92.38
84.96
77.87
70.83
63.59
56.05
48.25
40.33
32.43
24.58
16.75
8.84
0.81
-7.31
-15.43
-23.43
-31.30
-39.14
-47.19
-55.75
-64.98
-74.88
-85.14
-95.22
-104.54
-112.67
-119.50
-125.38
-131.01
-137.34
-145.31
-155.33
-166.87
-177.99
-185.46
-185.49
-174.92
-152.48
-119.42
-79.33
-36.94
3.40
38.84
68.47
92.78
112.76
129.08
141.76
150.36
154.48
154.20
150.19
143.49
135.10
125.77
115.90
105.74
95.56
85.85
77.12
69.64
63.24
57.31
51.03
43.74
35.21
25.74
15.98
6.51
-2.34
-10.61
-18.53
-26.40
-34.37
-42.35
-50.11
-57.43
-64.22
-70.62
-77.00
-83.74
-91.09
-99.00
-107.11
-114.81
-121.58
-127.10
-131.47
-135.25
-139.33
-144.68
-152.02
-161.34
-171.39
-179.63
-182.47
-176.37
-159.03
-130.48
-93.30
-51.87
-11.09
25.19
54.94
77.97
95.15
107.48
115.45
119.03
118.06
112.68
103.62
91.97
79.01
65.78
53.02
41.30
31.23
23.60
19.22
18.70
21.96
28.25
36.14
43.96
50.26
54.10
55.20
53.72
50.15
45.06
38.99
32.46
25.90
19.66
13.79
8.16
2.30
-4.24
-11.82
-20.43
-29.69
-38.97
-47.56
-55.03
-61.38
-67.14
-73.20
-80.61
-90.35
-102.77
-117.16
-131.44
-142.22
-145.52
-137.87
-117.56
-85.39
-44.59
0.13
44.02
83.52
116.90
144.06
165.82
183.10
196.47
205.93
211.33
212.62
210.13
204.62
197.05
188.30
178.95
169.28
159.31
149.16
139.06
129.34
120.23
111.63
103.08
93.91
83.60
71.98
59.40
46.58
34.23
22.81
12.29
2.28
-7.76
-18.09
-28.62
-38.89
-48.46
-57.22
-65.53
-74.08
-83.49
-94.05
-105.40
-116.75
-127.18
-136.02
-143.14
-148.93
-154.29
-160.28
-168.00
-178.00
-189.85
-201.69
-210.19
-211.32
-201.55
-179.22
-145.38
-103.49
-58.34
-14.46
25.10
59.20
88.13
112.63
133.17
149.64
161.64
168.97
172.00
171.56
168.71
164.33
158.91
152.65
145.75
138.55
131.69
125.89
121.56
118.53
115.85
112.06
105.67
95.65
81.75
64.51
45.02
24.51
4.00
-15.81
-34.43
-51.41
-66.21
-78.19
-86.94
-92.48
-95.43
-96.90
-98.16
-100.24
-103.57
-107.94
-112.61
-116.75
-119.77
-121.66
-122.92
-124.42
-127.08
-131.55
-138.02
-145.99
-154.03
-159.68
-159.84
-151.37
-132.14
-102.10
-63.49
-20.36
22.69
61.99
95.62
123.42
146.15
164.61
178.85
188.35
192.51
191.24
185.28
176.01
165.01
153.61
142.61
132.23
122.43
113.13
104.33
96.14
88.63
81.62
74.65
67.03
58.08
47.53
35.69
23.38
11.60
1.13
-7.87
-15.75
-23.19
-30.78
-38.60
-46.30
-53.26
-59.07
-63.78
-67.98
-72.48
-77.85
-84.13
-90.72
-96.73
-101.34
-104.20
-105.57
-106.22
-107.13
-109.19
-112.96
-118.45
-124.95
-130.83
-133.62
-130.55
-119.29
-98.97
-70.58
-36.92
-1.72
31.50
60.34
83.88
102.30
116.22
126.07
131.97
133.83
131.76
126.32
118.49
109.40
99.99
90.83
82.10
73.73
65.70
58.15
51.45
45.91
41.65
38.36
35.43
32.18
28.12
23.25
17.91
12.62
7.72
3.11
-1.66
-7.18
-13.75
-21.30
-29.26
-36.95
-43.93
-50.23
-56.37
-63.05
-70.85
-79.82
-89.47
-99.02
-107.55
-114.48
-119.56
-122.94
-125.08
-126.64
-128.43
-131.03
-134.43
-137.53
-138.04
-132.91
-119.46
-96.56
-65.52
-29.93
5.51
36.47
60.32
76.56
86.30
91.34
93.24
92.92
90.84
87.39
83.05
78.51
74.30
70.63
67.26
63.68
59.39
54.22
48.48
42.71
37.58
33.43
30.16
27.26
24.15
20.49
16.41
12.44
9.17
6.92
5.51
4.29
2.44
-0.68
-5.18
-10.57
-15.99
-20.64
-24.13
-26.75
-29.31
-32.70
-37.47
-43.44
-49.85
-55.68
-60.24
-63.45
-65.88
-68.43
-71.91
-76.94
-83.70
-91.86
-100.39
-107.33
-109.94
-105.28
-91.28
-67.65
-36.48
-1.64
32.39
61.98
85.23
102.01
113.26
120.04
123.09
122.70
119.23
113.37
106.23
99.03
92.58
87.12
82.19
77.15
71.45
64.97
58.01
51.03
44.42
38.22
32.21
26.05
19.52
12.71
5.97
-0.27
-5.76
-10.48
-14.69
-18.69
-22.64
-26.51
-30.04
-32.98
-35.22
-36.96
-38.59
-40.64
-43.46
-47.08
-51.15
-55.05
-58.15
-60.04
-60.73
-60.71
-60.77
-61.93
-65.05
-70.62
-78.24
-86.30
-92.09
-92.33
-84.26
-66.83
-41.30
-10.99
19.77
47.19
69.03
84.83
95.28
101.26
103.31
101.54
96.17
88.02
78.63
69.82
63.05
58.91
56.92
56.01
54.89
52.67
49.02
44.15
38.59
32.87
27.39
22.21
17.15
11.90
6.23
0.05
-6.43
-12.83
-18.71
-23.70
-27.66
-30.73
-33.23
-35.56
-38.14
-41.19
-44.77
-48.70
-52.57
-55.95
-58.45
-59.97
-60.75
-61.32
-62.39
-64.59
-68.33
-73.48
-79.12
-83.48
-84.10
-78.46
-64.86
-43.28
-15.63
14.63
43.70
68.55
87.72
101.28
110.11
115.11
116.62
114.65
109.16
100.71
90.35
79.46
69.22
60.22
52.53
45.74
39.44
33.36
27.43
21.80
16.55
11.71
7.14
2.67
-1.88
-6.53
-11.18
-15.59
-19.50
-22.72
-25.23
-27.20
-28.84
-30.43
-32.10
-33.98
-36.09
-38.44
-41.08
-43.98
-47.09
-50.24
-53.17
-55.62
-57.52
-59.05
-60.62
-62.81
-66.11
-70.63
-76.01
-81.29
-84.93
-85.10
-80.11
-68.84
-51.29
-28.72
-3.51
21.53
43.90
62.15
76.05
86.17
93.36
98.05
100.06
98.87
94.16
86.20
75.99
65.01
54.65
45.86
38.92
33.55
29.24
25.52
22.02
18.61
15.22
11.82
8.41
5.01
1.71
-1.36
-4.11
-6.61
-8.98
-11.43
-14.23
-17.48
-21.21
-25.34
-29.69
-34.09
-38.46
-42.73
-46.85
-50.78
-54.38
-57.55
-60.19
-62.32
-64.12
-65.92
-68.09
-70.87
-74.14
-77.28
-79.13
-78.20
-73.01
-62.58
-46.86
-26.75
-4.01
19.25
41.15
60.36
76.26
88.73
97.81
103.46
105.49
103.75
98.39
90.06
79.99
69.51
59.83
51.62
44.91
39.37
34.60
30.35
26.61
23.44
20.72
18.12
15.19
11.58
7.25
2.47
-2.25
-6.49
-10.08
-13.19
-16.17
-19.32
-22.79
-26.51
-30.26
-33.79
-37.04
-40.11
-43.21
-46.45
-49.85
-53.20
-56.26
-58.84
-60.96
-62.86
-64.91
-67.49
-70.79
-74.68
-78.59
-81.43
-81.73
-77.99
-69.13
-54.96
-36.30
-14.88
7.21
28.08
46.49
61.93
74.35
83.85
90.36
93.65
93.47
89.84
83.21
74.43
64.56
54.62
45.38
37.27
30.41
24.79
20.41
17.15
14.83
13.00
11.10
8.59
5.18
0.92
-3.82
-8.50
-12.65
-16.05
-18.73
-20.87
-22.69
-24.32
-25.80
-27.11
-28.26
-29.38
-30.67
-32.35
-34.49
-36.99
-39.54
-41.71
-43.16
-43.81
-43.87
-43.85
-44.35
-45.83
-48.46
-52.07
-56.13
-59.75
-61.83
-61.11
-56.39
-46.99
-32.99
-15.41
3.94
22.98
39.96
53.90
64.70
72.85
78.83
82.72
84.16
82.58
77.70
69.90
60.23
50.12
40.88
33.29
27.49
23.14
19.68
16.72
14.06
11.69
9.62
7.75
5.90
3.79
1.31
-1.54
-4.47
-7.13
-9.27
-10.91
-12.33
-13.96
-16.14
-18.89
-21.93
-24.78
-27.12
-28.84
-30.17
-31.52
-33.17
-35.23
-37.54
-39.80
-41.81
-43.54
-45.15
-46.95
-49.28
-52.34
-56.09
-60.07
-63.35
-64.68
-62.66
-56.18
-44.85
-29.19
-10.57
9.12
28.06
44.88
58.85
69.83
77.92
83.22
85.73
85.46
82.58
77.56
71.13
64.01
56.75
49.60
42.54
35.48
28.40
21.39
14.72
8.74
3.86
0.54
-0.82
-0.00
2.84
7.10
11.67
15.22
16.60
15.07
10.66
4.01
-3.80
-11.57
-18.31
-23.47
-27.00
-29.29
-31.01
-32.82
-35.19
-38.24
-41.75
-45.35
-48.67
-51.54
-54.03
-56.48
-59.22
-62.50
-66.29
-70.08
-72.93
-73.48
-70.26
-62.05
-48.45
-30.08
-8.61
13.75
34.87
53.19
68.00
79.24
87.13
91.70
92.81
90.29
84.26
75.41
64.96
54.38
45.07
37.98
33.59
31.80
32.01
33.30
34.59
34.89
33.53
30.31
25.51
19.77
13.78
8.15
3.24
-0.78
-3.91
-6.25
-8.05
-9.63
-11.33
-13.39
-15.80
-18.33
-20.61
-22.34
-23.46
-24.13
-24.72
-25.54
-26.80
-28.38
-30.01
-31.38
-32.36
-33.13
-34.14
-35.97
-39.11
-43.70
-49.37
-55.28
-60.19
-62.70
-61.54
-55.87
-45.62
-31.60
-15.33
1.33
16.72
29.85
40.51
48.96
55.49
60.06
62.22
61.44
57.48
50.84
42.78
35.06
29.33
26.73
27.47
30.91
35.77
40.58
44.15
45.73
45.12
42.41
37.93
32.01
25.03
17.49
10.05
3.38
-2.07
-6.19
-9.36
-12.14
-15.06
-18.46
-22.21
-25.95
-29.14
-31.39
-32.58
-32.97
-33.09
-33.55
-34.86
-37.11
-40.05
-43.10
-45.67
-47.46
-48.57
-49.34
-50.20
-51.41
-52.93
-54.52
-55.74
-55.96
-54.38
-50.13
-42.42
-30.90
-16.00
1.14
18.77
35.16
49.00
59.73
67.37
72.25
74.65
74.57
71.96
66.85
59.67
51.22
42.51
34.49
27.75
22.44
18.32
14.98
12.06
9.31
6.63
3.93
1.21
-1.57
-4.40
-7.24
-10.03
-12.75
-15.44
-18.18
-21.01
-23.82
-26.41
-28.49
-29.88
-30.56
-30.77
-30.96
-31.53
-32.74
-34.60
-36.93
-39.43
-41.92
-44.42
-47.06
-50.01
-53.25
-56.52
-59.39
-61.54
-62.71
-62.86
-61.82
-59.13
-54.09
-46.12
-35.17
-21.92
-7.56
6.98
21.38
35.93
50.80
65.09
76.39
81.29
76.81
61.74
37.56
7.90
-22.74
-50.57
-73.48
-91.04
-103.85
-112.73
-118.29
-121.06
-121.80
-121.74
-122.53
-125.61
-131.68
-140.21
-149.55
-157.59
-162.46
-163.23
-160.09
-154.07
-146.48
-138.46
-130.61
-122.82
-114.19
-103.05
-87.20
-64.69
-34.81
1.13
39.76
76.70
108.07
132.03
149.13
161.54
171.66
180.75
188.50
193.62
194.85
191.86
185.44
177.06
168.22
159.96
152.81
146.98
142.64
139.94
138.87
139.04
139.45
138.70
135.28
128.09
116.88
102.25
85.54
68.38
52.18
37.93
25.96
16.06
7.66
0.07
-7.19
-14.24
-20.70
-25.94
-29.46
-31.07
-31.06
-29.91
-27.88
-24.63
-19.19
-10.31
2.94
20.71
42.05
65.11
87.55
107.20
122.50
132.82
138.38
139.94
138.40
134.50
128.71
121.31
112.48
102.48
91.68
80.42
69.00
57.63
46.39
35.26
24.25
13.33
2.42
-8.50
-19.43
-30.20
-40.47
-49.77
-57.53
-63.32
-66.84
-68.21
-67.89
-66.67
-65.50
-65.23
-66.38
-68.99
-72.55
-76.09
-78.46
-78.63
-76.11
-71.16
-64.81
-58.66
-54.40
-53.33
-56.04
-62.21
-70.63
-79.34
-85.77
-87.11
-80.91
-65.84
-42.43
-13.13
18.14
47.26
71.16
88.57
100.07
107.19
111.44
113.42
112.79
108.68
100.43
88.16
72.78
55.70
38.36
21.98
7.39
-4.77
-13.95
-19.73
-22.03
-21.40
-19.10
-16.80
-16.06
-17.69
-21.47
-26.15
-30.07
-31.75
-30.44
-26.33
-20.41
-14.08
-8.61
-4.85
-3.03
-2.81
-3.41
-3.99
-3.76
-2.36
0.10
3.11
5.93
7.87
8.44
7.64
5.84
3.75
2.17
1.73
2.69
4.91
7.80
10.53
12.19
12.07
9.80
5.50
-0.22
-6.53
-12.46
-17.24
-20.53
-22.31
-22.89
-22.73
-22.25
-21.80
-21.62
-21.87
-22.63
-23.86
-25.42
-27.10
-28.69
-29.96
-30.71
-30.83
-30.32
-29.32
-28.11
-27.01
-26.33
-26.14
-26.31
-26.43
-26.05
-24.71
-22.09
-18.18
-13.17
-7.58
-1.95
3.19
7.42
10.54
12.61
13.88
14.56
14.92
15.07
15.03
14.65
13.66
11.80
8.86
4.86
0.09
-4.92
-9.60
-13.53
-16.54
-18.73
-20.31
-21.41
-21.90
-21.42
-19.48
-15.78
-10.25
-3.16
5.15
14.39
24.30
34.50
44.20
52.18
56.90
57.16
52.53
43.77
32.62
21.20
11.28
3.77
-1.37
-4.78
-7.26
-9.32
-11.12
-12.59
-13.73
-14.67
-15.72
-17.23
-19.36
-21.97
-24.65
-26.78
-27.74
-27.08
-24.60
-20.45
-15.14
-9.39
-3.90
0.83
4.71
7.93
10.88
13.88
16.98
19.91
22.23
23.60
23.87
23.28
22.15
20.85
19.59
18.35
17.01
15.45
13.59
11.44
9.07
6.47
3.66
0.66
-2.56
-5.96
-9.51
-13.23
-17.07
-20.87
-24.41
-27.41
-29.63
-30.96
-31.41
-31.04
-29.96
-28.36
-26.39
-24.37
-22.59
-21.25
-20.39
-19.87
-19.51
-19.18
-18.92
-18.85
-19.14
-19.95
-21.29
-23.09
-25.14
-27.07
-28.32
-28.32
-26.66
-23.33
-18.79
-13.73
-8.80
-4.31
-0.13
4.13
8.86
14.13
19.63
24.73
28.80
31.33
32.18
31.41
29.37
26.41
22.90
19.20
15.56
12.28
9.60
7.72
6.67
6.25
5.97
5.38
4.11
2.09
-0.39
-2.87
-4.93
-6.34
-7.16
-7.64
-8.06
-8.59
-9.24
-9.86
-10.36
-10.70
-10.98
-11.45
-12.24
-13.41
-14.85
-16.39
-17.79
-18.96
-19.90
-20.64
-21.28
-21.83
-22.33
-22.83
-23.42
-24.12
-24.95
-25.71
-26.06
-25.63
-24.03
-21.01
-16.57
-10.96
-4.57
2.06
8.46
14.34
19.59
24.29
28.52
32.22
35.19
37.05
37.41
36.09
33.25
29.33
25.07
21.15
18.03
15.85
14.46
13.49
12.55
11.44
10.11
8.68
7.27
5.95
4.65
3.31
1.85
0.37
-0.96
-1.96
-2.60
-3.06
-3.61
-4.51
-5.86
-7.54
-9.37
-11.09
-12.62
-13.94
-15.08
-16.05
-16.79
-17.21
-17.34
-17.25
-17.09
-17.10
-17.43
-18.19
-19.35
-20.78
-22.21
-23.33
-23.80
-23.29
-21.61
-18.63
-14.36
-8.98
-2.83
3.66
9.96
15.60
20.35
24.15
27.15
29.58
31.48
32.76
33.13
32.26
30.01
26.55
22.36
18.13
14.45
11.66
9.80
8.66
7.89
7.24
6.59
5.94
5.37
4.91
4.57
4.35
4.24
4.18
4.08
3.78
3.08
1.90
0.26
-1.60
-3.38
-4.80
-5.69
-6.07
-6.09
-5.95
-5.82
-5.87
-6.23
-7.03
-8.30
-9.96
-11.83
-13.70
-15.43
-16.97
-18.48
-20.10
-21.81
-23.32
-24.01
-23.20
-20.35
-15.43
-8.87
-1.47
5.92
12.70
18.60
23.64
27.81
30.99
32.84
32.97
31.19
27.65
22.86
17.60
12.68
8.68
5.83
3.91
2.41
0.73
-1.53
-4.39
-7.49
-10.31
-12.50
-14.05
-15.32
-16.82
-18.86
-21.44
-24.14
-26.40
-27.72
-27.89
-27.06
-25.60
-24.03
-22.84
-22.46
-23.21
-25.22
-28.17
-31.06
-32.15
-29.31
-20.83
-6.31
12.70
32.96
50.41
61.62
64.92
60.76
51.17
38.77
25.81
13.87
3.86
-3.55
-7.81
-8.56
-5.97
-0.82
5.67
12.23
18.01
22.69
26.41
29.46
32.06
34.18
35.69
36.36
36.03
34.60
32.21
29.20
26.10
23.59
22.09
21.65
21.82
21.83
20.96
18.81
15.53
11.71
8.12
5.41
3.93
3.76
4.66
6.35
8.31
10.12
11.32
11.57
10.63
8.50
5.39
1.67
-2.15
-5.65
-8.54
-10.87
-12.85
-14.80
-16.95
-19.28
-21.68
-23.89
-25.80
-27.35
-28.62
-29.71
-30.66
-31.57
-32.49
-33.51
-34.57
-35.51
-35.99
-35.50
-33.49
-29.55
-23.58
-15.85
-7.06
1.95
10.29
17.31
22.75
26.60
29.03
30.13
30.03
28.75
26.46
23.42
20.02
16.65
13.59
10.94
8.65
6.63
4.78
3.11
1.71
0.69
0.05
-0.29
-0.51
-0.83
-1.30
-1.81
-2.08
-1.88
-1.14
-0.04
1.06
1.78
1.85
1.19
-0.03
-1.44
-2.64
-3.34
-3.50
-3.32
-3.21
-3.57
-4.62
-6.25
-8.12
-9.84
-11.28
-12.59
-14.13
-16.23
-18.94
-22.02
-24.95
-27.22
-28.35
-27.97
-25.87
-21.90
-16.15
-9.00
-1.13
6.65
13.51
18.87
22.48
24.36
24.74
23.90
22.15
19.77
17.05
14.29
11.73
9.63
8.05
6.99
6.36
6.01
5.81
5.71
5.68
5.75
5.91
6.11
6.17
5.94
5.30
4.25
2.91
1.44
-0.05
-1.54
-3.09
-4.77
-6.59
-8.38
-9.96
-11.15
-11.94
-12.42
-12.83
-13.37
-14.13
-15.12
-16.23
-17.37
-18.50
-19.67
-20.99
-22.60
-24.62
-27.09
-29.92
-32.84
-35.46
-37.25
-37.66
-36.23
-32.72
-27.23
-20.15
-12.19
-4.08
3.53
10.19
15.74
20.15
23.50
25.80
27.07
27.28
26.47
24.82
22.63
20.29
18.13
16.38
15.07
14.12
13.40
12.87
12.56
12.59
12.95
13.55
14.13
14.40
14.16
13.33
12.02
10.41
8.73
7.14
5.71
4.35
2.89
1.14
-0.96
-3.31
-5.70
-7.87
-9.68
-11.17
-12.49
-13.85
-15.40
-17.11
-18.88
-20.56
-22.03
-23.22
-24.25
-25.28
-26.60
-28.45
-30.96
-33.99
-37.17
-39.83
-41.22
-40.59
-37.41
-31.55
-23.41
-13.87
-4.17
4.47
11.22
15.84
18.64
20.19
21.00
21.30
21.07
20.22
18.78
16.95
15.01
13.21
11.70
10.60
10.11
10.66
12.67
16.38
21.64
27.67
33.34
37.37
38.84
37.50
33.89
29.12
24.53
21.14
19.32
18.70
18.31
16.97
13.69
7.98
-0.08
-9.97
-20.93
-32.25
-43.32
-53.65
-62.94
-70.92
-77.36
-82.17
-85.39
-87.22
-87.96
-87.85
-86.95
-85.30
-82.96
-80.18
-77.55
-75.72
-75.21
-76.09
-77.75
-79.10
-78.79
-75.57
-68.43
-56.82
-40.60
-20.18
3.39
28.58
53.51
76.26
95.24
109.42
118.44
122.54
122.48
119.32
114.30
108.77
103.78
99.89
97.16
95.22
93.64
91.90
89.42
85.62
80.09
72.60
63.15
52.08
40.03
27.81
16.12
5.30
-4.73
-13.95
-22.49
-30.56
-38.44
-46.40
-54.53
-62.94
-71.89
-81.78
-92.07
-102.34
-112.66
-123.62
-135.79
-149.18
-163.39
-177.81
-191.95
-203.48
-210.71
-213.53
-213.16
-210.68
-205.64
-196.22
-180.10
-155.77
-120.27
-73.16
-17.81
39.62
93.21
139.76
178.85
211.80
240.45
270.41
306.01
348.07
393.89
439.66
482.61
520.92
553.17
553.00
504.41
411.22
295.59
181.39
82.18
1.73
-61.60
-111.19
-150.45
-178.31
-193.87
-198.81
-197.64
-195.25
-194.60
-196.91
-202.18
-209.84
-216.05
-217.40
-213.03
-204.80
-196.31
-188.66
-182.21
-176.93
-172.80
-168.05
-161.13
-152.17
-142.89
-135.34
-130.51
-128.67
-129.46
-132.26
-135.60
-137.81
-138.22
-137.16
-135.29
-132.86
-129.93
-126.09
-120.49
-114.97
-110.21
-106.82
-105.44
-106.43
-109.38
-113.54
-117.94
-121.64
-123.78
-123.13
-118.69
-109.84
-96.46
-78.70
-57.40
-34.09
-10.80
10.13
26.91
38.27
43.63
43.25
38.86
32.67
26.91
23.33
23.04
26.73
34.50
45.76
59.25
75.05
92.66
110.75
127.04
139.04
145.16
145.19
140.08
131.57
125.28
126.08
136.42
155.51
180.27
207.30
234.12
259.31
282.14
308.06
341.60
384.00
432.14
479.97
521.78
554.05
575.64
587.09
597.56
615.56
645.77
687.34
735.77
786.66
837.92
889.81
896.06
826.81
676.00
467.93
243.08
35.92
-136.06
-270.12
-371.41
-448.00
-499.66
-525.93
-528.82
-514.73
-492.70
-470.81
-454.04
-444.01
-440.84
-437.47
-427.54
-407.92
-380.34
-349.65
-320.94
-297.65
-278.60
-265.42
-254.82
-243.74
-230.88
-217.64
-207.10
-202.08
-203.86
-211.48
-223.54
-235.90
-244.87
-248.22
-245.82
-239.19
-230.58
-222.15
-214.68
-208.84
-203.67
-197.75
-189.68
-178.37
-162.90
-141.99
-119.22
-95.60
-71.68
-47.26
-21.88
4.78
32.63
61.04
88.85
114.57
137.67
157.90
175.77
192.21
208.45
225.79
245.47
268.13
293.25
319.23
342.52
358.61
363.48
355.08
334.16
303.82
268.27
231.23
195.64
163.10
134.58
110.94
92.87
80.50
72.94
68.32
64.41
59.63
53.19
45.11
36.05
26.98
19.05
13.28
10.22
9.44
9.47
8.11
3.25
-6.11
-19.57
-35.59
-52.46
-69.08
-85.27
-101.38
-117.36
-132.07
-143.12
-147.55
-142.92
-128.39
-105.18
-76.29
-45.67
-16.94
7.54
26.93
41.57
52.17
59.11
62.21
60.99
55.22
45.32
32.30
17.56
2.24
-13.11
-28.55
-44.66
-61.84
-80.00
-98.20
-115.06
-129.14
-139.41
-145.47
-147.33
-145.25
-139.54
-130.72
-119.80
-108.43
-98.53
-91.46
-87.15
-83.73
-78.16
-67.47
-50.19
-27.13
-1.19
23.66
43.68
56.45
61.16
58.52
50.19
38.04
23.69
8.19
-8.06
-25.21
-43.82
-64.69
-88.72
-116.59
-148.11
-181.47
-212.63
-235.87
-245.20
-236.30
-208.26
-163.89
-108.62
-48.43
12.07
70.32
125.20
175.50
218.92
252.05
271.60
275.92
265.99
245.40
219.18
192.31
168.27
148.46
132.37
118.51
105.50
92.79
80.80
70.53
62.94
58.43
56.68
56.77
57.60
58.14
57.66
55.73
52.25
47.48
41.86
35.90
29.73
23.06
15.19
5.38
-6.78
-21.25
-37.79
-56.31
-77.13
-100.77
-127.33
-156.03
-185.05
-212.09
-235.02
-252.61
-264.56
-271.24
-273.05
-270.01
-261.62
-247.31
-226.95
-201.29
-172.04
-141.51
-111.95
-85.08
-61.70
-41.75
-24.64
-9.68
3.62
15.36
25.46
33.77
40.24
44.93
47.92
49.34
49.36
48.27
46.44
44.28
42.03
39.69
36.98
33.45
28.77
22.90
16.30
9.69
3.87
-0.73
-4.25
-7.36
-10.97
-15.76
-21.80
