1.589055551000000000e+09
-2.999999999999999889e-02
5.059999999999999609e+00
1.791000000000000014e+01
7.934000000000000341e+01
2.282500000000000000e+02
-4.865000000000000000e+02
-5.900000000000000355e+00
1.561399999999999864e+02
4.656000000000000227e+01
3.240000000000000213e+00
-5.870000000000000107e+00
-1.441000000000000014e+01
3.600000000000000089e+00
4.769999999999999574e+00
3.364000000000000057e+01
5.330000000000000071e+00
-3.717000000000000171e+01
-1.400000000000000000e+01
2.073000000000000043e+01
1.870000000000000107e+00
-9.070000000000000284e+00
-9.740000000000000213e+00
-2.785999999999999943e+01
3.754999999999999716e+01
4.620000000000000107e+00
-3.436999999999999744e+01
-2.067999999999999972e+01
-4.485000000000000142e+01
2.666100000000000136e+02
-1.482700000000000102e+02
-1.943600000000000136e+02
1.335900000000000034e+02
9.179999999999999716e+00
-1.280200000000000102e+02
-1.855999999999999872e+01
1.358199999999999932e+02
-8.848000000000000398e+01
5.480000000000000426e+00
6.134000000000000341e+01
9.223000000000000398e+01
-3.400000000000000244e-01
-8.404999999999999716e+01
-1.218999999999999950e+01
-8.693000000000000682e+01
7.448999999999999488e+01
1.061599999999999966e+02
1.527999999999999936e+01
-1.761200000000000045e+02
-1.114899999999999949e+02
2.978000000000000114e+02
1.166299999999999955e+02
-4.175299999999999727e+02
-3.934300000000000068e+02
6.960999999999999943e+01
2.020900000000000034e+02
3.465999999999999659e+01
8.157999999999999829e+01
1.501800000000000068e+02
-3.700000000000000178e+00
-1.079000000000000057e+02
4.582000000000000028e+01
8.190000000000000568e+01
-5.315999999999999659e+01
3.092000000000000171e+01
7.393000000000000682e+01
-1.580000000000000071e+00
-6.061999999999999744e+01
3.235000000000000142e+01
1.698000000000000043e+01
-2.246000000000000085e+01
-3.999000000000000199e+01
5.709000000000000341e+01
6.030000000000000249e+00
-3.247999999999999687e+01
1.660000000000000142e+01
3.645000000000000284e+01
-8.060000000000000497e+00
-6.246999999999999886e+01
3.802000000000000313e+01
1.926000000000000156e+01
-2.017999999999999972e+01
-5.207999999999999829e+01
4.086999999999999744e+01
1.152999999999999936e+01
-2.732000000000000028e+01
-1.229999999999999982e+00
3.557999999999999829e+01
-2.240000000000000213e+00
-4.072999999999999687e+01
2.901000000000000156e+01
2.432000000000000028e+01
-6.959999999999999964e+00
-5.972999999999999687e+01
3.779999999999999716e+01
1.983999999999999986e+01
-2.214000000000000057e+01
-5.232000000000000028e+01
3.725999999999999801e+01
1.239000000000000057e+01
-2.417999999999999972e+01
-2.437999999999999901e+01
4.342999999999999972e+01
1.000999999999999979e+01
-3.539999999999999858e+01
6.190000000000000391e+00
5.517999999999999972e+01
3.653999999999999915e+01
-1.317400000000000091e+02
-2.310000000000000142e+01
4.860999999999999943e+01
3.032000000000000028e+01
-2.791000000000000014e+01
2.630000000000000071e+01
1.214500000000000028e+02
-7.387999999999999545e+01
-9.389000000000000057e+01
6.729999999999999716e+01
-5.879999999999999893e+00
-4.450999999999999801e+01
-2.523999999999999844e+01
1.045900000000000034e+02
-1.635000000000000142e+01
-9.856999999999999318e+01
2.678999999999999915e+01
1.372000000000000064e+01
-3.919999999999999929e+00
-5.043999999999999773e+01
3.910999999999999943e+01
4.997999999999999687e+01
9.189999999999999503e+00
-4.953000000000000114e+01
6.290999999999999659e+01
2.787000000000000099e+01
-2.116000000000000014e+01
-2.971000000000000085e+01
4.128999999999999915e+01
8.419999999999999929e+00
-3.771000000000000085e+01
1.288000000000000078e+01
4.114000000000000057e+01
-1.617000000000000171e+01
-6.964000000000000057e+01
3.192000000000000171e+01
3.148999999999999844e+01
-1.385999999999999943e+01
-5.670000000000000284e+01
4.953999999999999915e+01
1.673000000000000043e+01
-1.726999999999999957e+01
-1.876000000000000156e+01
5.442000000000000171e+01
4.281000000000000227e+01
-2.407000000000000028e+01
-3.590999999999999659e+01
-4.815999999999999659e+01
-1.669999999999999929e+01
-3.996999999999999886e+01
6.784000000000000341e+01
4.079999999999999716e+01
-4.179999999999999716e+00
-5.645000000000000284e+01
5.327000000000000313e+01
5.552000000000000313e+01
4.700000000000000000e+01
-5.775999999999999801e+01
4.580000000000000071e+00
-6.839999999999999858e+00
-2.771999999999999886e+01
3.066000000000000014e+01
4.117999999999999972e+01
6.698999999999999488e+01
-6.353999999999999915e+01
-8.834000000000000341e+01
-1.909300000000000068e+02
9.595000000000000284e+01
2.703199999999999932e+02
-1.293899999999999864e+02
2.467999999999999972e+01
2.017999999999999972e+01
-6.799999999999999822e+00
-2.279999999999999805e+00
-3.046999999999999886e+01
6.610000000000000320e+00
1.959999999999999964e+00
5.968999999999999773e+01
1.900000000000000022e-01
-4.760999999999999943e+01
-7.526000000000000512e+01
1.054200000000000017e+02
4.475000000000000000e+01
-1.766299999999999955e+02
-7.604999999999999716e+01
1.224000000000000021e+01
1.991000000000000014e+01
-7.567000000000000171e+01
-1.790000000000000036e+00
5.389999999999999858e+01
9.581999999999999318e+01
-9.956000000000000227e+01
6.099000000000000199e+01
4.131000000000000227e+01
1.769999999999999929e+01
-1.176400000000000006e+02
-7.219999999999999751e+00
9.704000000000000625e+01
1.532800000000000011e+02
-6.467000000000000171e+01
-3.342000000000000171e+01
-3.217999999999999972e+01
-4.200000000000000178e+00
-9.310999999999999943e+01
1.112699999999999960e+02
2.216699999999999875e+02
-1.673100000000000023e+02
-1.352500000000000000e+02
-2.837000000000000099e+01
9.539999999999999147e+00
9.020000000000000284e+01
-4.167999999999999972e+01
-7.989000000000000057e+01
-1.670099999999999909e+02
-9.062000000000000455e+01
3.823899999999999864e+02
5.746999999999999886e+01
2.730299999999999727e+02
1.882999999999999829e+01
-4.090199999999999818e+02
-3.586700000000000159e+02
6.628000000000000114e+01
2.623999999999999773e+02
7.714000000000000057e+01
9.845999999999999375e+01
6.140999999999999659e+01
7.426999999999999602e+01
-8.340000000000000568e+01
-9.487000000000000455e+01
-4.250500000000000114e+02
3.161399999999999864e+02
1.024000000000000057e+02
5.600000000000000533e-01
-2.342000000000000171e+01
-1.307000000000000028e+01
-4.989999999999999858e+01
-8.581000000000000227e+01
6.814000000000000057e+01
-6.678000000000000114e+01
7.440000000000000391e+00
-9.470999999999999375e+01
-3.386299999999999955e+02
6.842000000000000171e+01
3.588899999999999864e+02
-9.079000000000000625e+01
-1.817800000000000011e+02
-1.127399999999999949e+02
-1.277999999999999936e+01
1.402100000000000080e+02
-4.835000000000000142e+01
-1.383499999999999943e+02
6.864000000000000057e+01
7.823999999999999488e+01
8.804000000000000625e+01
1.693499999999999943e+02
-5.945000000000000284e+01
-5.965999999999999659e+01
3.439999999999999947e+00
9.726999999999999602e+01
-2.211200000000000045e+02
9.880000000000000782e+00
7.642000000000000171e+01
-2.737000000000000099e+01
-3.739999999999999858e+01
8.029000000000000625e+01
2.705999999999999872e+01
3.596999999999999886e+01
9.492000000000000171e+01
1.221299999999999955e+02
2.100000000000000000e+01
-9.776000000000000512e+01
-3.493999999999999773e+02
-1.748899999999999864e+02
-6.811200000000000045e+02
3.409800000000000182e+02
1.187800000000000011e+02
-2.869999999999999929e+01
5.000000000000000278e-02
-6.085999999999999943e+01
2.412000000000000099e+01
1.733000000000000114e+02
-4.310000000000000142e+01
-1.581000000000000050e+01
1.660200000000000102e+02
2.055900000000000034e+02
4.440999999999999659e+01
5.540000000000000036e+00
-2.810899999999999750e+02
-6.968999999999999773e+02
-3.140099999999999909e+02
2.817000000000000171e+01
1.942700000000000102e+02
5.073500000000000227e+02
1.538300000000000125e+02
-1.957000000000000028e+01
-1.728000000000000114e+01
3.080000000000000071e+01
4.303999999999999915e+01
-8.553000000000000114e+01
-6.498000000000000398e+01
4.671000000000000085e+01
1.528999999999999915e+01
-1.063000000000000078e+01
2.890000000000000124e+00
-1.739000000000000057e+01
1.050000000000000000e+01
3.089999999999999858e+00
-6.690000000000000391e+00
9.399999999999999467e-01
-1.008000000000000007e+01
-5.684000000000000341e+01
-2.144600000000000080e+02
-1.336500000000000057e+02
-3.713000000000000256e+01
1.383400000000000034e+02
1.335200000000000102e+02
2.103300000000000125e+02
-2.537000000000000099e+01
-2.013300000000000125e+02
5.491200000000000045e+02
1.714600000000000080e+02
-9.835999999999999943e+01
-1.062099999999999937e+02
-2.110999999999999943e+02
-1.545999999999999943e+02
-8.123000000000000398e+01
-3.435999999999999943e+01
-3.264999999999999858e+01
-2.276000000000000156e+01
-1.477999999999999936e+01
1.339000000000000057e+01
-2.359999999999999876e+00
-2.970000000000000195e+00
-1.427999999999999936e+01
1.544999999999999929e+01
7.669999999999999929e+00
-1.026999999999999957e+01
-1.450999999999999979e+01
2.408999999999999986e+01
3.859999999999999876e+00
-5.000000000000000000e+00
-1.905000000000000071e+01
2.907000000000000028e+01
8.660000000000000142e+00
5.259999999999999787e+00
-2.237000000000000099e+01
1.239000000000000057e+01
-4.259999999999999787e+00
2.000000000000000111e-01
5.179999999999999716e+00
2.919999999999999929e+00
3.609999999999999876e+00
-2.042999999999999972e+01
2.003999999999999915e+01
6.500000000000000222e-01
6.820000000000000284e+00
-9.769999999999999574e+00
3.151999999999999957e+01
1.687000000000000099e+01
-5.179999999999999716e+00
-8.150000000000000355e+00
-1.649999999999999911e+00
9.810000000000000497e+00
-2.971000000000000085e+01
3.928999999999999915e+01
-6.859999999999999432e+01
-2.161299999999999955e+02
6.428000000000000114e+01
6.484400000000000546e+02
-4.073899999999999864e+02
-3.320000000000000000e+02
1.670800000000000125e+02
5.778600000000000136e+02
5.531299999999999955e+02
-5.681499999999999773e+02
-1.223499999999999943e+02
-1.675300000000000011e+02
-3.707999999999999829e+01
6.065999999999999659e+01
2.445099999999999909e+02
-5.547999999999999687e+01
-1.682199999999999989e+02
1.143400000000000034e+02
4.857000000000000028e+01
1.723300000000000125e+02
-7.715000000000000568e+01
-1.869799999999999898e+02
-1.658700000000000045e+02
-8.556000000000000227e+01
4.604999999999999716e+01
-3.107000000000000028e+01
-2.314300000000000068e+02
-9.281000000000000227e+01
2.143799999999999955e+02
2.823500000000000227e+02
-2.287999999999999901e+01
-3.727000000000000313e+01
-3.710999999999999943e+01
-5.717000000000000171e+01
5.867000000000000171e+01
8.810999999999999943e+01
-1.353999999999999915e+01
-6.771999999999999886e+01
8.054999999999999716e+01
-1.000000000000000056e-01
-3.600999999999999801e+01
6.171000000000000085e+01
3.239000000000000057e+01
-3.005999999999999872e+01
-1.337100000000000080e+02
-7.090000000000000568e+01
1.681999999999999886e+02
1.629000000000000057e+02
-2.428000000000000114e+01
-9.590000000000000568e+01
-1.761899999999999977e+02
-5.324000000000000199e+01
8.854999999999999716e+01
3.918999999999999773e+01
-5.514000000000000057e+01
-7.762000000000000455e+01
1.335600000000000023e+02
-2.678000000000000114e+01
-3.527000000000000313e+01
-6.088000000000000256e+01
6.256000000000000227e+01
1.436999999999999922e+01
-2.753000000000000114e+01
5.299999999999999822e+00
3.990999999999999659e+01
2.923000000000000043e+01
1.355800000000000125e+02
-4.867999999999999972e+01
3.162000000000000099e+01
5.456000000000000227e+01
-4.164000000000000057e+01
-9.226000000000000512e+01
3.412599999999999909e+02
-1.141200000000000045e+02
-4.240000000000000213e+00
3.439999999999999858e+01
8.918000000000000682e+01
-2.533999999999999986e+01
-6.125999999999999801e+01
6.570999999999999375e+01
1.117300000000000040e+02
-8.750000000000000000e+00
2.337199999999999989e+02
-3.860000000000000142e+01
-3.727200000000000273e+02
-2.484300000000000068e+02
4.758100000000000023e+02
5.029999999999999716e+01
-3.212400000000000091e+02
4.353000000000000114e+01
1.869999999999999929e+01
-4.424000000000000199e+01
-8.509999999999999787e+00
-4.421000000000000085e+01
-6.889000000000000057e+01
2.751000000000000156e+01
1.373899999999999864e+02
-2.062999999999999901e+01
-6.754000000000000625e+01
4.740999999999999659e+01
-1.206000000000000050e+01
-3.215999999999999659e+01
3.324000000000000199e+01
2.519999999999999929e+01
-3.831000000000000227e+01
-4.388000000000000256e+01
3.410000000000000142e+01
9.740000000000000213e+00
-4.692000000000000171e+01
5.043999999999999773e+01
2.346000000000000085e+01
-2.451999999999999957e+01
-5.375999999999999801e+01
3.475999999999999801e+01
-1.298000000000000043e+01
-1.291999999999999993e+01
1.610000000000000098e+00
2.508999999999999986e+01
3.082999999999999829e+01
-2.880999999999999872e+01
1.880999999999999872e+01
-7.410000000000000142e+00
-1.000000000000000021e-02
-5.735000000000000142e+01
1.581000000000000050e+01
1.964000000000000057e+01
4.589999999999999858e+00
1.036999999999999922e+01
1.474000000000000021e+01
7.360000000000000320e+00
1.200999999999999979e+01
8.539999999999999147e+00
-1.742999999999999972e+01
-8.159000000000000341e+01
-2.534099999999999966e+02
2.290200000000000102e+02
-1.731399999999999864e+02
-7.740999999999999659e+01
5.181000000000000227e+01
3.360000000000000142e+01
1.050600000000000023e+02
1.621599999999999966e+02
-1.230000000000000071e+01
1.538300000000000125e+02
4.175999999999999801e+01
-1.121200000000000045e+02
4.920000000000000284e+01
1.418300000000000125e+02
2.635000000000000142e+01
-6.327000000000000313e+01
1.780800000000000125e+02
6.829000000000000625e+01
2.342000000000000171e+01
2.289499999999999886e+02
-4.457999999999999829e+01
-1.617999999999999972e+01
-8.179999999999999716e+01
-2.097100000000000080e+02
-1.944399999999999977e+02
-1.124300000000000068e+02
-1.269699999999999989e+02
-4.308100000000000023e+02
-6.630900000000000318e+02
7.622699999999999818e+02
5.715900000000000318e+02
-2.894999999999999929e+01
-1.178400000000000034e+02
-3.543999999999999773e+01
3.791899999999999977e+02
-8.085999999999999943e+01
8.021999999999999886e+01
2.544699999999999989e+02
-1.427599999999999909e+02
-1.730699999999999932e+02
-6.520000000000000284e+01
-3.191000000000000014e+01
-1.760000000000000009e+00
-4.335999999999999943e+01
-1.120000000000000107e+00
-3.171000000000000085e+01
-1.050000000000000000e+01
5.940000000000000391e+00
9.000000000000000000e+00
-1.139000000000000057e+01
-4.830000000000000071e+00
2.766000000000000014e+01
6.580000000000000071e+00
-1.177999999999999936e+01
-1.989999999999999991e+00
6.089999999999999858e+00
-1.096000000000000085e+01
-4.679999999999999716e+00
1.732999999999999829e+01
1.837999999999999901e+01
-2.626000000000000156e+01
-1.790000000000000036e+00
5.600000000000000533e-01
9.419999999999999929e+00
-4.080000000000000071e+00
-9.580000000000000071e+00
-8.810000000000000497e+00
1.908999999999999986e+01
-1.760000000000000009e+00
-9.560000000000000497e+00
-6.278999999999999915e+01
-3.070899999999999750e+02
2.793100000000000023e+02
3.932699999999999818e+02
-1.942400000000000091e+02
-1.647299999999999898e+02
-1.919300000000000068e+02
-5.996000000000000085e+01
5.006499999999999773e+02
1.535930000000000064e+03
-7.334700000000000273e+02
-2.224399999999999977e+02
5.132999999999999829e+01
2.263300000000000125e+02
1.410999999999999943e+01
-2.226000000000000156e+01
-3.452000000000000313e+01
4.739499999999999886e+02
-5.249000000000000199e+01
-7.059999999999999609e+00
5.946999999999999886e+01
9.949999999999999289e+00
-1.568999999999999950e+01
-7.657999999999999829e+01
-2.400200000000000102e+02
-1.597700000000000102e+02
-6.753000000000000114e+01
5.460000000000000142e+01
2.046999999999999886e+01
-3.653000000000000114e+01
3.900999999999999801e+01
8.699999999999999956e-01
-5.290000000000000036e+00
-1.600000000000000000e+01
3.709999999999999964e+00
-1.396000000000000085e+01
3.370000000000000284e+01
-4.480000000000000426e+00
6.199999999999999956e-01
5.519999999999999574e+00
-1.240000000000000036e+01
2.635999999999999943e+01
5.669999999999999929e+00
-6.809999999999999609e+00
-1.418999999999999950e+01
-8.599999999999999867e-01
9.330000000000000071e+00
-2.569999999999999840e+00
1.429999999999999938e+00
4.950000000000000178e+00
1.100000000000000006e-01
-2.855000000000000071e+01
-1.701999999999999957e+01
1.064000000000000057e+01
-4.122999999999999687e+01
-1.653000000000000114e+02
-1.142199999999999989e+02
1.631399999999999864e+02
9.495000000000000284e+01
2.276899999999999977e+02
1.714799999999999898e+02
2.434199999999999875e+02
-8.057999999999999829e+01
-3.354599999999999795e+02
-1.110999999999999943e+02
3.849000000000000199e+01
-9.129999999999999716e+01
-1.886299999999999955e+02
5.136999999999999744e+01
1.605300000000000011e+02
-4.079999999999999716e+01
1.403799999999999955e+02
3.803000000000000114e+01
-7.725000000000000000e+01
5.411999999999999744e+01
1.307599999999999909e+02
-5.564000000000000057e+01
-6.631000000000000227e+01
5.182999999999999829e+01
2.446999999999999886e+01
-4.529999999999999716e+01
-7.570000000000000284e+00
-2.094999999999999929e+01
-7.745000000000000284e+01
-1.065199999999999960e+02
1.169399999999999977e+02
9.114000000000000057e+01
-5.614000000000000057e+01
-1.276099999999999994e+02
4.015999999999999659e+01
1.234500000000000028e+02
-9.551999999999999602e+01
-7.268999999999999773e+01
1.654799999999999898e+02
1.550000000000000000e+01
-1.148400000000000034e+02
4.003999999999999915e+01
9.850000000000000000e+01
1.031099999999999994e+02
-1.737999999999999901e+01
1.154200000000000017e+02
4.385000000000000142e+01
-6.156000000000000227e+01
2.158999999999999986e+01
-6.542000000000000171e+01
-4.389999999999999858e+01
-5.082999999999999829e+01
-3.310000000000000142e+01
-9.039999999999999147e+00
2.914999999999999858e+01
-2.835000000000000142e+01
-1.844999999999999929e+01
-4.014000000000000057e+01
2.042999999999999972e+01
-8.580000000000000071e+00
-1.011999999999999922e+01
-2.282000000000000028e+01
-7.669999999999999929e+00
1.410999999999999943e+01
-3.187000000000000099e+01
8.750000000000000000e+00
1.707000000000000028e+01
5.400000000000000355e-01
-1.198000000000000043e+01
-2.408999999999999986e+01
-6.614000000000000057e+01
-2.667699999999999818e+02
3.023999999999999844e+01
2.366999999999999886e+02
-3.117999999999999972e+01
-2.735999999999999943e+01
4.182500000000000000e+02
-1.439000000000000057e+01
-3.775000000000000000e+01
-2.076000000000000156e+01
2.051000000000000156e+01
-1.290000000000000036e+00
-3.593999999999999773e+01
-6.620000000000000107e+00
-1.056000000000000050e+01
-3.114000000000000057e+01
-4.025000000000000000e+01
8.349999999999999645e+00
-2.910000000000000142e+00
-1.127900000000000063e+02
-1.548000000000000114e+02
2.337599999999999909e+02
1.206500000000000057e+02
-2.051999999999999957e+01
-9.151000000000000512e+01
1.123599999999999994e+02
4.163000000000000256e+01
-1.810000000000000142e+01
-3.007000000000000028e+01
4.527000000000000313e+01
2.180000000000000160e+00
-5.635999999999999943e+01
2.430000000000000160e+00
1.796999999999999886e+01
-1.667000000000000171e+01
-3.083999999999999986e+01
1.603999999999999915e+01
1.689000000000000057e+01
-8.759999999999999787e+00
-4.225999999999999801e+01
1.299000000000000021e+01
5.570000000000000284e+00
-3.324000000000000199e+01
-2.482000000000000028e+01
3.183999999999999986e+01
1.155000000000000071e+01
-3.446999999999999886e+01
3.850000000000000000e+01
1.767000000000000171e+01
-3.349000000000000199e+01
-3.121999999999999886e+01
5.132000000000000028e+01
1.186999999999999922e+01
-1.466999999999999993e+01
-2.744000000000000128e+01
3.218999999999999773e+01
1.550000000000000044e+00
-8.189999999999999503e+00
1.149999999999999911e+00
-6.839999999999999858e+00
-2.233999999999999986e+01
-2.933999999999999986e+01
1.285999999999999943e+01
1.821999999999999886e+01
-4.080000000000000071e+00
-1.031000000000000050e+01
3.108999999999999986e+01
1.289000000000000057e+01
-8.019999999999999574e+00
-5.769999999999999574e+00
3.500000000000000000e+00
-8.439999999999999503e+00
-1.980999999999999872e+01
1.078999999999999915e+01
2.240000000000000213e+00
-6.530000000000000249e+00
-2.976999999999999957e+01
-1.905999999999999872e+01
8.109999999999999432e+00
-2.873999999999999844e+01
1.259999999999999964e+01
1.835000000000000142e+01
-6.839999999999999858e+00
2.201800000000000068e+02
-6.053000000000000114e+01
-1.941999999999999886e+02
-7.715000000000000568e+01
1.159800000000000040e+02
6.349000000000000199e+01
5.467000000000000171e+01
2.700000000000000000e+01
-3.175000000000000000e+01
3.461999999999999744e+01
8.869999999999999218e+00
-3.413000000000000256e+01
-3.582000000000000028e+01
3.229999999999999716e+01
8.050000000000000711e+00
-1.056000000000000050e+01
-1.149000000000000021e+01
-5.219999999999999751e+00
6.400000000000000133e-01
-9.050000000000000711e+00
6.650000000000000355e+00
7.399999999999999911e-01
3.821000000000000085e+01
-2.201999999999999957e+01
-4.950000000000000178e+00
1.576800000000000068e+02
-9.300000000000000000e+01
-5.150000000000000000e+01
1.794000000000000128e+01
3.167000000000000171e+01
1.020100000000000051e+02
-8.198000000000000398e+01
-1.128900000000000006e+02
-1.014899999999999949e+02
2.305000000000000071e+01
3.614999999999999858e+01
9.376000000000000512e+01
1.063400000000000034e+02
1.262630000000000109e+03
-7.400399999999999636e+02
-1.694399999999999977e+02
4.165400000000000205e+02
-2.011500000000000057e+02
-2.406500000000000057e+02
-1.730000000000000071e+01
-3.746000000000000085e+01
2.360000000000000142e+01
8.078000000000000114e+01
-3.000000000000000000e+01
-2.332999999999999829e+01
7.459000000000000341e+01
-1.117199999999999989e+02
-2.100000000000000000e+01
-1.061500000000000057e+02
4.300999999999999801e+01
-9.679999999999999716e+00
-5.272999999999999687e+01
-2.632999999999999829e+01
4.167999999999999972e+01
-7.190000000000000568e+01
-1.375000000000000000e+01
8.717000000000000171e+01
8.746999999999999886e+01
-6.445999999999999375e+01
5.582999999999999829e+01
4.775000000000000000e+01
1.671999999999999886e+01
2.508999999999999986e+01
-4.890999999999999659e+01
-2.114000000000000057e+01
-8.929999999999999716e+00
9.998999999999999488e+01
1.903300000000000125e+02
4.197999999999999687e+01
-4.451000000000000227e+02
-3.410400000000000205e+02
1.560999999999999943e+01
8.287000000000000455e+01
3.035099999999999909e+02
2.892400000000000091e+02
3.020000000000000018e+00
-5.632000000000000028e+01
-4.892000000000000171e+01
-1.166999999999999993e+01
-1.466999999999999993e+01
-3.078999999999999915e+01
2.750000000000000000e+01
6.070000000000000284e+00
-3.560000000000000053e+00
-4.565999999999999659e+01
1.132000000000000028e+01
9.650000000000000355e+00
-1.106000000000000050e+01
5.520000000000000284e+01
-3.486999999999999744e+01
2.959999999999999964e+00
-5.999999999999999778e-02
2.512000000000000099e+01
-8.880000000000000782e+00
-2.014999999999999858e+01
-7.410000000000000142e+00
1.502999999999999936e+01
-6.440000000000000391e+00
-1.075000000000000000e+01
1.026999999999999957e+01
-1.232000000000000028e+01
-1.648999999999999844e+01
-2.479999999999999982e+00
-7.160000000000000142e+00
7.600000000000000089e-01
-7.879999999999999893e+00
9.150000000000000355e+00
3.299999999999999822e+00
-7.639999999999999680e+00
5.339999999999999858e+00
4.370000000000000107e+00
-2.620000000000000107e+00
-8.220000000000000639e+00
1.685999999999999943e+01
2.060000000000000053e+00
-8.359999999999999432e+00
-6.580000000000000071e+00
4.240000000000000213e+00
-5.410000000000000142e+00
-4.309999999999999609e+00
-1.310000000000000053e+00
3.699999999999999956e-01
-4.459999999999999964e+00
-1.426999999999999957e+01
1.510000000000000009e+00
6.019999999999999574e+00
-1.621999999999999886e+01
-1.078499999999999943e+02
2.310300000000000011e+02
-1.015400000000000063e+02
-8.012999999999999545e+01
-1.213499999999999943e+02
-4.240000000000000213e+00
-9.589999999999999858e+00
-5.910999999999999943e+01
1.037000000000000028e+02
1.493700000000000045e+02
6.154099999999999682e+02
1.373119999999999891e+03
-9.609099999999999682e+02
-2.903700000000000045e+02
1.014000000000000057e+02
-9.943999999999999773e+01
-1.293499999999999943e+02
1.537199999999999989e+02
2.712000000000000099e+01
5.346000000000000085e+01
-2.505999999999999872e+01
1.059999999999999964e+01
9.449999999999999289e+00
-1.635000000000000142e+01
-3.627000000000000313e+01
-1.320800000000000125e+02
2.384099999999999966e+02
-1.249399999999999977e+02
-5.268999999999999773e+01
5.028000000000000114e+01
-2.271000000000000085e+01
3.695000000000000284e+01
1.200699999999999932e+02
1.648000000000000114e+02
6.347999999999999687e+01
-1.231800000000000068e+02
-2.378000000000000114e+02
-3.651800000000000068e+02
3.375299999999999727e+02
3.399200000000000159e+02
9.984999999999999432e+01
-1.477999999999999936e+01
-3.119599999999999795e+02
-1.924399999999999977e+02
7.523000000000000398e+01
-1.066299999999999955e+02
-7.784000000000000341e+01
1.107399999999999949e+02
1.535600000000000023e+02
-6.325000000000000000e+01
9.979000000000000625e+01
1.002900000000000063e+02
-5.868999999999999773e+01
1.714300000000000068e+02
6.032999999999999829e+01
-1.000600000000000023e+02
-1.723799999999999955e+02
8.060999999999999943e+01
-5.084000000000000341e+01
-1.099399999999999977e+02
1.016099999999999994e+02
3.784000000000000341e+01
-7.712000000000000455e+01
-1.973400000000000034e+02
1.478799999999999955e+02
2.457999999999999829e+01
-1.126700000000000017e+02
3.399999999999999911e+00
9.556000000000000227e+01
-3.436999999999999744e+01
-1.393300000000000125e+02
9.515000000000000568e+01
2.196000000000000085e+01
2.299999999999999822e+00
-1.422199999999999989e+02
2.126200000000000045e+02
7.198000000000000398e+01
-9.404999999999999716e+01
-1.792199999999999989e+02
1.643300000000000125e+02
2.451000000000000156e+01
-1.167500000000000000e+02
-2.035999999999999943e+01
1.322299999999999898e+02
-1.575000000000000000e+01
-1.055699999999999932e+02
6.034000000000000341e+01
5.814999999999999858e+01
-2.130000000000000071e+01
-1.266400000000000006e+02
9.134000000000000341e+01
3.342999999999999972e+01
-2.064000000000000057e+01
-9.185999999999999943e+01
1.227000000000000028e+02
2.605000000000000071e+01
-4.064000000000000057e+01
-9.232999999999999829e+01
6.981999999999999318e+01
5.000000000000000278e-02
-5.996999999999999886e+01
6.854999999999999716e+01
3.335999999999999943e+01
-3.042999999999999972e+01
-7.062999999999999545e+01
9.804999999999999716e+01
1.182000000000000028e+01
-4.272999999999999687e+01
-6.257999999999999829e+01
6.951000000000000512e+01
-6.490000000000000213e+00
-5.884000000000000341e+01
2.807999999999999829e+01
2.478999999999999915e+01
-2.432000000000000028e+01
-4.582999999999999829e+01
7.284999999999999432e+01
1.168999999999999950e+01
-2.478000000000000114e+01
-6.007000000000000028e+01
8.545999999999999375e+01
-0.000000000000000000e+00
-3.282000000000000028e+01
-6.204999999999999716e+01
5.438000000000000256e+01
-7.800000000000000266e-01
-2.837999999999999901e+01
-3.160000000000000142e+01
2.673000000000000043e+01
-6.190000000000000391e+00
-4.310000000000000142e+01
1.139999999999999902e+00
2.244000000000000128e+01
-2.382000000000000028e+01
-5.325000000000000000e+01
5.079999999999999716e+01
-1.217999999999999972e+02
-1.141899999999999977e+02
1.948499999999999943e+02
1.168799999999999955e+02
-3.105999999999999872e+01
1.384000000000000057e+02
-1.942999999999999972e+01
-7.845999999999999375e+01
-4.242999999999999972e+01
3.835999999999999943e+01
-3.044000000000000128e+01
8.439999999999999503e+00
-1.246000000000000085e+01
-3.071000000000000085e+01
-1.949999999999999956e+00
-4.919999999999999929e+00
3.450000000000000000e+01
-1.258999999999999986e+01
8.299999999999999600e-01
1.544999999999999929e+01
-3.096000000000000085e+01
-1.994999999999999929e+01
1.413000000000000078e+01
6.250000000000000000e+00
-1.069999999999999929e+01
-2.412000000000000099e+01
3.221999999999999886e+01
8.679999999999999716e+00
-1.108999999999999986e+01
-2.332999999999999829e+01
3.275999999999999801e+01
4.910000000000000142e+00
-5.950000000000000178e+00
-2.319999999999999929e+01
1.760000000000000142e+01
-2.144000000000000128e+01
-2.082999999999999829e+01
-5.969999999999999751e+00
2.610000000000000142e+01
8.310000000000000497e+00
-2.167999999999999972e+01
-2.357999999999999829e+01
1.358999999999999986e+01
-1.139999999999999902e+00
-8.119999999999999218e+00
-1.129999999999999893e+00
6.360000000000000320e+00
-3.089999999999999858e+00
-2.098999999999999844e+01
1.018999999999999950e+01
1.286999999999999922e+01
1.139999999999999902e+00
-2.528000000000000114e+01
1.583999999999999986e+01
1.637999999999999901e+01
7.980000000000000426e+00
-8.529999999999999716e+01
2.857999999999999829e+01
9.190000000000000568e+01
-4.639999999999999858e+01
-2.135300000000000011e+02
2.704100000000000250e+02
-1.111899999999999977e+02
-1.886599999999999966e+02
-1.371599999999999966e+02
-1.231299999999999955e+02
2.332999999999999829e+01
1.260799999999999983e+02
5.870900000000000318e+02
-2.701200000000000045e+02
-3.496499999999999773e+02
-2.482199999999999989e+02
-4.725999999999999801e+01
3.192300000000000182e+02
6.831999999999999318e+01
-3.559000000000000341e+01
2.692999999999999972e+01
-9.820000000000000284e+01
-6.746999999999999886e+01
-6.468999999999999773e+01
1.755000000000000000e+02
7.053000000000000114e+01
5.379999999999999893e+00
-2.700099999999999909e+02
3.377000000000000313e+01
9.689999999999999503e+00
-1.518999999999999950e+01
8.218000000000000682e+01
3.546000000000000085e+01
-1.310999999999999943e+01
-7.790000000000000568e+01
4.856000000000000227e+01
4.568999999999999773e+01
-1.181000000000000050e+01
-4.864000000000000057e+01
3.967999999999999972e+01
-2.914000000000000057e+01
-4.307999999999999829e+01
4.440999999999999659e+01
2.619000000000000128e+01
-3.330000000000000071e+00
-5.118999999999999773e+01
5.184000000000000341e+01
-3.049999999999999822e+00
-3.660000000000000142e+01
1.368999999999999950e+01
6.310000000000000142e+01
-3.385000000000000142e+01
-6.876999999999999602e+01
-2.339999999999999858e+00
5.175000000000000000e+01
-3.340999999999999659e+01
3.899000000000000199e+01
3.949000000000000199e+01
3.169999999999999929e+00
-1.710000000000000142e+01
3.141000000000000014e+01
-6.368999999999999773e+01
2.267999999999999972e+01
-1.642999999999999972e+01
3.879999999999999716e+01
-8.039999999999999147e+00
-1.156899999999999977e+02
6.377000000000000313e+01
1.122500000000000000e+02
-8.223000000000000398e+01
-6.034000000000000341e+01
5.363000000000000256e+01
2.980000000000000071e+01
-1.252999999999999936e+01
1.457000000000000028e+01
1.535999999999999943e+01
-2.448999999999999844e+01
-5.885999999999999943e+01
2.782000000000000028e+01
-1.064000000000000057e+01
-4.478999999999999915e+01
1.021000000000000085e+01
8.209999999999999432e+01
2.120000000000000107e+00
-7.640000000000000568e+01
-3.417999999999999972e+01
2.828000000000000114e+01
1.162199999999999989e+02
-2.121800000000000068e+02
6.184000000000000341e+01
8.010999999999999943e+01
1.241800000000000068e+02
-1.117900000000000063e+02
5.610000000000000320e+00
9.209000000000000341e+01
-1.349000000000000057e+02
6.650000000000000355e+00
3.753000000000000114e+01
-1.901000000000000156e+01
-4.335999999999999943e+01
9.740000000000000213e+00
-1.224599999999999937e+02
-3.279900000000000091e+02
-3.070199999999999818e+02
5.474099999999999682e+02
1.644799999999999898e+02
-2.219699999999999989e+02
7.417000000000000171e+01
1.572199999999999989e+02
-2.228000000000000114e+02
3.264999999999999858e+01
2.491100000000000136e+02
-1.063499999999999943e+02
-1.184099999999999966e+02
1.536100000000000136e+02
2.910000000000000142e+01
-1.141899999999999977e+02
-1.542100000000000080e+02
1.502500000000000000e+02
1.143999999999999950e+01
-9.482999999999999829e+01
1.483999999999999986e+01
9.754999999999999716e+01
5.099999999999999645e+00
-6.695999999999999375e+01
6.232000000000000028e+01
7.270000000000000284e+01
7.969999999999999751e+00
-7.451999999999999602e+01
5.965999999999999659e+01
1.707000000000000028e+01
-2.278999999999999915e+01
-4.334000000000000341e+01
5.379999999999999716e+01
1.299000000000000021e+01
4.679999999999999716e+00
-1.114599999999999937e+02
4.561999999999999744e+01
-6.495000000000000284e+01
-1.474000000000000021e+01
2.560799999999999841e+02
1.711999999999999886e+02
-7.793999999999999773e+01
-1.422100000000000080e+02
-2.200000000000000178e+00
2.647799999999999727e+02
-3.275899999999999750e+02
-1.055000000000000000e+02
4.699999999999999734e-01
2.284300000000000068e+02
-1.764799999999999898e+02
-4.565999999999999659e+01
-1.840000000000000080e+00
1.031099999999999994e+02
-9.720999999999999375e+01
1.187500000000000000e+02
3.116000000000000014e+01
-2.836200000000000045e+02
-1.239899999999999949e+02
1.994499999999999886e+02
2.385399999999999920e+02
-1.342700000000000102e+02
-1.815000000000000000e+02
-1.125100000000000051e+02
1.141299999999999955e+02
4.265999999999999659e+01
-6.379999999999999893e+00
1.198199999999999932e+02
-1.009099999999999966e+02
-1.091500000000000057e+02
2.103600000000000136e+02
-7.299999999999999822e-01
-1.163499999999999943e+02
-6.000999999999999801e+01
1.267399999999999949e+02
-1.552999999999999936e+01
-2.538499999999999943e+02
2.163400000000000034e+02
1.027399999999999949e+02
-1.216299999999999955e+02
-7.729000000000000625e+01
1.903400000000000034e+02
-1.814000000000000057e+01
-2.105300000000000011e+02
1.827299999999999898e+02
1.024899999999999949e+02
-6.760999999999999943e+01
-2.236100000000000136e+02
1.953100000000000023e+02
3.306000000000000227e+01
-1.715999999999999943e+02
6.476000000000000512e+01
1.392100000000000080e+02
-5.185000000000000142e+01
-2.133400000000000034e+02
2.054699999999999989e+02
9.110999999999999943e+01
-5.284000000000000341e+01
-2.038600000000000136e+02
1.873400000000000034e+02
5.800999999999999801e+01
-7.245000000000000284e+01
-1.617100000000000080e+02
1.626200000000000045e+02
2.398999999999999844e+01
-1.171500000000000057e+02
-8.418999999999999773e+01
1.504699999999999989e+02
9.529999999999999361e+00
-1.129300000000000068e+02
-1.243999999999999950e+01
1.204699999999999989e+02
2.959999999999999964e+00
-1.074099999999999966e+02
4.132999999999999829e+01
9.604000000000000625e+01
-1.601000000000000156e+01
-1.292500000000000000e+02
1.180699999999999932e+02
7.770000000000000284e+01
-4.418999999999999773e+01
-1.515099999999999909e+02
1.462299999999999898e+02
6.815999999999999659e+01
-4.875999999999999801e+01
-1.676299999999999955e+02
1.669499999999999886e+02
6.729999999999999716e+01
-5.646000000000000085e+01
-1.714600000000000080e+02
1.616299999999999955e+02
2.828999999999999915e+01
-8.982999999999999829e+01
-9.667000000000000171e+01
1.392100000000000080e+02
8.999999999999999667e-02
-1.175600000000000023e+02
-1.516000000000000014e+01
1.288700000000000045e+02
-2.169999999999999929e+01
-1.208499999999999943e+02
8.226999999999999602e+01
1.016899999999999977e+02
-3.784000000000000341e+01
-1.464399999999999977e+02
1.671500000000000057e+02
6.751999999999999602e+01
-8.362000000000000455e+01
-2.407500000000000000e+02
2.241899999999999977e+02
2.700000000000000178e+00
-1.495999999999999943e+02
-3.938000000000000256e+01
1.623600000000000136e+02
6.509999999999999787e+00
-1.277099999999999937e+02
6.945000000000000284e+01
8.759000000000000341e+01
-1.760999999999999943e+01
-1.886999999999999886e+02
1.610600000000000023e+02
3.475000000000000000e+01
-8.303000000000000114e+01
-1.443499999999999943e+02
1.591599999999999966e+02
2.496999999999999886e+01
-5.804999999999999716e+01
-4.802000000000000313e+01
1.671000000000000085e+01
4.249000000000000199e+01
-8.135999999999999943e+01
2.017700000000000102e+02
1.231000000000000050e+01
-6.225999999999999801e+01
-3.298199999999999932e+02
2.761399999999999864e+02
-5.300000000000000266e-01
-6.150999999999999801e+01
-5.606000000000000227e+01
1.199999999999999956e-01
-1.689999999999999858e+01
-4.113000000000000256e+01
2.320999999999999943e+02
5.657000000000000028e+01
4.122999999999999687e+01
-1.050600000000000023e+02
-5.609000000000000341e+01
-4.132000000000000028e+01
-2.079600000000000080e+02
8.615999999999999659e+01
1.776800000000000068e+02
-9.190999999999999659e+01
-5.228000000000000114e+01
1.239099999999999966e+02
8.699999999999999289e+00
-5.979999999999999716e+01
7.214000000000000057e+01
-1.056000000000000050e+01
-5.950000000000000000e+01
-6.047999999999999687e+01
9.520999999999999375e+01
7.919999999999999929e+00
-5.740999999999999659e+01
4.563000000000000256e+01
-3.453999999999999915e+01
-3.120000000000000107e+00
-1.056299999999999955e+02
6.968999999999999773e+01
9.521999999999999886e+01
-5.395000000000000284e+01
4.240000000000000213e+00
1.018999999999999950e+01
2.192999999999999972e+01
-1.678000000000000114e+02
1.654499999999999886e+02
-7.667000000000000171e+01
2.380000000000000071e+01
-2.263899999999999864e+02
1.693000000000000114e+02
1.491299999999999955e+02
-6.923999999999999488e+01
-1.923600000000000136e+02
2.210000000000000000e+02
1.581000000000000050e+01
-8.384000000000000341e+01
-1.669799999999999898e+02
1.576500000000000057e+02
7.060999999999999943e+01
-5.574000000000000199e+01
-3.296600000000000250e+02
2.748299999999999841e+02
3.899000000000000199e+01
-1.134699999999999989e+02
-1.569799999999999898e+02
2.288100000000000023e+02
-1.650000000000000000e+01
1.349000000000000021e+01
1.610399999999999920e+02
-1.445200000000000102e+02
-2.005500000000000114e+02
-1.267399999999999949e+02
2.896000000000000085e+01
3.539300000000000068e+02
-2.273000000000000043e+01
-1.424799999999999898e+02
1.423899999999999864e+02
1.242399999999999949e+02
-8.756999999999999318e+01
-2.402800000000000011e+02
2.943799999999999955e+02
-1.623000000000000043e+01
-1.395099999999999909e+02
-3.004700000000000273e+02
1.953799999999999955e+02
9.350000000000000000e+01
5.084000000000000341e+01
1.516999999999999993e+01
5.074000000000000199e+01
-2.369799999999999898e+02
-5.615999999999999659e+01
1.535200000000000102e+02
2.792000000000000171e+01
-6.662000000000000455e+01
1.475000000000000000e+01
3.829999999999999716e+01
-5.190000000000000391e+00
-7.284999999999999432e+01
8.323000000000000398e+01
2.116000000000000014e+01
-4.482000000000000028e+01
2.828000000000000114e+01
4.597999999999999687e+01
-1.703999999999999915e+01
-6.803000000000000114e+01
6.100999999999999801e+01
3.234000000000000341e+01
-4.445000000000000284e+01
5.003999999999999915e+01
1.508000000000000007e+01
-2.012999999999999901e+01
-7.604999999999999716e+01
4.993999999999999773e+01
1.688499999999999943e+02
-1.104500000000000028e+02
-2.959999999999999964e+00
-1.446000000000000085e+01
1.517999999999999972e+01
-5.152000000000000313e+01
-2.891000000000000014e+01
1.256200000000000045e+02
-1.191099999999999994e+02
8.154000000000000625e+01
-7.018000000000000682e+01
9.492000000000000171e+01
-1.135199999999999960e+02
-6.311999999999999744e+01
-1.038000000000000078e+01
-9.009999999999999787e+00
3.260000000000000142e+01
1.559999999999999964e+01
1.814999999999999858e+01
-1.930999999999999872e+01
-5.595000000000000284e+01
6.628000000000000114e+01
8.919999999999999929e+00
-1.114000000000000057e+02
3.129999999999999893e+00
1.745500000000000114e+02
-9.273000000000000398e+01
-7.790999999999999659e+01
6.568999999999999773e+01
-7.223999999999999488e+01
3.906000000000000227e+01
-2.521999999999999886e+01
9.956000000000000227e+01
-7.565000000000000568e+01
9.045999999999999375e+01
-5.592999999999999972e+01
-1.435099999999999909e+02
1.362899999999999920e+02
-1.113199999999999932e+02
2.065000000000000000e+02
1.225000000000000000e+01
-1.402899999999999920e+02
-5.809000000000000341e+01
2.518300000000000125e+02
-3.968999999999999773e+01
-8.423999999999999488e+01
1.762000000000000099e+01
-1.499999999999999944e-01
3.078000000000000114e+01
-6.881999999999999318e+01
8.600000000000000000e+01
1.755999999999999872e+01
6.375999999999999801e+01
-6.139000000000000057e+01
-2.907000000000000028e+01
-4.171999999999999886e+01
-1.729999999999999982e+00
1.641100000000000136e+02
-7.148000000000000398e+01
-7.987000000000000455e+01
-3.767999999999999972e+01
6.570000000000000284e+01
2.426899999999999977e+02
-2.050800000000000125e+02
-4.436999999999999744e+01
3.166000000000000014e+01
-7.784999999999999432e+01
-2.784800000000000182e+02
3.317300000000000182e+02
1.055499999999999972e+02
-1.305399999999999920e+02
-7.821999999999999886e+01
1.449300000000000068e+02
-7.270999999999999375e+01
5.032000000000000028e+01
5.939999999999999858e+01
1.237900000000000063e+02
8.106999999999999318e+01
1.790500000000000114e+02
6.109000000000000341e+01
-5.970499999999999545e+02
-4.107200000000000273e+02
4.197900000000000205e+02
2.455800000000000125e+02
1.542400000000000091e+02
-1.195499999999999972e+02
5.075999999999999801e+01
-4.963600000000000136e+02
3.063000000000000114e+02
1.572400000000000091e+02
-2.248999999999999844e+01
-2.073000000000000043e+01
-1.696000000000000085e+01
9.370999999999999375e+01
-1.039800000000000040e+02
4.699999999999999734e-01
2.246599999999999966e+02
-1.005699999999999932e+02
-7.306000000000000227e+01
9.850000000000000000e+01
-2.357000000000000028e+01
1.939000000000000057e+01
3.507999999999999829e+01
-5.721999999999999886e+01
2.700000000000000178e-01
5.580000000000000071e+00
8.004999999999999716e+01
1.274000000000000021e+01
1.419999999999999929e+00
5.460000000000000142e+01
1.935000000000000142e+01
-2.639000000000000057e+01
2.610999999999999943e+01
-8.221999999999999886e+01
1.510800000000000125e+02
-4.959999999999999964e+00
8.898000000000000398e+01
4.157000000000000028e+01
-7.203000000000000114e+01
1.064800000000000040e+02
3.287300000000000182e+02
8.728000000000000114e+01
-4.516399999999999864e+02
1.598300000000000125e+02
6.789000000000000057e+01
2.520000000000000018e+00
1.064300000000000068e+02
-4.714000000000000057e+01
-6.957999999999999829e+01
-3.350999999999999801e+01
5.111999999999999886e+02
-1.473100000000000023e+02
-2.255699999999999932e+02
7.612999999999999545e+01
-3.225999999999999801e+01
1.006400000000000006e+02
1.652599999999999909e+02
-9.959999999999999432e+01
-6.169299999999999500e+02
-1.498700000000000045e+02
4.450000000000000000e+02
4.792799999999999727e+02
-1.215000000000000000e+02
-3.279999999999999716e+01
-1.504799999999999898e+02
8.554999999999999716e+01
3.417099999999999795e+02
-1.708000000000000114e+02
-4.579999999999999716e+01
2.175000000000000000e+01
1.123900000000000006e+02
-2.032400000000000091e+02
-2.085000000000000142e+01
1.390800000000000125e+02
4.400000000000000355e+00
1.689000000000000057e+02
5.246999999999999886e+01
2.611499999999999773e+02
-1.005000000000000000e+02
2.428999999999999915e+01
-6.457999999999999829e+01
2.682000000000000028e+01
1.825000000000000000e+01
-7.620000000000000107e+00
-7.406999999999999318e+01
1.576999999999999886e+02
-2.768799999999999955e+02
-7.904999999999999716e+01
1.476100000000000136e+02
2.045099999999999909e+02
-1.853300000000000125e+02
6.639999999999999680e+00
-9.431999999999999318e+01
-1.012699999999999960e+02
3.200799999999999841e+02
-7.523999999999999488e+01
-1.095199999999999960e+02
-9.087000000000000455e+01
1.275199999999999960e+02
8.651999999999999602e+01
7.984000000000000341e+01
-3.378999999999999915e+01
-7.365000000000000568e+01
3.259999999999999787e+00
8.948999999999999488e+01
6.828000000000000114e+01
-5.910000000000000142e+01
1.287299999999999898e+02
-1.673799999999999955e+02
-1.603000000000000114e+02
-6.492000000000000171e+01
2.312000000000000099e+01
-9.910999999999999943e+01
2.010000000000000142e+01
-2.087999999999999901e+01
2.242800000000000011e+02
5.117000000000000171e+01
-1.842000000000000171e+01
-1.932999999999999829e+01
-1.024000000000000021e+01
-6.110000000000000320e+00
-3.959999999999999964e+00
-2.720000000000000195e+00
-1.959999999999999964e+00
-1.449999999999999956e+00
-1.110000000000000098e+00
-8.699999999999999956e-01
-6.999999999999999556e-01
-6.099999999999999867e-01
-6.099999999999999867e-01
-8.999999999999999667e-02
-1.499999999999999944e-01
1.767000000000000171e+01
-9.019999999999999574e+00
-3.354999999999999716e+01
-1.315000000000000036e+01
-2.871999999999999886e+01
-6.342000000000000171e+01
9.465000000000000568e+01
2.083999999999999986e+01
-1.001999999999999957e+01
-5.845000000000000284e+01
2.025699999999999932e+02
-8.426000000000000512e+01
1.313100000000000023e+02
5.710000000000000142e+01
-5.399000000000000199e+01
-1.270600000000000023e+02
1.353700000000000045e+02
-3.390999999999999659e+01
-1.857800000000000011e+02
1.250600000000000023e+02
3.657999999999999829e+01
-2.319999999999999929e+01
6.113000000000000256e+01
3.629999999999999716e+01
-4.778999999999999915e+01
-8.737999999999999545e+01
7.679000000000000625e+01
1.236400000000000006e+02
-2.832699999999999818e+02
1.006599999999999966e+02
6.503000000000000114e+01
-2.580899999999999750e+02
8.028000000000000114e+01
-3.792999999999999972e+01
-1.091899999999999977e+02
-2.423100000000000023e+02
5.931000000000000227e+01
-5.347999999999999687e+01
-7.965999999999999659e+01
3.885000000000000142e+01
5.765999999999999659e+01
3.109999999999999876e+00
2.268400000000000034e+02
2.149999999999999911e+00
-2.412899999999999920e+02
-2.484000000000000057e+02
3.168399999999999750e+02
2.368199999999999932e+02
1.162099999999999937e+02
3.325999999999999801e+01
-3.821600000000000250e+02
-6.285000000000000142e+01
7.437000000000000455e+01
1.002099999999999937e+02
4.622999999999999687e+01
-1.181200000000000045e+02
4.568999999999999773e+01
-1.600000000000000000e+01
-6.740999999999999659e+01
2.553000000000000114e+01
-3.407999999999999829e+01
1.977500000000000000e+02
6.625000000000000000e+01
1.703999999999999915e+01
-1.038700000000000045e+02
1.716200000000000045e+02
7.189000000000000057e+01
-5.663000000000000256e+01
-7.326999999999999602e+01
-9.604000000000000625e+01
-9.439000000000000057e+01
-5.580000000000000071e+00
1.300399999999999920e+02
-1.327400000000000091e+02
1.217999999999999972e+01
3.913500000000000227e+02
-1.786999999999999886e+02
3.620000000000000284e+01
-1.773000000000000043e+01
6.787000000000000455e+01
-5.330000000000000071e+00
3.847999999999999687e+01
6.003000000000000114e+01
-1.401299999999999955e+02
1.338899999999999864e+02
-1.373400000000000034e+02
-3.116100000000000136e+02
2.810799999999999841e+02
9.412999999999999545e+01
1.336999999999999922e+01
-1.300500000000000114e+02
-4.572999999999999687e+01
-7.870999999999999375e+01
1.001599999999999966e+02
9.130000000000000782e+00
-1.415999999999999943e+02
3.160899999999999750e+02
-5.135000000000000142e+01
-1.356200000000000045e+02
9.362999999999999545e+01
-1.671999999999999886e+01
5.109000000000000341e+01
-2.864999999999999858e+01
-8.529999999999999361e+00
-7.631000000000000227e+01
-9.815999999999999659e+01
-2.154000000000000057e+02
1.659699999999999989e+02
-9.534000000000000341e+01
1.454099999999999966e+02
7.315999999999999659e+01
-6.207000000000000028e+01
-9.540999999999999659e+01
-1.048900000000000006e+02
9.646999999999999886e+01
6.745000000000000284e+01
-5.815999999999999659e+01
1.439999999999999947e+00
-4.771999999999999886e+01
1.008400000000000034e+02
-7.126999999999999602e+01
7.399999999999999911e-01
2.209000000000000057e+02
-1.275699999999999932e+02
7.404999999999999716e+01
-7.373000000000000398e+01
1.083299999999999983e+02
-1.530000000000000071e+01
1.746100000000000136e+02
-1.506899999999999977e+02
-6.434000000000000341e+01
1.552999999999999936e+01
-1.227800000000000011e+02
-1.313000000000000078e+01
-2.226000000000000156e+01
1.926299999999999955e+02
7.831000000000000227e+01
-2.457999999999999829e+01
-1.073100000000000023e+02
4.918999999999999773e+01
1.278299999999999983e+02
-2.282500000000000000e+02
4.300000000000000000e+01
1.186099999999999994e+02
-1.132000000000000028e+01
4.124499999999999886e+02
-3.444200000000000159e+02
-2.044199999999999875e+02
-9.898999999999999488e+01
2.277299999999999898e+02
3.385000000000000142e+01
9.392000000000000171e+01
-1.519300000000000068e+02
1.040199999999999960e+02
2.757000000000000028e+01
1.584199999999999875e+02
-5.892000000000000171e+01
-4.887300000000000182e+02
-5.607000000000000455e+02
3.292099999999999795e+02
2.755799999999999841e+02
1.987999999999999901e+01
-1.471200000000000045e+02
2.010399999999999920e+02
-2.326800000000000068e+02
4.353999999999999915e+01
-3.547999999999999687e+01
-8.726999999999999602e+01
1.601999999999999886e+02
-6.581999999999999318e+01
-2.455999999999999872e+01
1.005900000000000034e+02
-4.917000000000000171e+01
6.420999999999999375e+01
-9.759999999999999432e+01
-6.659999999999999432e+01
-2.366000000000000014e+01
2.073000000000000043e+01
1.263599999999999994e+02
-4.943999999999999773e+01
-1.822700000000000102e+02
7.073999999999999488e+01
1.273599999999999994e+02
1.795099999999999909e+02
-9.523999999999999488e+01
-8.745000000000000284e+01
-8.451000000000000512e+01
-1.628999999999999915e+01
2.146699999999999875e+02
-8.142000000000000171e+01
-9.876999999999999602e+01
9.271999999999999886e+01
-2.669999999999999929e+01
-1.012300000000000040e+02
1.790699999999999932e+02
1.031000000000000050e+01
-1.348899999999999864e+02
1.345800000000000125e+02
-1.210999999999999943e+01
-1.971399999999999864e+02
1.231000000000000050e+01
1.442500000000000000e+02
-2.723999999999999844e+01
-1.067300000000000040e+02
9.709999999999999432e+01
-5.460000000000000142e+01
-2.521999999999999886e+02
1.880699999999999932e+02
-6.719999999999999751e+00
-4.679700000000000273e+02
4.836899999999999977e+02
4.489000000000000057e+01
-1.474099999999999966e+02
6.035999999999999943e+01
1.516100000000000136e+02
-1.414199999999999875e+02
7.837000000000000455e+01
7.723000000000000398e+01
-9.298999999999999488e+01
-1.713799999999999955e+02
1.902100000000000080e+02
1.310099999999999909e+02
-1.815699999999999932e+02
1.271599999999999966e+02
2.932000000000000028e+01
-1.693300000000000125e+02
2.142700000000000102e+02
1.000300000000000011e+02
-3.106100000000000136e+02
1.035400000000000063e+02
1.247000000000000064e+01
-2.456399999999999864e+02
1.555099999999999909e+02
1.821800000000000068e+02
8.356999999999999318e+01
-1.979499999999999886e+02
-8.310999999999999943e+01
-1.280099999999999909e+02
-9.548999999999999488e+01
-7.250000000000000000e+01
-5.264999999999999858e+01
-1.744600000000000080e+02
3.233100000000000023e+02
3.467599999999999909e+02
-2.944700000000000273e+02
-8.131999999999999318e+01
-1.824900000000000091e+02
-7.162000000000000455e+01
9.598999999999999488e+01
-1.000699999999999932e+02
5.931000000000000227e+01
1.463400000000000034e+02
-2.361899999999999977e+02
-2.355300000000000011e+02
1.564600000000000080e+02
7.584999999999999432e+01
-2.662300000000000182e+02
1.550699999999999932e+02
8.206000000000000227e+01
1.022800000000000011e+02
2.051999999999999886e+02
1.688899999999999864e+02
-2.162500000000000000e+02
-3.211499999999999773e+02
2.075699999999999932e+02
-1.584300000000000068e+02
1.187300000000000040e+02
-1.250499999999999972e+02
3.192000000000000171e+01
8.160000000000000142e+00
2.341000000000000014e+01
-3.786999999999999744e+01
9.473999999999999488e+01
2.126999999999999957e+01
1.453000000000000114e+02
-4.751499999999999773e+02
-1.566999999999999886e+02
7.706000000000000227e+01
1.435500000000000114e+02
1.213799999999999955e+02
7.954999999999999716e+01
1.098700000000000045e+02
-7.570000000000000284e+00
-3.359100000000000250e+02
-1.805900000000000034e+02
1.979600000000000080e+02
-1.887999999999999901e+01
2.519000000000000128e+01
-1.600000000000000089e+00
-2.483999999999999986e+01
-4.329999999999999716e+01
-1.265000000000000036e+01
-6.900000000000000000e+01
1.456399999999999864e+02
-8.276999999999999602e+01
3.753000000000000114e+01
2.696000000000000085e+01
5.339999999999999858e+00
-2.664100000000000250e+02
7.535999999999999943e+01
7.178000000000000114e+01
7.145999999999999375e+01
-2.387000000000000099e+01
1.785000000000000142e+01
-1.082000000000000028e+02
3.921000000000000085e+01
1.732299999999999898e+02
-1.763100000000000023e+02
2.539900000000000091e+02
-5.097699999999999818e+02
-1.776200000000000045e+02
6.501000000000000512e+01
6.528400000000000318e+02
-2.465800000000000125e+02
-2.281399999999999864e+02
-6.518999999999999773e+01
1.674300000000000068e+02
-4.128999999999999915e+01
-1.613799999999999955e+02
5.092000000000000171e+01
9.664000000000000057e+01
8.954000000000000625e+01
-7.590000000000000568e+01
1.969399999999999977e+02
-6.723999999999999488e+01
1.617100000000000080e+02
-3.579999999999999716e+01
7.421999999999999886e+01
-2.237000000000000099e+01
-2.687999999999999901e+01
-7.070999999999999375e+01
-1.585999999999999943e+01
2.248000000000000043e+01
-1.732899999999999920e+02
7.809999999999999432e+01
-2.405000000000000071e+01
1.361999999999999922e+01
-4.875000000000000000e+01
-6.303999999999999915e+01
4.517000000000000171e+01
6.496999999999999886e+01
-3.906000000000000227e+01
-2.676999999999999957e+01
5.545000000000000284e+01
-4.557999999999999829e+01
-7.400000000000000000e+01
7.812000000000000455e+01
-6.099999999999999867e-01
-1.080900000000000034e+02
9.189000000000000057e+01
4.999000000000000199e+01
-8.296999999999999886e+01
5.422999999999999687e+01
4.684000000000000341e+01
-5.203000000000000114e+01
-5.450000000000000000e+01
8.814000000000000057e+01
-8.009999999999999787e+00
-1.110799999999999983e+02
1.712100000000000080e+02
-5.447999999999999687e+01
-5.899999999999999689e-01
-3.935999999999999943e+01
1.142399999999999949e+02
1.660300000000000011e+02
-2.657000000000000028e+01
1.119999999999999929e+01
1.810500000000000114e+02
-2.072500000000000000e+02
-1.673799999999999955e+02
6.393999999999999773e+01
-2.924300000000000068e+02
9.231000000000000227e+01
7.037000000000000455e+01
2.308999999999999986e+01
-7.085999999999999943e+01
-1.035999999999999943e+02
9.700000000000000000e+01
2.999999999999999889e-01
-2.225000000000000000e+01
-2.232000000000000028e+01
6.606000000000000227e+01
1.944799999999999898e+02
5.713000000000000256e+01
-1.626399999999999864e+02
9.960999999999999943e+01
-1.814099999999999966e+02
3.191399999999999864e+02
7.798000000000000398e+01
1.471000000000000085e+01
1.311800000000000068e+02
4.875999999999999801e+01
-3.952000000000000313e+01
-4.668199999999999932e+02
-1.436500000000000057e+02
7.598099999999999454e+02
1.290600000000000023e+02
-1.629399999999999977e+02
-4.411800000000000068e+02
-4.614000000000000057e+01
2.481399999999999864e+02
-3.204999999999999716e+01
-7.517000000000000171e+01
2.752900000000000205e+02
-1.165499999999999972e+02
-1.177399999999999949e+02
-4.432000000000000028e+01
1.499600000000000080e+02
-2.135900000000000034e+02
-1.912299999999999898e+02
2.796200000000000045e+02
-5.088000000000000256e+01
1.224599999999999937e+02
1.823600000000000136e+02
-5.679999999999999716e+01
2.715799999999999841e+02
8.220999999999999375e+01
-3.801100000000000136e+02
1.128100000000000023e+02
-1.066000000000000014e+01
-1.393899999999999864e+02
2.182899999999999920e+02
3.636399999999999864e+02
-5.001000000000000227e+02
-6.979000000000000625e+01
1.740500000000000114e+02
-1.032900000000000063e+02
-3.279999999999999805e+00
-1.000000000000000000e+00
1.252999999999999936e+01
-7.290000000000000568e+01
-1.030000000000000000e+02
-3.129999999999999893e+00
1.540000000000000036e+01
3.959000000000000341e+01
6.271999999999999886e+01
-1.515699999999999932e+02
7.701000000000000512e+01
-1.648799999999999955e+02
6.668000000000000682e+01
1.990000000000000000e+02
-1.655600000000000023e+02
4.771000000000000085e+01
1.529799999999999898e+02
7.282999999999999829e+01
2.546000000000000085e+01
-2.712000000000000099e+01
-1.135100000000000051e+02
-2.340800000000000125e+02
-1.664099999999999966e+02
2.550600000000000023e+02
1.218100000000000023e+02
-1.932899999999999920e+02
-2.682000000000000028e+01
1.633300000000000125e+02
8.782999999999999829e+01
-1.325000000000000000e+01
-2.065600000000000023e+02
9.479999999999999716e+01
2.820199999999999818e+02
-5.259000000000000341e+01
1.669000000000000128e+01
-2.301599999999999966e+02
2.701999999999999957e+01
-8.960999999999999943e+01
8.085999999999999943e+01
1.181000000000000050e+01
-7.834999999999999432e+01
1.060799999999999983e+02
1.506000000000000050e+01
-5.647999999999999687e+01
8.615000000000000568e+01
5.203999999999999915e+01
-6.643999999999999773e+01
2.776999999999999957e+01
4.100000000000000000e+01
-4.227000000000000313e+01
-5.821999999999999886e+01
6.778000000000000114e+01
6.739000000000000057e+01
-4.579999999999999716e+01
1.011500000000000057e+02
9.012000000000000455e+01
-8.670999999999999375e+01
2.570600000000000023e+02
1.607899999999999920e+02
1.505000000000000071e+01
-1.034899999999999949e+02
-2.662699999999999818e+02
-1.180000000000000071e+01
6.211999999999999744e+01
1.925699999999999932e+02
-1.660300000000000011e+02
-9.256000000000000227e+01
-6.337500000000000000e+02
4.577799999999999727e+02
1.578300000000000125e+02
-6.645000000000000284e+01
-3.638000000000000256e+01
-1.334000000000000057e+02
1.917599999999999909e+02
-4.979999999999999716e+01
-2.251000000000000156e+01
2.248400000000000034e+02
-8.000000000000000167e-02
-2.919999999999999929e+01
-6.435999999999999943e+01
-1.285900000000000034e+02
-5.043999999999999773e+01
1.961200000000000045e+02
-1.044500000000000028e+02
-9.881000000000000227e+01
-5.025000000000000000e+01
1.855300000000000011e+02
3.353000000000000114e+01
-1.011599999999999966e+02
1.090799999999999983e+02
1.616000000000000014e+01
-1.143900000000000006e+02
7.373000000000000398e+01
7.110000000000000320e+00
-1.976999999999999957e+01
3.946999999999999886e+01
4.854999999999999716e+01
-8.740000000000000213e+00
-1.901999999999999957e+01
5.645000000000000284e+01
-1.901999999999999957e+01
-5.339000000000000057e+01
6.798999999999999488e+01
-3.078999999999999915e+01
-7.543000000000000682e+01
1.350699999999999932e+02
1.471000000000000085e+01
-9.251999999999999602e+01
3.299000000000000199e+01
-1.799999999999999933e-01
-3.906000000000000227e+01
1.785999999999999943e+01
2.550000000000000000e+01
-2.803000000000000114e+01
-3.482999999999999829e+01
1.430000000000000071e+01
1.998999999999999844e+01
-7.600000000000000089e-01
6.177000000000000313e+01
3.909000000000000341e+01
-4.685000000000000142e+01
4.407000000000000028e+01
1.372000000000000064e+01
-3.678000000000000114e+01
-5.603000000000000114e+01
2.635000000000000142e+01
-1.630999999999999872e+01
-1.605999999999999872e+01
3.846000000000000085e+01
1.835999999999999943e+01
-4.946000000000000085e+01
-2.857999999999999829e+01
6.170000000000000284e+01
2.782999999999999829e+01
-6.129999999999999716e+01
2.285000000000000142e+01
2.000000000000000042e-02
-3.806000000000000227e+01
2.892000000000000171e+01
3.507000000000000028e+01
-2.337999999999999901e+01
-2.798999999999999844e+01
5.300000000000000266e-01
-2.682999999999999829e+01
-1.739000000000000057e+01
4.460999999999999943e+01
-2.233999999999999986e+01
-1.264000000000000057e+01
7.734999999999999432e+01
-9.429999999999999716e+00
-5.106000000000000227e+01
5.615999999999999659e+01
1.240799999999999983e+02
-2.021599999999999966e+02
4.034000000000000341e+01
1.836699999999999875e+02
-1.559199999999999875e+02
-1.841899999999999977e+02
-1.440000000000000000e+02
9.381000000000000227e+01
1.734300000000000068e+02
-2.630000000000000071e+01
-3.232000000000000028e+01
8.109999999999999432e+00
4.574000000000000199e+01
5.778999999999999915e+01
1.629999999999999893e+00
-1.041599999999999966e+02
7.106999999999999318e+01
-2.520000000000000018e+00
-2.184099999999999966e+02
1.567899999999999920e+02
5.181000000000000227e+01
-1.265000000000000000e+02
1.760099999999999909e+02
8.212000000000000455e+01
-1.364699999999999989e+02
8.764000000000000057e+01
2.823700000000000045e+02
-8.617000000000000171e+01
-2.012800000000000011e+02
-3.679999999999999716e+01
1.944799999999999898e+02
9.065000000000000568e+01
3.575999999999999801e+01
-3.475000000000000000e+01
-3.547999999999999687e+01
-2.176399999999999864e+02
3.714000000000000057e+01
-4.129999999999999716e+01
1.710999999999999943e+01
2.280999999999999943e+02
5.978000000000000114e+01
-1.416999999999999993e+01
-4.014000000000000057e+01
4.382000000000000028e+01
-1.648400000000000034e+02
1.000499999999999972e+02
3.720000000000000195e+00
2.257000000000000028e+01
-2.769100000000000250e+02
4.271999999999999886e+01
-3.203999999999999915e+01
1.196000000000000085e+01
4.631000000000000227e+01
5.935000000000000142e+01
-3.867000000000000171e+01
1.019899999999999949e+02
1.122600000000000051e+02
2.592200000000000273e+02
-2.785299999999999727e+02
-1.129500000000000028e+02
-1.872500000000000000e+02
1.556299999999999955e+02
3.327000000000000313e+01
-7.407999999999999829e+01
1.068299999999999983e+02
3.119000000000000128e+01
-3.879999999999999716e+01
2.930999999999999872e+01
-5.780000000000000249e+00
-2.996999999999999886e+01
-5.452000000000000313e+01
5.975999999999999801e+01
-7.469999999999999751e+00
-4.500999999999999801e+01
6.443999999999999773e+01
2.362999999999999901e+01
-4.311999999999999744e+01
-1.709999999999999964e+00
-8.419999999999999929e+00
4.278000000000000114e+01
3.259000000000000341e+01
-2.998000000000000043e+01
-7.206000000000000227e+01
-1.700000000000000000e+01
7.171999999999999886e+01
1.185100000000000051e+02
3.415999999999999659e+01
-1.528400000000000034e+02
-1.197000000000000064e+01
8.029999999999999361e+00
1.339000000000000057e+01
-1.019999999999999929e+01
1.079500000000000028e+02
1.221000000000000085e+01
4.452000000000000313e+01
-2.628500000000000227e+02
1.195699999999999932e+02
-9.262000000000000455e+01
1.682500000000000000e+02
1.776500000000000057e+02
9.823999999999999488e+01
1.224399999999999977e+02
-3.781700000000000159e+02
-9.451599999999999682e+02
3.766499999999999773e+02
1.763600000000000136e+02
-8.109999999999999432e+00
-2.383199999999999932e+02
2.499199999999999875e+02
-2.710000000000000142e+01
-4.500000000000000111e-01
-6.400000000000000355e+00
-1.059800000000000040e+02
7.690000000000000391e+00
6.082000000000000028e+01
-1.899999999999999911e+00
3.166000000000000014e+01
-7.437999999999999545e+01
-1.389999999999999902e+00
3.233500000000000227e+02
-1.672400000000000091e+02
4.578999999999999915e+01
-3.529499999999999886e+02
3.246000000000000085e+01
6.914000000000000057e+01
2.075000000000000000e+01
-2.226999999999999957e+01
2.862999999999999901e+01
2.149999999999999911e+00
-3.507999999999999829e+01
-9.423000000000000398e+01
2.057999999999999829e+01
-1.246000000000000085e+01
-9.492000000000000171e+01
1.646200000000000045e+02
3.209000000000000341e+01
8.445999999999999375e+01
-5.384000000000000341e+01
-8.050000000000000000e+01
-1.948000000000000114e+02
9.164000000000000057e+01
1.343100000000000023e+02
-3.432999999999999829e+01
1.746000000000000085e+01
1.637100000000000080e+02
-2.230800000000000125e+02
-1.526200000000000045e+02
6.580000000000000071e+00
-2.039000000000000057e+01
-5.677000000000000313e+01
7.554000000000000625e+01
9.060000000000000497e+00
-6.764000000000000057e+01
6.973999999999999488e+01
7.154999999999999716e+01
7.262999999999999545e+01
-1.208400000000000034e+02
-8.721999999999999886e+01
6.039999999999999858e+01
1.801000000000000156e+01
9.868000000000000682e+01
3.018299999999999841e+02
4.985999999999999943e+01
-2.318799999999999955e+02
-6.279999999999999716e+01
-5.061999999999999744e+01
-2.120699999999999932e+02
-2.814999999999999858e+01
2.507599999999999909e+02
8.078000000000000114e+01
-9.740999999999999659e+01
8.739000000000000057e+01
4.419999999999999929e+00
-1.496000000000000085e+01
-9.340000000000000568e+01
9.321999999999999886e+01
-4.367000000000000171e+01
1.633000000000000114e+02
-9.592000000000000171e+01
-1.940099999999999909e+02
1.462299999999999898e+02
-5.150000000000000355e+00
-2.882999999999999829e+01
1.205799999999999983e+02
7.593000000000000682e+01
1.738100000000000023e+02
1.836399999999999864e+02
-5.745299999999999727e+02
-6.701000000000000512e+01
6.182000000000000028e+01
8.331999999999999318e+01
-3.778000000000000114e+01
2.317999999999999972e+01
3.349000000000000199e+01
-2.894999999999999929e+01
1.565000000000000036e+01
4.425999999999999801e+01
3.607999999999999829e+01
1.014800000000000040e+02
2.001399999999999864e+02
-1.618499999999999943e+02
-1.443799999999999955e+02
3.807000000000000028e+01
1.857000000000000028e+01
-6.099999999999999645e+00
1.755000000000000071e+01
5.718999999999999773e+01
-5.190000000000000391e+00
-5.054999999999999716e+01
5.704999999999999716e+01
-4.853999999999999915e+01
-1.229999999999999982e+00
-3.062000000000000099e+01
6.334000000000000341e+01
-1.337500000000000000e+02
1.296999999999999886e+02
-2.778999999999999915e+01
-1.667999999999999972e+01
-1.826399999999999864e+02
1.778999999999999915e+01
4.579999999999999716e+01
-2.614000000000000057e+01
1.472000000000000064e+01
3.231000000000000227e+01
-5.330000000000000071e+00
1.304199999999999875e+02
-1.153999999999999915e+01
-2.409300000000000068e+02
-1.550000000000000000e+01
-2.573999999999999844e+01
-1.086999999999999922e+01
-7.190000000000000391e+00
-6.459999999999999964e+00
-6.956000000000000227e+01
9.651999999999999602e+01
3.082400000000000091e+02
6.382000000000000028e+01
-3.768100000000000023e+02
-2.266800000000000068e+02
-2.062100000000000080e+02
9.440999999999999659e+01
2.589700000000000273e+02
1.342599999999999909e+02
-6.676999999999999602e+01
-6.706000000000000227e+01
7.834999999999999432e+01
-1.070400000000000063e+02
-9.795999999999999375e+01
7.551999999999999602e+01
-7.862999999999999545e+01
4.590999999999999659e+01
1.328700000000000045e+02
-1.341299999999999955e+02
-1.412700000000000102e+02
-3.120299999999999727e+02
4.387099999999999795e+02
1.011800000000000068e+02
-2.533999999999999986e+01
6.011999999999999744e+01
7.409000000000000341e+01
-1.419900000000000091e+02
-2.060000000000000142e+01
-5.100999999999999801e+01
-1.619399999999999977e+02
7.109000000000000341e+01
1.477999999999999936e+01
-9.004000000000000625e+01
-1.164300000000000068e+02
5.152000000000000313e+01
3.037999999999999901e+01
3.296000000000000085e+01
5.602000000000000313e+01
2.091000000000000014e+01
-4.454999999999999716e+01
7.031000000000000227e+01
7.635999999999999943e+01
-1.794499999999999886e+02
1.373799999999999955e+02
-1.732000000000000028e+01
-2.143499999999999943e+02
8.362000000000000455e+01
6.654000000000000625e+01
-1.944000000000000128e+01
1.503300000000000125e+02
8.018999999999999773e+01
-1.101299999999999955e+02
-8.776000000000000512e+01
-1.925000000000000000e+01
-3.782000000000000028e+01
-1.428999999999999915e+01
4.122999999999999687e+01
-4.275999999999999801e+01
-3.334200000000000159e+02
3.659100000000000250e+02
2.169999999999999929e+00
-1.751000000000000156e+01
-6.528000000000000114e+01
9.879000000000000625e+01
-1.459999999999999964e+01
-1.151800000000000068e+02
1.417599999999999909e+02
8.334000000000000341e+01
-8.056999999999999318e+01
6.021999999999999886e+01
2.691000000000000014e+01
-2.279099999999999966e+02
6.228000000000000114e+01
-2.998999999999999844e+01
-1.029800000000000040e+02
2.967000000000000171e+01
4.327000000000000313e+01
-5.032000000000000028e+01
6.185000000000000142e+01
-8.919999999999999929e+00
-7.929999999999999716e+00
4.652000000000000313e+01
5.280000000000000249e+00
-1.784099999999999966e+02
4.710000000000000142e+01
3.055500000000000114e+02
-6.901999999999999602e+01
-2.122899999999999920e+02
4.045000000000000284e+01
3.857000000000000028e+01
-6.217000000000000171e+01
3.695600000000000023e+02
-1.326500000000000057e+02
-2.897900000000000205e+02
-4.410000000000000142e+00
-4.896999999999999886e+01
-3.158999999999999986e+01
7.825000000000000000e+01
1.160400000000000063e+02
-4.521000000000000085e+01
-4.222999999999999687e+01
1.508400000000000034e+02
1.102399999999999949e+02
1.180600000000000023e+02
-4.014000000000000057e+01
-1.627199999999999989e+02
-5.660999999999999943e+01
1.160999999999999943e+01
4.872999999999999687e+01
-6.340999999999999659e+01
9.529999999999999716e+01
-1.869600000000000080e+02
-5.575999999999999801e+01
3.971600000000000250e+02
1.574900000000000091e+02
-1.789199999999999875e+02
9.487999999999999545e+01
-2.167000000000000171e+01
-2.889000000000000057e+01
-2.297700000000000102e+02
-9.050000000000000711e+00
4.834800000000000182e+02
-2.529999999999999805e+00
4.042999999999999972e+01
-1.355500000000000114e+02
-1.994699999999999989e+02
-8.769999999999999574e+00
-7.432999999999999829e+01
1.653700000000000045e+02
2.241100000000000136e+02
-1.030499999999999972e+02
-8.699999999999999956e-01
1.795800000000000125e+02
-6.195000000000000284e+01
7.550000000000000000e+01
-1.054399999999999977e+02
2.966499999999999773e+02
-3.432000000000000028e+01
6.620999999999999375e+01
-1.542700000000000102e+02
1.933300000000000125e+02
-7.029999999999999716e+01
2.396999999999999886e+01
2.555099999999999909e+02
1.371000000000000085e+01
-3.928700000000000045e+02
-1.594900000000000091e+02
1.842000000000000171e+01
1.830300000000000011e+02
1.416999999999999886e+02
1.038299999999999983e+02
-2.264000000000000057e+01
-9.665999999999999659e+01
-7.977699999999999818e+02
-1.277199999999999989e+02
1.958600000000000136e+02
-9.612000000000000455e+01
2.937099999999999795e+02
2.491599999999999966e+02
-2.646899999999999977e+02
-6.264000000000000057e+01
-5.414000000000000057e+01
6.604999999999999716e+01
-2.905000000000000071e+01
2.187700000000000102e+02
2.093899999999999864e+02
-1.769399999999999977e+02
-3.071999999999999886e+01
-1.429999999999999938e+00
-5.052000000000000313e+01
8.848000000000000398e+01
-3.608000000000000114e+02
6.093999999999999773e+01
1.642299999999999898e+02
3.439999999999999947e+00
-1.827700000000000102e+02
1.400900000000000034e+02
9.029999999999999361e+00
-1.771800000000000068e+02
8.812000000000000455e+01
-3.613000000000000256e+01
-1.251800000000000068e+02
2.362599999999999909e+02
-3.800999999999999801e+01
-1.236899999999999977e+02
1.654499999999999886e+02
4.311999999999999744e+01
-1.075900000000000034e+02
4.821000000000000085e+01
3.638000000000000256e+01
-1.616299999999999955e+02
-7.381999999999999318e+01
8.553000000000000114e+01
-2.519999999999999929e+01
1.118799999999999955e+02
-6.456000000000000227e+01
1.270300000000000011e+02
-1.101400000000000006e+02
2.663000000000000114e+02
2.269799999999999898e+02
-2.342899999999999920e+02
8.809999999999999432e+01
-3.450999999999999801e+01
-1.629600000000000080e+02
9.101000000000000512e+01
1.640200000000000102e+02
-1.298300000000000125e+02
-8.215000000000000568e+01
6.734000000000000341e+01
-1.107000000000000028e+01
1.641000000000000014e+01
1.889000000000000057e+01
2.325000000000000000e+01
-5.542999999999999972e+01
1.349000000000000021e+01
-2.096200000000000045e+02
5.602000000000000313e+01
2.513100000000000023e+02
-7.309999999999999609e+00
-7.112000000000000455e+01
-5.720000000000000284e+01
5.560999999999999943e+01
-4.503999999999999915e+01
5.303999999999999915e+01
-2.458999999999999986e+01
-6.106000000000000227e+01
2.183300000000000125e+02
4.953000000000000114e+01
-1.940099999999999909e+02
-4.658999999999999773e+02
3.260000000000000000e+02
-2.194799999999999898e+02
2.570899999999999750e+02
-7.220000000000000284e+01
-3.693999999999999773e+01
8.128000000000000114e+01
2.049799999999999898e+02
-1.341500000000000057e+02
-1.748100000000000023e+02
1.293400000000000034e+02
1.978899999999999864e+02
-3.757000000000000028e+01
-1.685399999999999920e+02
-5.768999999999999773e+01
4.545000000000000284e+01
2.832000000000000028e+01
2.455999999999999872e+01
5.954999999999999716e+01
4.021000000000000085e+01
4.228999999999999915e+01
-6.217999999999999972e+01
2.814000000000000057e+01
-1.860000000000000142e+01
-1.579099999999999966e+02
2.832000000000000028e+01
1.182600000000000051e+02
-2.539999999999999858e+01
-6.800000000000000488e-01
9.281999999999999318e+01
1.595399999999999920e+02
-1.794799999999999898e+02
-1.248000000000000043e+01
-8.981000000000000227e+01
-2.493300000000000125e+02
1.391299999999999955e+02
-7.910999999999999943e+01
-8.321999999999999886e+01
1.315900000000000034e+02
-8.859999999999999432e+00
-8.329999999999999716e+01
2.157899999999999920e+02
4.454999999999999716e+01
-2.269900000000000091e+02
8.869999999999999218e+00
9.821999999999999886e+01
-6.990000000000000568e+01
6.335999999999999943e+01
9.971999999999999886e+01
-1.866200000000000045e+02
3.506000000000000227e+01
-3.096000000000000085e+01
-1.580000000000000071e+01
1.068999999999999950e+01
8.220000000000000639e+00
3.893999999999999773e+01
-1.047099999999999937e+02
1.657700000000000102e+02
-9.684999999999999432e+01
5.064000000000000057e+01
-2.326000000000000156e+01
-2.088899999999999864e+02
-1.460300000000000011e+02
3.770000000000000018e+00
4.431100000000000136e+02
-7.168000000000000682e+01
-1.511299999999999955e+02
2.394999999999999929e+01
-8.126999999999999602e+01
-6.299000000000000199e+01
1.304699999999999989e+02
-1.170799999999999983e+02
-1.243700000000000045e+02
-5.375000000000000000e+01
5.825000000000000000e+01
5.780000000000000249e+00
-1.122000000000000028e+02
1.241700000000000017e+02
4.359000000000000341e+01
-4.342999999999999972e+01
3.493999999999999773e+01
-5.706000000000000227e+01
3.513000000000000256e+01
1.369499999999999886e+02
-1.708600000000000136e+02
-3.632699999999999818e+02
1.147900000000000063e+02
2.569499999999999886e+02
1.055199999999999960e+02
6.162400000000000091e+02
-1.502500000000000000e+02
-4.416899999999999977e+02
-2.263000000000000114e+02
6.510999999999999943e+01
2.064999999999999858e+01
-4.745000000000000284e+01
4.486999999999999744e+01
3.060000000000000142e+01
-2.933999999999999986e+01
4.317999999999999972e+01
4.989000000000000057e+01
-3.257000000000000028e+01
-2.046999999999999886e+01
-1.549000000000000021e+01
-4.467000000000000171e+01
-4.284000000000000341e+01
-7.509000000000000341e+01
5.204999999999999716e+01
3.908299999999999841e+02
-7.348000000000000398e+01
-5.963000000000000256e+01
-3.138700000000000045e+02
-4.347999999999999687e+01
1.843600000000000136e+02
-7.332999999999999829e+01
1.250000000000000000e+02
1.063400000000000034e+02
-3.402000000000000313e+01
-9.076999999999999602e+01
-1.135499999999999972e+02
2.542999999999999972e+01
-1.079899999999999949e+02
1.350000000000000089e+00
-2.423999999999999844e+01
-6.593000000000000682e+01
1.292299999999999898e+02
3.582999999999999829e+01
2.630600000000000023e+02
-4.961999999999999744e+01
-2.037100000000000080e+02
-1.672599999999999909e+02
6.265999999999999659e+01
1.803199999999999932e+02
-2.048499999999999943e+02
3.207999999999999829e+01
-2.827300000000000182e+02
8.839999999999999858e+00
1.994399999999999977e+02
-4.553999999999999915e+01
-7.489000000000000057e+01
1.079899999999999949e+02
5.050000000000000000e+01
1.104800000000000040e+02
8.814000000000000057e+01
-5.907999999999999829e+01
-2.484499999999999886e+02
-1.021500000000000057e+02
1.658799999999999955e+02
8.129999999999999716e+01
-7.626999999999999602e+01
1.946000000000000085e+01
1.591999999999999993e+01
-4.467000000000000171e+01
2.723000000000000043e+01
6.192000000000000171e+01
-6.950000000000000178e+00
1.867000000000000171e+01
3.996000000000000085e+01
-1.484999999999999964e+01
-3.192000000000000171e+01
3.677000000000000313e+01
-4.750000000000000000e+00
-4.725000000000000000e+01
4.054999999999999716e+01
5.110000000000000320e+00
-5.267000000000000171e+01
4.724000000000000199e+01
4.928000000000000114e+01
5.232000000000000028e+01
-1.617700000000000102e+02
5.611999999999999744e+01
2.069999999999999840e+00
-1.136099999999999994e+02
-3.033999999999999986e+01
-4.285000000000000142e+01
-4.270000000000000284e+01
4.535000000000000142e+01
2.476999999999999957e+01
-3.375999999999999801e+01
2.382000000000000028e+01
8.656999999999999318e+01
-6.740000000000000213e+00
7.554000000000000625e+01
-8.949999999999999289e+00
-2.598000000000000043e+01
-7.545000000000000284e+01
4.222999999999999687e+01
-6.067000000000000171e+01
-4.893999999999999773e+01
4.529999999999999716e+01
1.170199999999999960e+02
5.272999999999999687e+01
5.982000000000000028e+01
-5.610000000000000320e+00
-1.157900000000000063e+02
-1.245300000000000011e+02
-1.753000000000000114e+01
2.887999999999999901e+01
1.308899999999999864e+02
9.693000000000000682e+01
1.489000000000000057e+01
-1.559099999999999966e+02
1.140900000000000034e+02
1.208000000000000007e+01
-2.269799999999999898e+02
-2.073700000000000045e+02
5.517500000000000000e+02
3.698999999999999773e+02
5.242000000000000171e+01
-5.570299999999999727e+02
-2.251000000000000156e+01
4.741399999999999864e+02
7.673999999999999488e+01
-1.681100000000000136e+02
-8.285999999999999943e+01
9.248000000000000398e+01
-5.882999999999999829e+01
-9.898000000000000398e+01
1.121500000000000057e+02
1.316000000000000014e+01
-2.105699999999999932e+02
1.266800000000000068e+02
-1.728199999999999932e+02
-8.587999999999999545e+01
4.418999999999999773e+01
-2.860999999999999943e+01
1.439499999999999886e+02
-1.153599999999999994e+02
1.449499999999999886e+02
4.199000000000000199e+01
9.759000000000000341e+01
1.431500000000000057e+02
9.934999999999999432e+01
1.179999999999999938e+00
-4.425999999999999801e+01
1.510300000000000011e+02
1.118900000000000006e+02
-3.144000000000000128e+01
-2.368600000000000136e+02
-1.113499999999999943e+02
4.475999999999999801e+01
6.363000000000000256e+01
-5.492000000000000171e+01
-5.993999999999999773e+01
-8.040999999999999659e+01
1.013799999999999955e+02
9.720000000000000639e+00
-4.928999999999999915e+01
1.095199999999999960e+02
4.120000000000000107e+00
-6.646999999999999886e+01
-4.947999999999999687e+01
9.531000000000000227e+01
2.587000000000000099e+01
-1.473799999999999955e+02
-8.150000000000000355e+00
-1.494600000000000080e+02
1.703199999999999932e+02
2.989200000000000159e+02
-6.279999999999999716e+01
1.053999999999999915e+01
6.956999999999999318e+01
1.463199999999999932e+02
-3.228000000000000114e+02
-1.865500000000000114e+02
1.217000000000000028e+02
3.761999999999999744e+01
-3.588000000000000256e+01
-1.540500000000000114e+02
1.996699999999999875e+02
-1.393300000000000125e+02
2.796000000000000085e+01
3.679999999999999716e+01
-3.750000000000000000e+01
1.061299999999999955e+02
-2.288899999999999864e+02
1.056400000000000006e+02
9.901000000000000512e+01
6.550000000000000000e+01
4.802000000000000313e+01
-9.268999999999999773e+01
-1.003900000000000006e+02
1.480000000000000071e+01
-3.292999999999999972e+01
-1.050000000000000000e+02
1.676399999999999864e+02
-5.354999999999999716e+01
2.351999999999999957e+01
1.142000000000000028e+02
-4.250000000000000000e+00
-1.215000000000000036e+01
1.737599999999999909e+02
4.785000000000000142e+01
-2.480999999999999872e+01
-1.097500000000000000e+02
-2.480399999999999920e+02
2.807999999999999829e+01
4.349000000000000199e+01
-1.062999999999999972e+02
-1.593999999999999950e+01
-1.388300000000000125e+02
2.569599999999999795e+02
3.302000000000000313e+01
-1.449099999999999966e+02
1.668300000000000125e+02
-2.073000000000000114e+02
-8.920999999999999375e+01
6.357999999999999829e+01
2.237500000000000000e+02
-2.941000000000000014e+01
-4.689999999999999858e+01
-1.730999999999999943e+02
-5.870000000000000284e+01
4.400000000000000022e-01
-6.507999999999999829e+01
-9.668000000000000682e+01
1.691200000000000045e+02
-9.840999999999999659e+01
6.036999999999999744e+01
7.435999999999999943e+01
-4.142999999999999972e+01
5.903999999999999915e+01
2.742999999999999972e+01
-1.489399999999999977e+02
1.363600000000000136e+02
-8.699999999999999289e+00
-1.446500000000000057e+02
8.120000000000000284e+01
-8.764000000000000057e+01
-1.238400000000000034e+02
3.888600000000000136e+02
1.149399999999999977e+02
-2.680400000000000205e+02
-1.893700000000000045e+02
1.434799999999999898e+02
5.320000000000000284e+00
-1.021599999999999966e+02
1.777599999999999909e+02
5.592999999999999972e+01
-2.974900000000000091e+02
1.989999999999999991e+00
-7.251999999999999602e+01
1.544099999999999966e+02
9.126999999999999602e+01
1.005900000000000034e+02
-6.584999999999999432e+01
-1.148000000000000043e+01
7.726000000000000512e+01
-3.660199999999999818e+02
2.798000000000000043e+01
-8.689000000000000057e+01
-8.669999999999999929e+00
4.078999999999999915e+01
-7.565000000000000568e+01
6.207999999999999829e+01
9.619999999999999218e+00
-7.325000000000000000e+01
1.407899999999999920e+02
-7.465999999999999659e+01
2.496999999999999886e+01
4.177000000000000313e+01
1.484900000000000091e+02
3.410000000000000142e+01
3.035000000000000142e+01
-4.703999999999999915e+01
4.964999999999999858e+01
-4.940000000000000391e+00
-1.575200000000000102e+02
-1.121400000000000006e+02
2.282999999999999829e+01
-8.187000000000000455e+01
1.338600000000000136e+02
4.177000000000000313e+01
-6.065999999999999659e+01
-1.648000000000000043e+01
7.289000000000000057e+01
-2.420600000000000023e+02
1.727500000000000000e+02
1.226899999999999977e+02
-7.934999999999999432e+01
1.535999999999999943e+02
6.035999999999999943e+01
-1.277000000000000028e+02
5.768999999999999773e+01
-9.640999999999999659e+01
1.166800000000000068e+02
1.604199999999999875e+02
-1.091200000000000045e+02
7.331000000000000227e+01
7.775000000000000000e+01
6.329999999999999716e+01
-5.043999999999999773e+01
7.384000000000000341e+01
1.560500000000000114e+02
3.576600000000000250e+02
-2.230699999999999932e+02
3.213000000000000256e+01
-1.214200000000000017e+02
2.169999999999999929e+01
2.423100000000000023e+02
-1.486200000000000045e+02
-6.298500000000000227e+02
-9.060999999999999943e+01
-3.331000000000000227e+01
3.658299999999999841e+02
4.051800000000000068e+02
-1.240000000000000036e+01
-3.227099999999999795e+02
1.333000000000000007e+01
1.555999999999999943e+02
-1.804699999999999989e+02
1.347400000000000091e+02
-1.051899999999999977e+02
-3.037999999999999901e+01
1.882400000000000091e+02
-3.133999999999999986e+01
-1.051400000000000006e+02
-4.438000000000000256e+01
8.295999999999999375e+01
4.332999999999999829e+01
-5.892000000000000171e+01
1.445900000000000034e+02
-3.529999999999999805e+00
1.960000000000000142e+01
3.800000000000000000e+01
9.529999999999999361e+00
-8.592000000000000171e+01
1.557400000000000091e+02
3.150600000000000023e+02
-2.930899999999999750e+02
-4.089000000000000057e+01
1.569000000000000057e+02
-2.835099999999999909e+02
-9.598999999999999488e+01
-6.031000000000000227e+01
-2.623500000000000227e+02
-6.019999999999999574e+00
9.418000000000000682e+01
1.757000000000000028e+01
4.128000000000000114e+01
5.690999999999999659e+01
1.329499999999999886e+02
-5.442000000000000171e+01
4.322999999999999687e+01
3.618999999999999773e+01
1.151999999999999957e+01
3.077599999999999909e+02
-1.634600000000000080e+02
-1.446200000000000045e+02
6.367999999999999972e+01
2.019999999999999929e+01
-6.020000000000000284e+01
2.023000000000000043e+01
8.970000000000000639e+00
-5.581000000000000227e+01
-6.769999999999999574e+00
-7.300000000000000000e+01
3.239999999999999858e+01
1.304499999999999886e+02
-2.003100000000000023e+02
-1.049000000000000021e+01
8.909000000000000341e+01
2.452100000000000080e+02
1.138799999999999955e+02
-3.100600000000000023e+02
-1.172900000000000063e+02
-1.258599999999999994e+02
1.110999999999999943e+02
8.046999999999999886e+01
-5.253999999999999915e+01
2.576999999999999957e+01
-6.490999999999999659e+01
-1.173700000000000045e+02
8.070000000000000284e+00
8.849999999999999645e+00
1.077399999999999949e+02
8.365000000000000568e+01
2.048000000000000043e+01
9.312000000000000455e+01
2.537000000000000099e+01
1.191099999999999994e+02
-8.334999999999999432e+01
4.889999999999999680e+00
-2.263400000000000034e+02
-1.397899999999999920e+02
3.910999999999999943e+01
-7.714000000000000057e+01
-2.049999999999999822e+00
1.250100000000000051e+02
4.671000000000000085e+01
-8.134999999999999432e+01
3.853000000000000114e+01
2.200000000000000011e-01
2.841000000000000014e+01
1.174000000000000057e+02
1.350999999999999979e+01
-1.008499999999999943e+02
1.415000000000000036e+01
1.189500000000000028e+02
-2.857999999999999829e+01
2.279999999999999805e+00
-4.345000000000000284e+01
-1.446500000000000057e+02
3.062000000000000099e+01
3.979999999999999982e+00
-6.389999999999999858e+01
6.598000000000000398e+01
4.327000000000000313e+01
-3.372999999999999687e+01
9.504999999999999716e+01
2.109600000000000080e+02
-2.503000000000000114e+01
-2.732799999999999727e+02
-2.209999999999999964e+00
8.118999999999999773e+01
8.576999999999999602e+01
-2.073899999999999864e+02
9.889000000000000057e+01
-1.045600000000000023e+02
-1.496999999999999886e+02
2.557800000000000011e+02
2.314000000000000057e+01
1.450300000000000011e+02
-8.528000000000000114e+01
-1.790000000000000000e+02
1.723000000000000043e+01
1.346500000000000057e+02
9.376000000000000512e+01
5.343999999999999773e+01
2.116000000000000014e+01
-2.467599999999999909e+02
2.179300000000000068e+02
2.771000000000000085e+01
-3.799000000000000199e+01
-4.548199999999999932e+02
1.180000000000000000e+02
1.522400000000000091e+02
-8.348000000000000398e+01
1.182999999999999972e+02
-1.559999999999999964e+01
-2.612000000000000099e+01
-2.990000000000000213e+00
5.120000000000000284e+01
2.512999999999999901e+01
1.809499999999999886e+02
9.226999999999999602e+01
-2.305399999999999920e+02
-1.349000000000000021e+01
1.174000000000000021e+01
1.285999999999999943e+01
6.059999999999999609e+00
1.698999999999999844e+01
-1.491000000000000014e+01
8.876999999999999602e+01
-8.796999999999999886e+01
4.004999999999999716e+01
2.062000000000000099e+01
1.782999999999999829e+01
-8.100000000000000533e-01
-4.929999999999999716e+01
-1.166000000000000014e+01
1.088000000000000078e+01
2.142700000000000102e+02
2.660899999999999750e+02
9.899999999999999911e-01
-2.000500000000000114e+02
-9.498999999999999488e+01
-2.360000000000000000e+02
3.897999999999999687e+01
8.193999999999999773e+01
-1.610200000000000102e+02
-7.906000000000000227e+01
-4.600000000000000200e-01
-4.713000000000000256e+01
-9.839000000000000057e+01
1.312400000000000091e+02
1.102600000000000051e+02
-1.115600000000000023e+02
1.780600000000000023e+02
-4.989000000000000057e+01
-3.422999999999999687e+01
1.298899999999999864e+02
1.257000000000000028e+01
-2.329300000000000068e+02
-1.398100000000000023e+02
5.997999999999999687e+01
1.311999999999999886e+02
7.330000000000000071e+00
4.296999999999999886e+01
-1.078700000000000045e+02
7.846999999999999886e+01
1.096000000000000085e+01
-3.603000000000000114e+01
-8.164000000000000057e+01
9.126000000000000512e+01
1.045300000000000011e+02
-3.746000000000000085e+01
-2.928999999999999915e+01
-3.299999999999999822e+00
-4.893999999999999773e+01
1.537100000000000080e+02
-1.253999999999999915e+01
2.205999999999999943e+02
-1.347599999999999909e+02
-2.264900000000000091e+02
8.585999999999999943e+01
-7.381000000000000227e+01
2.246999999999999886e+01
6.540000000000000036e+00
1.256899999999999977e+02
-1.275699999999999932e+02
-1.334999999999999964e+01
2.192000000000000171e+01
6.959999999999999964e+00
1.569300000000000068e+02
-1.086500000000000057e+02
1.348300000000000125e+02
8.507999999999999829e+01
-9.726999999999999602e+01
-3.506000000000000227e+01
-3.828199999999999932e+02
3.194300000000000068e+02
1.990800000000000125e+02
1.686299999999999955e+02
-9.349999999999999645e+00
-4.925699999999999932e+02
-1.061899999999999977e+02
-1.064699999999999989e+02
-1.377199999999999989e+02
1.982100000000000080e+02
-7.639999999999999680e+00
-1.685600000000000023e+02
1.177800000000000011e+02
9.160000000000000142e+00
-4.349999999999999645e+00
8.173000000000000398e+01
2.535000000000000142e+01
4.578000000000000114e+01
4.843999999999999773e+01
-6.088000000000000256e+01
2.858999999999999986e+01
6.228000000000000114e+01
-4.425999999999999801e+01
5.610999999999999943e+01
3.728000000000000114e+01
-6.806999999999999318e+01
1.159999999999999964e+01
7.448000000000000398e+01
-4.503000000000000114e+01
1.955000000000000071e+01
2.303999999999999915e+01
-1.519999999999999929e+01
2.230999999999999872e+01
1.490099999999999909e+02
9.345000000000000284e+01
-3.321999999999999886e+01
-2.139000000000000057e+02
4.192900000000000205e+02
5.135000000000000142e+01
-1.294900000000000091e+02
-3.909100000000000250e+02
-3.978999999999999773e+02
9.640000000000000568e+00
3.298999999999999773e+02
1.277500000000000000e+02
-1.063599999999999994e+02
1.252000000000000028e+02
-2.992999999999999972e+01
7.500000000000000000e+00
2.489000000000000057e+01
-2.946000000000000085e+01
-1.600000000000000000e+01
3.346999999999999886e+01
-1.557000000000000028e+01
-4.014000000000000057e+01
4.790999999999999659e+01
1.126999999999999957e+01
-7.009999999999999787e+00
2.398799999999999955e+02
1.916899999999999977e+02
-2.165900000000000034e+02
-7.093999999999999773e+01
1.043100000000000023e+02
-2.948799999999999955e+02
1.521699999999999875e+02
5.232000000000000028e+01
1.707199999999999989e+02
-1.444300000000000068e+02
-3.531600000000000250e+02
4.968100000000000023e+02
2.305900000000000034e+02
-7.792000000000000171e+01
-1.563799999999999955e+02
5.496999999999999886e+01
-2.189999999999999947e+00
-2.275600000000000023e+02
-1.154599999999999937e+02
-9.140000000000000568e+00
-1.820200000000000102e+02
6.446999999999999886e+01
-8.167000000000000171e+01
-2.778799999999999955e+02
4.259999999999999787e+00
2.083499999999999943e+02
3.638199999999999932e+02
-2.680299999999999727e+02
8.630000000000000782e+00
1.194500000000000028e+02
-4.480000000000000426e+00
7.290000000000000568e+01
6.673999999999999488e+01
2.519000000000000128e+01
-6.735999999999999943e+01
-5.957999999999999829e+01
-2.796999999999999886e+01
5.828999999999999915e+01
8.539999999999999147e+00
-2.373999999999999844e+01
1.680999999999999872e+01
6.418999999999999773e+01
-4.032999999999999829e+01
1.911599999999999966e+02
3.622799999999999727e+02
-4.967999999999999972e+01
-1.623300000000000125e+02
-1.753000000000000114e+01
-2.883399999999999750e+02
-2.996200000000000045e+02
3.782799999999999727e+02
-1.076599999999999966e+02
3.324399999999999977e+02
-3.338000000000000256e+01
-5.292999999999999972e+01
-2.219000000000000057e+02
1.464300000000000068e+02
1.040699999999999932e+02
1.501599999999999966e+02
6.189000000000000057e+01
-6.261900000000000546e+02
3.245000000000000000e+02
1.092300000000000040e+02
6.660000000000000142e+00
2.469000000000000128e+01
-3.001999999999999957e+01
1.871100000000000136e+02
-2.014600000000000080e+02
-2.415699999999999932e+02
-3.939999999999999858e+01
2.380399999999999920e+02
-6.730000000000000426e+00
-2.075000000000000000e+01
-4.299999999999999933e-01
4.047999999999999687e+01
1.019399999999999977e+02
-1.334699999999999989e+02
5.780000000000000249e+00
-6.642000000000000171e+01
-1.541000000000000014e+01
1.212800000000000011e+02
1.182800000000000011e+02
4.053999999999999915e+01
-2.681800000000000068e+02
7.250000000000000000e+01
-7.798999999999999488e+01
6.998000000000000398e+01
1.734600000000000080e+02
-1.278499999999999943e+02
-9.401999999999999602e+01
-3.547999999999999687e+01
2.180000000000000160e+00
1.667999999999999972e+01
-1.558000000000000007e+01
-3.959999999999999964e+00
3.048999999999999844e+01
-6.554000000000000625e+01
-4.325999999999999801e+01
1.092600000000000051e+02
2.500500000000000114e+02
-6.939800000000000182e+02
-1.205600000000000023e+02
-1.200100000000000051e+02
1.748899999999999864e+02
4.519700000000000273e+02
-2.451999999999999957e+01
-1.862700000000000102e+02
2.960000000000000142e+01
-1.347500000000000000e+02
1.870000000000000000e+02
-1.364600000000000080e+02
4.447999999999999687e+01
9.265999999999999659e+01
-1.723000000000000114e+02
3.389000000000000057e+01
-1.600000000000000033e-01
1.975399999999999920e+02
1.873100000000000023e+02
-2.355999999999999872e+01
-2.269699999999999989e+02
9.601000000000000512e+01
2.994999999999999929e+01
2.580000000000000071e+01
-5.790999999999999659e+01
6.606999999999999318e+01
5.870000000000000284e+01
1.755500000000000114e+02
-2.915299999999999727e+02
-4.845000000000000284e+01
-4.203999999999999915e+01
-7.165000000000000568e+01
-7.668000000000000682e+01
3.225000000000000000e+01
-9.642000000000000171e+01
-3.665400000000000205e+02
-7.706999999999999318e+01
3.819300000000000068e+02
-1.554300000000000068e+02
-1.526999999999999886e+02
2.444399999999999977e+02
-3.316299999999999955e+02
-2.080699999999999932e+02
3.277699999999999818e+02
1.660000000000000142e+01
9.965000000000000568e+01
-3.620000000000000107e+00
4.299999999999999933e-01
7.009999999999999787e+00
4.959999999999999964e+00
-3.534000000000000341e+01
5.685999999999999943e+01
1.173000000000000043e+01
9.050000000000000711e+00
1.194099999999999966e+02
-1.664099999999999966e+02
1.372000000000000064e+01
4.650999999999999801e+01
-3.439999999999999947e+00
4.935000000000000142e+01
1.653999999999999915e+01
6.267000000000000171e+01
-1.784699999999999989e+02
-2.576100000000000136e+02
1.671000000000000085e+01
6.199000000000000199e+01
1.189000000000000057e+02
3.132099999999999795e+02
2.783600000000000136e+02
-4.470699999999999932e+02
-1.268599999999999994e+02
3.321999999999999886e+01
-1.085999999999999943e+01
-7.190000000000000391e+00
2.382000000000000028e+01
-8.445000000000000284e+01
1.353199999999999932e+02
-1.135999999999999943e+02
1.593400000000000034e+02
6.279999999999999716e+01
-2.582999999999999829e+01
-3.139999999999999858e+01
8.317000000000000171e+01
-3.954700000000000273e+02
-1.594000000000000057e+02
4.493999999999999773e+02
-1.830099999999999909e+02
-5.332300000000000182e+02
3.879399999999999977e+02
2.719000000000000128e+01
-5.860000000000000320e+00
-2.155000000000000071e+01
-5.370000000000000107e+00
2.812000000000000099e+01
1.099300000000000068e+02
3.465799999999999841e+02
5.732000000000000028e+01
3.686999999999999744e+01
1.409999999999999964e+01
-3.843999999999999773e+01
-1.266000000000000014e+01
3.214999999999999858e+01
-1.666000000000000014e+01
-4.339999999999999858e+01
3.428999999999999915e+01
-7.940000000000000391e+00
-8.490000000000000213e+00
-1.448000000000000043e+01
6.080000000000000071e+00
-1.327999999999999936e+01
-1.373000000000000043e+01
4.147999999999999687e+01
1.709999999999999964e+00
6.125999999999999801e+01
3.473199999999999932e+02
-9.076000000000000512e+01
-2.150300000000000011e+02
-1.591999999999999993e+01
-5.632999999999999829e+01
-3.188299999999999841e+02
-2.168300000000000125e+02
5.714900000000000091e+02
2.404099999999999966e+02
-4.536999999999999744e+01
-2.025600000000000023e+02
-8.605599999999999454e+02
6.661499999999999773e+02
1.914199999999999875e+02
-1.208000000000000007e+01
-1.401899999999999977e+02
2.479799999999999898e+02
1.724000000000000057e+02
-5.715999999999999659e+01
2.030999999999999943e+02
3.890600000000000023e+02
-5.097699999999999818e+02
-1.435999999999999943e+01
3.449000000000000199e+01
-1.359499999999999886e+02
-5.385299999999999727e+02
-7.556000000000000227e+01
1.771999999999999886e+01
3.679399999999999977e+02
4.354900000000000091e+02
1.914900000000000091e+02
5.246999999999999886e+01
-1.282000000000000028e+01
-1.149099999999999966e+02
-2.979900000000000091e+02
-1.814900000000000091e+02
3.505699999999999932e+02
1.801000000000000156e+01
-2.092199999999999989e+02
-3.564499999999999886e+02
-2.165000000000000000e+02
6.378999999999999915e+01
-8.826000000000000512e+01
-5.467000000000000171e+01
4.765999999999999659e+01
2.422700000000000102e+02
3.412300000000000182e+02
3.107000000000000028e+01
-4.958500000000000227e+02
-1.282400000000000091e+02
4.006000000000000227e+01
1.389199999999999875e+02
1.596100000000000136e+02
2.717999999999999972e+01
6.587999999999999545e+01
3.338000000000000256e+01
-1.547199999999999989e+02
5.822999999999999687e+01
3.193000000000000114e+02
-2.561899999999999977e+02
9.278000000000000114e+01
1.144800000000000040e+02
5.190999999999999659e+01
-7.432999999999999829e+01
-6.382000000000000028e+01
-4.735999999999999943e+01
-2.262000000000000099e+01
6.604999999999999716e+01
1.316399999999999864e+02
-2.669999999999999929e+00
-7.832999999999999829e+01
1.076999999999999957e+01
-1.457800000000000011e+02
-3.352000000000000313e+01
5.678999999999999915e+01
1.491899999999999977e+02
-1.467100000000000080e+02
-8.175000000000000000e+01
-3.545000000000000284e+01
-7.375000000000000000e+01
-5.721999999999999886e+01
1.135600000000000023e+02
-5.318999999999999773e+01
-3.098999999999999844e+01
1.481000000000000050e+01
-1.683600000000000136e+02
-1.259399999999999977e+02
3.676999999999999886e+02
3.378000000000000114e+01
-1.597000000000000064e+01
1.300999999999999979e+01
-1.540099999999999909e+02
3.603999999999999915e+01
1.015699999999999932e+02
1.426699999999999875e+02
1.463199999999999932e+02
-1.231299999999999955e+02
1.688899999999999864e+02
2.569900000000000091e+02
-1.146299999999999955e+02
3.606000000000000227e+01
-6.500000000000000222e-01
-8.619999999999999218e+00
-2.353000000000000114e+01
-3.292000000000000171e+01
-8.009999999999999432e+01
-3.181000000000000227e+02
-2.713399999999999750e+02
2.233700000000000045e+02
-9.650000000000000000e+01
1.840699999999999932e+02
6.370000000000000107e+00
-5.200000000000000178e-01
-1.115000000000000036e+01
-8.730000000000000426e+00
-1.541999999999999993e+01
1.082000000000000028e+01
-2.008300000000000125e+02
-8.124700000000000273e+02
1.013960000000000036e+03
3.109399999999999977e+02
6.074000000000000199e+01
7.804999999999999716e+01
6.848000000000000398e+01
-2.728999999999999915e+01
4.370000000000000107e+00
1.510200000000000102e+02
2.673199999999999932e+02
6.360999999999999943e+01
-4.110000000000000142e+01
-5.309000000000000341e+01
-5.440999999999999659e+01
-2.892999999999999972e+01
2.669999999999999929e+00
6.410000000000000142e+00
-1.527999999999999936e+01
-1.673999999999999844e+01
-1.546000000000000085e+01
-1.430000000000000071e+01
-2.689999999999999947e+00
6.879999999999999893e+00
4.259999999999999787e+00
-4.099999999999999645e+00
-1.157000000000000028e+01
1.750000000000000000e+00
-2.120000000000000107e+00
-4.000000000000000000e+00
4.379999999999999893e+00
-3.930000000000000160e+00
-2.779999999999999805e+00
-9.509999999999999787e+00
-7.700000000000000178e-01
-1.014000000000000057e+01
5.059999999999999609e+00
-4.719999999999999751e+00
3.339999999999999858e+00
-8.189999999999999503e+00
-1.685999999999999943e+01
-1.794000000000000128e+01
-9.599999999999999645e-01
1.729999999999999982e+00
-2.517000000000000171e+01
3.246999999999999886e+01
-1.582000000000000028e+01
-6.601000000000000512e+01
-2.604900000000000091e+02
-5.371999999999999886e+01
2.612200000000000273e+02
1.888000000000000114e+02
1.427400000000000091e+02
4.128000000000000114e+01
-1.489699999999999989e+02
1.346000000000000085e+01
-5.775000000000000000e+01
1.793799999999999955e+02
-2.615299999999999727e+02
-1.301100000000000136e+02
-1.060199999999999960e+02
-2.293300000000000125e+02
-1.225400000000000063e+02
6.770999999999999375e+01
4.980000000000000426e+00
1.943199999999999932e+02
-2.051800000000000068e+02
1.301399999999999864e+02
-1.519199999999999875e+02
2.194999999999999929e+01
2.636299999999999955e+02
3.681499999999999773e+02
2.053199999999999932e+02
-9.750000000000000000e+01
-4.351200000000000045e+02
4.298100000000000023e+02
2.760000000000000142e+01
1.350000000000000089e+00
-4.054999999999999716e+01
5.222999999999999687e+01
-1.005300000000000011e+02
-2.073799999999999955e+02
-1.967000000000000171e+01
-5.353999999999999915e+01
-1.419799999999999898e+02
3.285000000000000142e+01
6.689000000000000057e+01
2.299499999999999886e+02
1.027600000000000051e+02
8.409000000000000341e+01
-1.498499999999999943e+02
-4.145600000000000023e+02
4.628100000000000023e+02
2.941700000000000159e+02
2.001200000000000045e+02
-4.179499999999999886e+02
-1.880800000000000125e+02
-9.167000000000000171e+01
7.784000000000000341e+01
1.907000000000000028e+01
-1.908999999999999986e+01
8.193000000000000682e+01
1.158000000000000007e+01
-4.675999999999999801e+01
-3.870000000000000107e+00
3.214999999999999858e+01
-2.121000000000000085e+01
-3.486999999999999744e+01
5.293999999999999773e+01
-5.224000000000000199e+01
-5.265999999999999659e+01
6.015999999999999659e+01
4.879999999999999716e+01
-3.700000000000000178e+00
-5.603000000000000114e+01
3.720000000000000284e+01
1.183000000000000007e+01
-3.076000000000000156e+01
-5.720000000000000284e+01
9.554000000000000625e+01
1.782999999999999829e+01
-1.511999999999999922e+01
7.059999999999999609e+00
-1.944900000000000091e+02
2.114799999999999898e+02
-2.215099999999999909e+02
2.020000000000000000e+02
1.212000000000000028e+02
-1.445000000000000000e+02
-1.594600000000000080e+02
1.679300000000000068e+02
6.704000000000000625e+01
-2.863999999999999773e+02
3.667099999999999795e+02
-4.323399999999999750e+02
7.718999999999999773e+01
1.040600000000000023e+02
2.301200000000000045e+02
-1.352599999999999909e+02
2.312000000000000099e+01
1.056899999999999977e+02
-7.023000000000000398e+01
1.978000000000000114e+01
5.168999999999999773e+01
-6.849999999999999645e+00
-1.973300000000000125e+02
-7.293999999999999773e+01
-8.643999999999999773e+01
-2.029399999999999977e+02
-5.240999999999999659e+01
2.874300000000000068e+02
-1.767700000000000102e+02
1.203199999999999932e+02
3.479999999999999982e+00
3.629999999999999893e+00
1.974499999999999886e+02
1.581899999999999977e+02
-1.603799999999999955e+02
8.209000000000000341e+01
-1.030300000000000011e+02
2.119199999999999875e+02
2.120000000000000107e+00
-8.751000000000000512e+01
-1.415900000000000034e+02
-5.179600000000000364e+02
1.623000000000000114e+02
2.695600000000000023e+02
2.119000000000000057e+02
-1.125999999999999943e+02
-3.011499999999999773e+02
-1.028100000000000023e+02
-4.253000000000000114e+01
2.360000000000000142e+01
1.887999999999999901e+01
2.062000000000000099e+01
-4.660000000000000142e+01
-2.771000000000000085e+01
2.912000000000000099e+01
-1.075000000000000000e+01
-6.915000000000000568e+01
-3.917000000000000171e+01
-7.909999999999999432e+01
8.939000000000000057e+01
1.332700000000000102e+02
9.589999999999999858e+00
-1.678899999999999864e+02
5.015999999999999659e+01
7.443000000000000682e+01
1.067000000000000028e+02
9.499999999999999556e-01
1.389199999999999875e+02
-5.350999999999999801e+01
-1.268299999999999983e+02
-5.985999999999999943e+01
-3.417999999999999972e+01
-2.103000000000000114e+01
-9.551000000000000512e+01
8.948999999999999488e+01
1.808799999999999955e+02
6.673999999999999488e+01
-5.453999999999999915e+01
-1.025799999999999983e+02
4.152000000000000313e+01
1.855999999999999872e+01
7.599999999999999645e+00
-1.375999999999999979e+01
-5.375999999999999801e+01
-1.289699999999999989e+02
-7.539000000000000057e+01
-1.330200000000000102e+02
3.091899999999999977e+02
1.367899999999999920e+02
1.402400000000000091e+02
2.696000000000000085e+01
-3.414000000000000057e+01
-2.016200000000000045e+02
-1.682899999999999920e+02
3.201600000000000250e+02
6.171999999999999886e+01
5.757999999999999829e+01
-3.682099999999999795e+02
-3.758199999999999932e+02
5.014000000000000057e+01
9.426999999999999602e+01
-9.365999999999999659e+01
4.902000000000000313e+01
1.319499999999999886e+02
1.844199999999999875e+02
7.946000000000000227e+02
2.284239999999999782e+03
-1.594980000000000018e+03
-4.726800000000000068e+02
2.883999999999999986e+01
2.484600000000000080e+02
-2.741800000000000068e+02
1.936800000000000068e+02
1.488000000000000078e+01
-1.258000000000000007e+01
-5.046999999999999886e+01
-5.704999999999999716e+01
-8.900000000000000355e+00
-4.914999999999999858e+01
1.035799999999999983e+02
1.637800000000000011e+02
1.414399999999999977e+02
-2.212999999999999901e+01
-3.116000000000000014e+01
-1.838100000000000023e+02
-6.987999999999999545e+01
1.312100000000000080e+02
-3.100799999999999841e+02
9.254000000000000625e+01
1.171800000000000068e+02
-6.884999999999999432e+01
8.779999999999999716e+01
2.080500000000000114e+02
-1.501200000000000045e+02
-1.461399999999999864e+02
8.275000000000000000e+01
8.296999999999999886e+01
-1.117999999999999972e+02
1.907500000000000000e+02
-3.255600000000000023e+02
-4.907000000000000028e+01
1.480999999999999943e+02
1.242000000000000028e+02
-2.589999999999999858e+01
3.600999999999999801e+01
-1.666299999999999955e+02
-7.581999999999999318e+01
-3.525699999999999932e+02
3.630799999999999841e+02
1.525900000000000034e+02
-1.274200000000000017e+02
-3.689999999999999858e+01
-4.032999999999999829e+01
1.348300000000000125e+02
-8.917000000000000171e+01
2.114999999999999858e+01
5.678999999999999915e+01
-7.459999999999999964e+00
6.579000000000000625e+01
-1.506399999999999864e+02
-2.492400000000000091e+02
1.696800000000000068e+02
2.633199999999999932e+02
-3.980899999999999750e+02
2.205300000000000011e+02
-2.055600000000000023e+02
-3.290099999999999909e+02
1.124500000000000028e+02
5.486499999999999773e+02
6.382999999999999829e+01
1.178400000000000034e+02
-9.073999999999999488e+01
-1.242099999999999937e+02
-1.106700000000000017e+02
1.466100000000000136e+02
9.182999999999999829e+01
-2.055699999999999932e+02
2.517999999999999972e+01
1.914600000000000080e+02
-2.660299999999999727e+02
1.209999999999999964e+01
-4.207999999999999829e+01
1.551200000000000045e+02
-1.960300000000000011e+02
2.968199999999999932e+02
-4.167000000000000171e+01
-1.574900000000000091e+02
1.390800000000000125e+02
4.950999999999999801e+01
4.678000000000000114e+01
-8.985999999999999943e+01
1.516000000000000014e+01
2.869999999999999929e+01
7.898000000000000398e+01
6.800000000000000000e+01
-6.199099999999999682e+02
2.063700000000000045e+02
1.444199999999999875e+02
8.562000000000000455e+01
-1.728899999999999864e+02
-1.311999999999999886e+02
1.991200000000000045e+02
3.592900000000000205e+02
-3.105500000000000114e+02
-1.273000000000000043e+01
4.619300000000000068e+02
7.471999999999999886e+01
-1.738300000000000125e+02
-1.833100000000000023e+02
-1.392999999999999972e+01
-1.445200000000000102e+02
3.443999999999999773e+01
-7.584999999999999432e+01
-1.268799999999999955e+02
1.325699999999999932e+02
-2.169000000000000128e+01
-1.921399999999999864e+02
-7.759999999999999432e+01
2.285500000000000114e+02
8.317000000000000171e+01
-4.849900000000000091e+02
-3.802599999999999909e+02
3.436999999999999744e+01
7.470999999999999375e+01
1.071400000000000006e+02
1.303100000000000023e+02
6.131000000000000227e+01
3.250600000000000023e+02
7.045000000000000284e+01
-1.201599999999999966e+02
1.448899999999999864e+02
-1.812000000000000099e+01
-1.439900000000000091e+02
4.091999999999999886e+02
8.601799999999999500e+02
-3.558799999999999955e+02
-7.057699999999999818e+02
-2.385300000000000011e+02
-2.335999999999999943e+01
7.187999999999999545e+01
1.961899999999999977e+02
3.007999999999999829e+01
-1.208499999999999943e+02
-2.394799999999999898e+02
3.243500000000000227e+02
-1.082199999999999989e+02
5.609000000000000341e+01
1.991299999999999955e+02
7.881000000000000227e+01
7.098000000000000398e+01
-5.809000000000000341e+01
1.010000000000000009e+00
-5.506799999999999500e+02
-1.513109999999999900e+03
1.027170000000000073e+03
2.433499999999999943e+02
2.323000000000000043e+01
3.509700000000000273e+02
1.773199999999999932e+02
-1.329699999999999989e+02
-1.256000000000000050e+01
-4.147999999999999687e+01
1.360999999999999943e+02
2.748000000000000043e+01
-2.782699999999999818e+02
1.833999999999999986e+01
3.036999999999999886e+02
-1.269800000000000040e+02
-2.754599999999999795e+02
4.091499999999999773e+02
-3.582400000000000091e+02
3.417099999999999795e+02
-2.135999999999999943e+01
1.024899999999999949e+02
-6.076599999999999682e+02
2.032299999999999898e+02
1.790000000000000000e+02
2.367999999999999972e+01
1.405800000000000125e+02
-1.461999999999999886e+02
-3.891600000000000250e+02
2.962799999999999727e+02
1.933899999999999864e+02
3.257999999999999829e+01
-1.261700000000000017e+02
-1.759099999999999966e+02
-9.148999999999999488e+01
-5.710000000000000142e+01
1.233999999999999986e+01
1.537500000000000000e+02
-3.476700000000000159e+02
-8.490000000000000568e+01
2.440399999999999920e+02
1.517999999999999972e+01
1.314399999999999977e+02
2.742799999999999727e+02
-1.393700000000000045e+02
-1.959799999999999898e+02
2.241000000000000014e+01
-1.772400000000000091e+02
-2.330999999999999872e+01
-5.592999999999999972e+01
1.378799999999999955e+02
2.619999999999999929e+01
-8.142000000000000171e+01
8.826999999999999602e+01
4.525000000000000000e+01
-3.853999999999999915e+01
3.360999999999999943e+01
4.510000000000000142e+01
-1.744000000000000128e+01
-3.531000000000000227e+01
4.547999999999999687e+01
2.430000000000000160e+00
3.810000000000000053e+00
2.379300000000000068e+02
5.765999999999999659e+01
-5.442999999999999972e+01
-3.595600000000000023e+02
-3.250400000000000205e+02
6.579000000000000625e+01
2.516000000000000014e+01
8.275000000000000000e+01
-1.709999999999999964e+00
-4.768999999999999773e+01
6.185000000000000142e+01
1.160999999999999943e+01
-3.025000000000000000e+01
4.113000000000000256e+01
2.592000000000000171e+01
-2.255000000000000071e+01
-9.929999999999999716e+00
4.629999999999999716e+01
3.790000000000000036e+00
-3.639000000000000057e+01
3.654999999999999716e+01
8.359999999999999432e+00
-2.512999999999999901e+01
1.705000000000000071e+01
3.253999999999999915e+01
5.161999999999999744e+01
-3.101000000000000156e+01
-5.629999999999999893e+00
-6.625000000000000000e+01
-5.857999999999999829e+01
3.392000000000000171e+01
1.775000000000000000e+01
-4.219999999999999751e+00
3.439999999999999947e+00
2.030999999999999872e+01
7.342000000000000171e+01
7.712000000000000455e+01
-4.299000000000000199e+01
3.618899999999999864e+02
-8.671999999999999886e+01
-2.071800000000000068e+02
-2.035900000000000034e+02
-1.118499999999999943e+02
-3.666299999999999955e+02
-2.278000000000000114e+01
2.271800000000000068e+02
2.573000000000000043e+01
1.538499999999999943e+02
5.599000000000000199e+01
-5.330000000000000071e+00
4.872999999999999687e+01
3.853999999999999915e+01
-1.555000000000000071e+01
8.960000000000000853e+00
1.844999999999999929e+01
-9.500000000000000000e+00
-2.794999999999999929e+01
3.849000000000000199e+01
4.403000000000000114e+01
-1.266500000000000057e+02
3.207999999999999829e+01
1.212600000000000051e+02
1.576699999999999875e+02
-3.141000000000000227e+02
7.065999999999999659e+01
9.504999999999999716e+01
-3.644399999999999977e+02
3.899599999999999795e+02
2.837000000000000099e+01
-2.623700000000000045e+02
1.673100000000000023e+02
-3.452699999999999818e+02
2.797699999999999818e+02
2.728700000000000045e+02
-3.299000000000000199e+01
-2.562000000000000099e+01
-2.566700000000000159e+02
-1.611699999999999875e+02
6.364000000000000057e+01
-1.599900000000000091e+02
2.178300000000000125e+02
1.897899999999999920e+02
2.192299999999999898e+02
3.547099999999999795e+02
-1.095400000000000063e+02
-4.119300000000000068e+02
5.171000000000000085e+01
4.571000000000000085e+01
-2.544999999999999929e+01
2.513899999999999864e+02
1.141899999999999977e+02
-2.330000000000000071e+01
-9.696999999999999886e+01
2.022199999999999989e+02
-1.932599999999999909e+02
-6.937999999999999545e+01
-1.364300000000000068e+02
-4.582999999999999829e+01
8.237999999999999545e+01
2.994000000000000128e+01
-9.410999999999999943e+01
-6.321999999999999886e+01
-4.101100000000000136e+02
-4.482200000000000273e+02
4.835899999999999750e+02
1.105799999999999983e+02
4.089000000000000057e+01
2.529999999999999805e+00
-9.365000000000000568e+01
-6.292000000000000171e+01
5.575999999999999801e+01
1.551299999999999955e+02
4.067000000000000171e+01
6.551000000000000512e+01
1.394799999999999898e+02
-2.713199999999999932e+02
-7.323999999999999488e+01
2.564999999999999858e+01
2.612699999999999818e+02
-9.512999999999999545e+01
-4.204999999999999716e+01
-1.413000000000000078e+01
-5.009999999999999787e+00
1.383999999999999986e+01
-2.057000000000000028e+01
-3.506000000000000227e+01
-2.205000000000000071e+01
-1.689999999999999858e+01
1.476999999999999957e+01
4.338000000000000256e+01
2.069000000000000128e+01
-6.519999999999999574e+00
-1.060000000000000053e+00
-1.717999999999999972e+01
-6.980000000000000426e+00
-1.971999999999999886e+01
1.971000000000000085e+01
-1.325000000000000000e+01
5.419999999999999929e+00
-6.519999999999999574e+00
-4.000000000000000222e-01
-4.639999999999999680e+00
2.169999999999999929e+00
2.267999999999999972e+01
-5.250000000000000000e+00
-1.630999999999999872e+01
5.839999999999999858e+00
2.596000000000000085e+01
-9.490000000000000213e+00
-1.655000000000000071e+01
2.333999999999999986e+01
-4.450000000000000178e+00
-1.694999999999999929e+01
-1.522000000000000064e+01
6.570000000000000284e+00
4.740000000000000213e+00
2.060000000000000053e+00
3.019999999999999929e+01
1.330000000000000071e+00
-1.580000000000000071e+01
-1.502999999999999936e+01
2.125000000000000000e+01
-5.679999999999999716e+00
-1.100999999999999979e+01
-2.117000000000000171e+01
4.599999999999999645e+00
5.419999999999999929e+00
-1.962999999999999901e+01
1.669999999999999929e+00
4.059999999999999609e+00
-7.780000000000000249e+00
-6.299999999999999822e+00
2.751999999999999957e+01
2.040000000000000036e+00
-1.989999999999999991e+00
-7.629999999999999893e+00
1.728999999999999915e+01
6.400000000000000133e-01
-1.053999999999999915e+01
-3.330000000000000071e+00
-3.290000000000000036e+00
-7.269999999999999574e+00
-1.903999999999999915e+01
7.450000000000000178e+00
1.610999999999999943e+01
-1.247000000000000064e+01
-1.096000000000000085e+01
1.596000000000000085e+01
7.719999999999999751e+00
1.425999999999999979e+01
-1.205000000000000071e+01
6.099999999999999867e-01
-3.099999999999999978e-01
-8.154999999999999716e+01
1.336999999999999922e+01
8.310000000000000497e+00
6.599999999999999645e+00
1.353899999999999864e+02
-8.882999999999999829e+01
-2.114799999999999898e+02
-1.902700000000000102e+02
1.415900000000000034e+02
4.205299999999999727e+02
1.078900000000000006e+02
-5.445900000000000318e+02
2.745099999999999909e+02
3.839000000000000057e+01
-3.989999999999999858e+01
-6.534000000000000341e+01
6.063000000000000256e+01
3.890199999999999818e+02
-2.241699999999999875e+02
1.287899999999999920e+02
5.857000000000000028e+01
-1.380399999999999920e+02
-1.775800000000000125e+02
1.430999999999999943e+02
3.422999999999999687e+01
1.163400000000000034e+02
-5.710999999999999943e+01
-2.478000000000000114e+01
-8.390000000000000568e+01
4.580000000000000071e+00
7.270999999999999375e+01
5.669999999999999929e+00
9.556999999999999318e+01
-2.165600000000000023e+02
1.236700000000000017e+02
-2.515500000000000114e+02
2.621999999999999886e+01
2.371599999999999966e+02
2.703500000000000227e+02
-5.085699999999999932e+02
-7.109000000000000341e+01
1.373000000000000043e+01
9.282999999999999829e+01
3.782500000000000000e+02
-7.215999999999999659e+01
6.431999999999999318e+01
-5.091600000000000250e+02
-1.089500000000000028e+02
-1.680999999999999872e+01
1.219999999999999973e+00
1.326500000000000057e+02
4.028999999999999773e+02
6.014000000000000057e+01
4.893999999999999773e+01
-8.726999999999999602e+01
-9.529999999999999716e+01
-8.562999999999999545e+01
-8.768000000000000682e+01
-1.043799999999999955e+02
3.445600000000000023e+02
8.217100000000000364e+02
-8.798200000000000500e+02
1.725999999999999943e+02
-7.537999999999999545e+01
3.119000000000000128e+01
8.518999999999999773e+01
-1.589600000000000080e+02
2.072899999999999920e+02
-1.735200000000000102e+02
4.990000000000000213e+00
2.728199999999999932e+02
-1.755399999999999920e+02
-2.048199999999999932e+02
2.127800000000000011e+02
2.425099999999999909e+02
-3.974599999999999795e+02
-4.592999999999999972e+01
3.542000000000000171e+01
-3.457999999999999829e+01
3.647999999999999687e+01
3.934000000000000341e+01
-5.860000000000000320e+00
2.470000000000000195e+00
3.012000000000000099e+01
1.053999999999999915e+01
1.218400000000000034e+02
6.219999999999999751e+00
-1.543999999999999950e+01
5.952000000000000313e+01
-2.195600000000000023e+02
6.509999999999999432e+01
2.342999999999999972e+01
-3.187999999999999901e+01
-1.760000000000000009e+00
-5.646000000000000085e+01
-1.002999999999999936e+01
-2.740000000000000213e+00
1.499000000000000021e+01
2.412000000000000099e+01
-3.050000000000000000e+01
1.580000000000000071e+01
1.144999999999999929e+01
4.690999999999999659e+01
1.172099999999999937e+02
-1.369300000000000068e+02
1.733999999999999986e+01
1.235699999999999932e+02
-9.582999999999999829e+01
2.901999999999999957e+01
9.662999999999999545e+01
9.248999999999999488e+01
-1.065199999999999960e+02
3.264900000000000091e+02
-2.081999999999999886e+02
-5.993899999999999864e+02
4.038500000000000227e+02
-1.426500000000000057e+02
-1.284699999999999989e+02
1.574799999999999898e+02
-4.039999999999999858e+01
-1.569900000000000091e+02
-2.014999999999999858e+01
-1.041500000000000057e+02
1.113100000000000023e+02
6.267000000000000171e+01
1.433199999999999932e+02
1.790200000000000102e+02
-1.301100000000000136e+02
-2.283999999999999986e+01
-7.987000000000000455e+01
-8.987000000000000455e+01
1.417999999999999972e+01
1.147099999999999937e+02
4.432000000000000028e+01
1.485000000000000000e+02
-2.841499999999999773e+02
-1.315000000000000036e+01
2.530300000000000011e+02
-1.988799999999999955e+02
-3.640999999999999659e+01
-1.061200000000000045e+02
4.374599999999999795e+02
-2.483400000000000034e+02
-1.207699999999999960e+02
-1.525600000000000023e+02
-5.221999999999999886e+01
-1.190000000000000036e+01
1.364900000000000091e+02
1.231099999999999994e+02
3.832999999999999829e+01
-2.757000000000000028e+01
1.564399999999999977e+02
-2.323300000000000125e+02
-7.284000000000000341e+01
3.275500000000000114e+02
-1.356100000000000136e+02
-1.889999999999999858e+01
4.295000000000000284e+01
2.581100000000000136e+02
-2.205200000000000102e+02
-1.556599999999999966e+02
-6.856000000000000227e+01
1.366800000000000068e+02
-1.318999999999999950e+01
-4.824000000000000199e+01
2.004799999999999898e+02
1.077699999999999960e+02
1.291999999999999993e+01
4.460999999999999943e+01
3.039999999999999858e+01
-3.117000000000000171e+01
-7.925000000000000000e+01
-2.787400000000000091e+02
-1.011740000000000009e+03
8.188099999999999454e+02
6.745700000000000500e+02
1.340800000000000125e+02
3.139999999999999858e+01
-8.000000000000000444e-01
-9.571999999999999886e+01
-9.226999999999999602e+01
1.308000000000000007e+01
-4.559000000000000341e+01
1.160900000000000034e+02
4.214900000000000091e+02
1.177000000000000028e+02
-3.339000000000000057e+01
-6.481999999999999318e+01
1.791000000000000014e+01
-1.778000000000000114e+01
-4.225000000000000000e+01
-5.134000000000000341e+01
2.067999999999999972e+01
-1.841000000000000014e+01
-2.650000000000000000e+01
4.921000000000000085e+01
-3.810000000000000053e+00
-1.358000000000000007e+01
-1.589000000000000057e+01
1.773999999999999844e+01
4.669999999999999929e+00
-2.858999999999999986e+01
-1.171000000000000085e+01
1.540000000000000036e+00
-1.423000000000000043e+01
-1.873000000000000043e+01
3.069000000000000128e+01
-4.549999999999999822e+00
-1.382000000000000028e+01
-1.971000000000000085e+01
1.889999999999999858e+01
-3.080000000000000071e+00
-1.737999999999999901e+01
4.700000000000000178e+00
1.639999999999999902e+00
-8.509999999999999787e+00
-1.148000000000000043e+01
2.016000000000000014e+01
8.299999999999999600e-01
-7.070000000000000284e+00
-9.499999999999999556e-01
6.309999999999999609e+00
-8.720000000000000639e+00
-1.383999999999999986e+01
2.121000000000000085e+01
5.459999999999999964e+00
-7.030000000000000249e+00
-9.589999999999999858e+00
8.710000000000000853e+00
-2.398999999999999844e+01
-1.077999999999999936e+01
2.900000000000000000e+01
1.385999999999999943e+01
-6.330000000000000071e+00
-3.091000000000000014e+01
-1.255499999999999972e+02
-1.352500000000000000e+02
-1.290099999999999909e+02
6.117000000000000171e+01
1.954900000000000091e+02
3.463299999999999841e+02
4.811999999999999744e+01
-2.987999999999999901e+01
-4.178999999999999915e+01
-2.371999999999999886e+01
3.689999999999999947e+00
-1.625000000000000000e+01
-2.380999999999999872e+01
6.469999999999999751e+00
-9.429999999999999716e+00
-5.121999999999999886e+01
-2.733999999999999986e+01
7.695000000000000284e+01
1.410999999999999943e+01
-4.842000000000000171e+01
-1.630000000000000071e+01
-5.234000000000000341e+01
-1.200000000000000000e+01
7.831999999999999318e+01
1.100000000000000000e+01
-8.445999999999999375e+01
-5.584000000000000341e+01
1.490900000000000034e+02
3.550000000000000000e+01
-2.680000000000000071e+01
9.914000000000000057e+01
1.151500000000000057e+02
-8.404000000000000625e+01
-1.061899999999999977e+02
3.148000000000000043e+01
-3.339999999999999858e+00
1.517999999999999972e+01
7.162999999999999545e+01
-8.715000000000000568e+01
3.846999999999999886e+01
-2.185999999999999943e+01
-2.325000000000000000e+01
-8.039999999999999147e+00
2.399999999999999911e+00
-2.089999999999999858e+00
-5.639999999999999680e+00
-1.635000000000000142e+01
2.162000000000000099e+01
2.500000000000000000e+00
-1.633999999999999986e+01
-2.049999999999999822e+00
-1.900000000000000022e-01
1.100000000000000006e-01
-5.809999999999999609e+00
5.549999999999999822e+00
7.730000000000000426e+00
-4.110000000000000320e+00
-1.025000000000000000e+01
6.679999999999999716e+00
-5.549999999999999822e+00
3.470000000000000195e+00
-5.699999999999999512e-01
-2.879999999999999893e+00
-3.509999999999999787e+00
-8.199999999999999289e+00
1.762999999999999901e+01
3.879999999999999893e+00
-1.100999999999999979e+01
-5.709999999999999964e+00
1.399000000000000021e+01
4.679999999999999716e+00
-1.389999999999999902e+00
9.179999999999999716e+00
1.016999999999999993e+01
-9.640000000000000568e+00
-1.441000000000000014e+01
1.389000000000000057e+01
-4.490000000000000213e+00
-1.166999999999999993e+01
-6.559999999999999609e+00
9.100000000000000311e-01
-1.726999999999999957e+01
-2.341000000000000014e+01
-3.907000000000000028e+01
-2.306200000000000045e+02
4.460000000000000142e+01
