1587326219.00
64.000000
-0.00
-0.00
-0.00
-0.00
-0.00
-0.00
-0.00
-0.00
-0.00
-0.00
0.00
0.01
0.01
-0.00
-0.03
-0.05
-0.05
0.00
0.13
0.36
0.66
1.01
1.37
1.72
2.06
2.40
2.79
3.24
3.80
4.42
5.06
5.66
6.20
6.68
7.15
7.68
8.31
9.14
10.09
11.04
11.88
12.56
13.14
13.76
14.65
15.96
17.91
20.32
22.90
25.38
27.58
29.57
31.68
34.32
37.81
42.54
48.15
54.10
59.83
64.97
69.58
74.14
79.34
85.71
93.76
103.00
112.62
121.73
129.77
136.75
143.30
150.75
157.77
166.64
177.95
191.79
206.97
220.57
228.25
225.36
208.53
176.87
132.76
80.05
23.07
-34.94
-92.44
-149.16
-205.23
-260.37
-313.74
-363.87
-409.83
-450.91
-486.50
-515.74
-537.23
-549.22
-549.96
-538.37
-514.21
-478.67
-433.88
-382.45
-327.02
-269.84
-212.63
-156.66
-102.95
-52.37
-5.90
35.58
71.43
101.35
125.50
144.38
158.69
169.15
176.37
180.75
182.57
182.07
179.51
175.23
169.65
163.18
156.15
148.81
141.30
133.69
126.02
118.33
110.69
103.16
95.80
88.68
81.83
75.25
68.95
62.95
57.25
51.86
46.78
42.03
37.58
33.45
29.61
26.07
22.81
19.83
17.12
14.69
12.52
10.61
8.94
7.49
6.27
5.24
4.39
3.69
3.13
2.69
2.36
2.11
1.93
1.81
1.75
1.72
1.74
1.78
1.86
1.96
2.09
2.24
2.42
2.62
2.84
3.10
3.38
3.70
4.05
4.43
4.85
5.31
5.82
6.38
7.00
7.68
8.43
9.27
10.17
11.15
12.21
13.35
14.60
15.93
17.36
18.90
20.55
22.27
24.07
25.95
27.92
29.99
32.18
34.47
36.89
39.42
41.96
44.43
46.72
48.62
49.88
50.21
49.31
46.93
42.96
37.23
29.84
21.02
11.06
0.29
-10.92
-22.25
-33.36
-43.26
-51.92
-59.24
-65.05
-69.34
-72.23
-73.98
-74.93
-75.87
-76.80
-77.77
-78.66
-79.19
-79.04
-77.99
-75.99
-73.16
-69.66
-65.84
-61.27
-55.40
-47.75
-38.12
-26.89
-15.01
-3.88
5.13
11.15
14.08
14.61
13.96
13.27
13.02
12.81
11.47
7.63
0.56
-9.36
-20.64
-30.90
-37.79
-39.89
-37.31
-31.84
-26.59
-25.10
-30.09
-41.81
-56.99
-68.92
-69.38
-51.56
-13.39
40.50
99.48
149.88
179.77
182.99
161.00
121.38
74.15
28.22
-10.52
-39.06
-56.39
-62.96
-60.46
-51.77
-40.17
-27.97
-15.32
-0.20
19.92
45.39
72.67
94.92
105.39
101.23
85.30
65.00
48.51
41.10
43.72
54.17
68.79
84.94
102.54
123.23
147.83
174.03
195.91
206.15
199.43
175.31
138.99
99.57
66.73
47.23
43.42
53.40
72.70
96.30
119.98
141.18
158.94
173.44
185.42
195.66
204.67
212.55
219.07
223.90
226.65
226.61
222.73
213.60
198.03
175.51
146.51
112.28
74.12
32.81
-11.72
-60.41
-114.91
-176.88
-247.00
-323.71
-402.38
-475.60
-534.84
-573.34
-588.62
-583.60
-565.21
-541.40
-517.77
-495.80
-473.42
-447.32
-415.59
-378.98
-340.36
-302.86
-268.10
-235.55
-203.35
-169.79
-134.59
-99.28
-66.42
-38.28
-15.79
1.79
16.30
29.68
43.02
56.19
68.19
77.86
84.70
89.11
92.11
94.79
97.68
100.62
102.99
104.27
104.32
103.52
102.37
101.18
99.85
97.88
94.71
89.96
83.61
76.28
69.23
64.08
62.20
63.69
66.75
67.83
62.77
48.72
25.76
-2.51
-30.04
-50.44
-59.21
-55.22
-40.94
-21.48
-3.03
8.80
10.41
1.07
-16.95
-38.95
-59.07
-71.94
-74.13
-65.11
-47.33
-25.45
-5.08
8.65
12.47
5.73
-9.47
-29.07
-48.13
-62.48
-69.69
-69.53
-63.61
-54.50
-44.88
-36.71
-30.97
-27.81
-26.84
-27.33
-28.35
-28.72
-27.10
-22.28
-13.53
-0.90
14.69
31.65
48.22
62.91
74.98
84.53
92.37
99.65
107.30
115.60
123.84
130.47
133.52
131.35
123.44
110.69
95.34
80.21
67.81
59.58
55.50
54.13
52.97
49.19
40.36
25.27
4.46
-19.82
-44.42
-66.70
-85.56
-101.87
-117.75
-135.40
-155.93
-178.74
-201.84
-222.36
-237.35
-244.24
-241.11
-226.98
-202.01
-167.55
-125.72
-79.00
-29.66
20.24
68.59
112.93
150.46
178.87
197.12
206.26
209.01
208.84
208.71
210.04
212.60
215.16
216.41
215.61
212.78
208.31
202.54
195.62
187.71
179.31
171.36
164.98
160.92
159.15
158.88
159.04
158.78
157.75
155.97
153.63
150.75
146.95
141.48
133.09
119.94
99.71
70.24
30.79
-16.72
-67.11
-112.79
-145.95
-161.36
-158.35
-141.12
-117.02
-93.70
-76.66
-67.96
-66.64
-70.25
-76.19
-82.43
-87.36
-89.36
-86.79
-78.60
-65.08
-48.23
-31.28
-17.57
-9.28
-6.66
-8.18
-11.32
-13.74
-14.00
-11.95
-8.46
-4.89
-2.60
-2.46
-4.70
-8.90
-14.19
-19.57
-24.17
-27.47
-29.23
-29.47
-28.27
-25.66
-21.60
-16.00
-8.81
-0.22
9.31
19.05
28.04
35.42
40.56
43.27
43.85
42.97
41.36
39.68
38.25
37.04
35.85
34.37
32.45
30.13
27.63
25.13
22.59
19.72
16.07
11.29
5.41
-1.12
-7.53
-13.03
-17.11
-19.66
-21.01
-21.75
-22.56
-24.03
-26.58
-30.35
-35.09
-40.15
-44.56
-47.37
-47.94
-46.15
-42.40
-37.36
-31.62
-25.51
-19.09
-12.39
-5.66
0.58
5.69
9.16
10.90
11.23
10.75
10.01
9.38
8.92
8.55
8.10
7.48
6.65
5.58
4.22
2.53
0.52
-1.70
-3.95
-6.03
-7.80
-9.21
-10.25
-10.97
-11.46
-11.91
-12.62
-13.99
-16.32
-19.75
-24.10
-28.97
-33.81
-38.08
-41.31
-43.12
-43.16
-41.20
-37.22
-31.54
-24.70
-17.39
-10.11
-3.05
3.86
10.73
17.43
23.47
28.14
30.77
31.08
29.29
26.13
22.45
18.96
16.00
13.52
11.28
9.06
6.87
4.89
3.41
2.53
2.10
1.75
1.03
-0.34
-2.34
-4.69
-7.02
-9.10
-10.99
-12.97
-15.39
-18.54
-22.47
-27.05
-32.03
-37.05
-41.72
-45.53
-47.84
-47.99
-45.46
-40.02
-31.92
-21.87
-10.95
-0.35
8.83
15.89
20.63
23.35
24.67
25.30
25.72
26.10
26.38
26.36
25.94
25.18
24.17
23.06
21.91
20.78
19.81
19.19
19.07
19.45
20.06
20.44
20.17
19.09
17.43
15.75
14.66
14.52
15.32
16.66
17.98
18.80
18.98
18.76
18.73
19.65
22.29
27.28
35.01
45.63
59.05
75.00
93.05
112.67
133.22
153.99
174.24
193.35
211.06
227.46
242.93
257.97
272.77
287.07
300.07
310.64
317.45
319.24
314.98
303.94
286.02
261.92
233.29
202.63
172.80
146.47
125.55
110.92
102.54
99.78
101.74
107.52
116.29
127.21
139.46
152.20
164.68
176.22
186.37
194.86
201.59
206.62
210.01
211.70
211.31
208.15
201.28
189.81
173.27
151.85
126.43
98.34
68.86
38.72
7.91
-24.19
-58.24
-94.29
-131.34
-167.53
-200.74
-229.52
-253.93
-275.63
-297.06
-320.37
-346.38
-374.02
-401.52
-427.68
-452.75
-478.07
-504.48
-531.11
-555.19
-573.75
-585.72
-592.89
-598.46
-603.98
-607.28
-603.37
-588.47
-564.18
-538.66
-523.11
-525.27
-544.25
-570.03
-588.49
-588.64
-567.91
-532.20
-491.36
-453.44
-421.25
-392.60
-363.67
-332.61
-300.64
-271.13
-247.03
-229.04
-215.30
-202.41
-187.32
-168.67
-147.40
-125.96
-107.07
-92.46
-82.10
-74.45
-67.20
-58.41
-47.35
-34.64
-21.81
-10.48
-1.68
4.57
9.12
13.22
17.98
23.94
30.98
38.54
45.89
52.43
57.87
62.26
65.94
69.47
73.43
78.32
84.37
91.48
99.07
106.35
112.63
117.62
121.81
126.27
132.32
140.84
151.81
164.19
176.44
187.38
196.86
205.95
216.13
228.43
242.71
258.03
273.15
287.15
299.11
307.66
310.74
306.23
293.32
273.71
251.57
231.92
218.21
210.59
205.83
199.08
186.29
166.08
140.02
111.38
83.35
57.37
32.70
7.42
-19.93
-48.54
-74.56
-92.19
-96.28
-85.14
-61.86
-33.09
-6.16
14.40
28.47
39.55
51.97
68.15
87.37
106.71
122.94
134.21
140.44
142.50
141.10
136.42
128.61
118.70
108.88
101.83
99.30
100.83
104.05
105.91
104.74
101.57
99.86
103.70
115.37
134.33
157.62
181.48
202.96
220.21
231.64
234.94
227.18
206.09
172.14
129.47
84.91
45.82
17.22
0.49
-6.06
-5.25
0.99
12.74
31.59
59.03
94.85
136.44
179.26
217.88
247.31
263.87
265.68
252.95
228.18
196.10
162.83
134.30
114.32
102.94
96.41
88.68
74.18
49.99
16.74
-22.74
-65.45
-110.38
-158.93
-213.17
-273.46
-336.44
-395.04
-440.81
-467.30
-472.88
-461.16
-439.06
-413.67
-389.39
-366.83
-343.66
-316.88
-284.97
-248.93
-211.90
-177.74
-149.41
-127.94
-112.33
-100.15
-88.38
-74.23
-55.63
-31.10
-0.12
36.08
73.81
107.24
130.07
138.65
134.79
125.68
120.93
127.27
144.77
166.65
182.84
185.54
173.25
150.91
126.66
107.36
95.43
88.52
81.78
70.82
53.94
32.81
11.65
-4.68
-12.63
-11.35
-2.89
8.66
18.55
22.84
19.14
6.64
-14.00
-40.53
-69.20
-95.08
-113.31
-121.10
-119.33
-112.81
-108.38
-111.82
-125.21
-146.06
-168.68
-186.88
-196.20
-194.76
-182.71
-161.03
-130.42
-91.42
-45.38
4.49
52.85
93.55
121.91
136.83
141.53
141.96
143.77
149.26
156.25
159.43
153.57
136.91
112.55
87.14
67.58
57.72
57.02
61.66
67.22
71.27
74.14
77.80
84.10
93.13
103.21
112.00
118.01
121.28
123.16
125.36
128.64
132.50
135.38
135.46
131.38
122.59
109.05
91.01
68.83
42.27
10.58
-27.45
-72.86
-125.45
-183.20
-242.36
-298.62
-348.73
-391.34
-426.60
-454.83
-475.14
-485.11
-482.03
-464.87
-435.62
-398.91
-360.28
-323.72
-290.39
-259.00
-227.34
-194.13
-159.71
-125.59
-93.26
-63.19
-34.35
-4.74
27.45
63.22
102.10
142.55
182.65
220.94
256.93
291.21
325.19
360.74
399.81
443.93
493.42
546.44
598.34
641.95
669.26
673.86
653.25
609.91
550.40
482.99
414.97
350.83
292.04
238.24
188.81
143.94
104.77
72.71
48.36
31.18
19.44
10.73
2.90
-5.71
-16.52
-31.39
-52.86
-83.35
-123.38
-169.56
-214.53
-248.71
-263.73
-255.72
-226.51
-182.04
-128.91
-71.22
-9.92
54.83
120.59
180.86
226.48
249.44
246.72
221.90
183.71
142.42
105.42
75.37
50.40
26.70
1.02
-28.23
-61.76
-100.45
-145.20
-197.26
-256.35
-319.10
-378.71
-426.28
-454.08
-459.25
-443.94
-412.58
-371.46
-326.24
-280.87
-237.48
-196.82
-158.84
-124.01
-90.86
-53.76
-7.47
50.87
120.37
196.45
273.28
345.97
410.56
468.34
527.86
598.41
687.04
795.44
918.41
1045.27
1162.79
1256.86
1290.55
1240.56
1101.77
892.83
649.72
409.81
198.21
38.09
-80.31
-168.96
-231.55
-269.08
-283.58
-280.83
-270.80
-262.27
-260.91
-270.56
-288.59
-307.21
-319.93
-323.74
-320.18
-314.18
-311.27
-315.20
-328.41
-348.49
-369.57
-386.96
-398.69
-406.18
-413.12
-423.17
-438.12
-458.20
-480.44
-500.43
-515.43
-525.23
-531.96
-539.08
-550.08
-567.82
-594.58
-630.21
-671.63
-712.81
-745.41
-760.89
-753.42
-722.23
-671.94
-610.92
-547.52
-487.49
-432.94
-383.11
-336.29
-291.39
-248.38
-207.71
-169.41
-132.84
-97.12
-61.95
-28.11
2.74
28.67
48.39
61.81
70.03
74.77
77.62
79.48
80.48
80.25
78.60
75.97
73.47
72.54
74.27
78.89
85.75
93.74
101.87
109.78
117.90
127.04
137.94
150.96
166.17
183.35
201.95
220.67
237.23
248.78
252.98
249.33
239.82
228.76
220.97
220.11
227.27
241.10
259.12
279.54
302.58
330.10
363.84
402.84
442.03
472.75
485.38
472.98
433.94
372.33
295.44
210.55
122.67
34.90
-49.41
-124.37
-181.62
-212.95
-214.19
-187.78
-142.13
-87.76
-32.59
20.82
74.37
130.52
188.08
240.30
276.75
287.90
269.49
224.17
159.55
84.54
6.25
-70.60
-141.83
-201.83
-243.27
-259.31
-246.94
-208.99
-153.10
-88.16
-20.67
46.41
112.04
174.04
226.95
262.92
274.75
259.18
218.10
157.40
84.86
8.32
-64.51
-125.86
-167.98
-184.53
-172.52
-133.44
-72.88
1.01
79.43
153.83
216.25
259.48
278.16
269.61
234.95
178.76
108.34
32.67
-38.32
-94.46
-126.27
-126.91
-94.32
-32.67
47.74
132.60
207.15
259.79
284.32
280.68
253.82
211.08
159.80
105.28
50.34
-3.89
-56.39
-104.78
-145.36
-174.38
-189.70
-191.00
-179.82
-158.04
-127.51
-89.94
-47.33
-2.69
40.12
76.85
104.86
123.06
132.24
134.04
130.47
123.18
113.07
100.42
84.49
65.58
44.44
23.09
3.92
-10.39
-17.27
-14.60
-0.88
23.73
58.80
95.60
123.22
130.29
110.37
65.87
6.99
-48.31
-93.71
-128.72
-155.91
-177.96
-196.97
-214.15
-229.94
-245.78
-264.78
-291.38
-327.11
-369.72
-412.20
-444.50
-456.73
-442.91
-403.91
-347.28
-285.15
-228.46
-184.15
-153.62
-133.94
-120.16
-107.82
-94.71
-80.83
-67.74
-56.32
-46.55
-37.57
-28.36
-18.33
-7.77
2.33
10.93
17.45
22.59
27.89
34.91
44.49
56.44
69.81
83.40
96.30
108.08
118.88
128.92
137.98
145.32
149.73
150.04
145.52
136.25
123.15
107.66
91.45
75.94
62.18
50.73
41.64
34.54
28.74
23.48
18.19
12.77
7.54
3.05
-0.30
-2.46
-3.69
-4.35
-4.60
-4.38
-3.62
-2.50
-1.53
-1.24
-1.73
-2.42
-2.10
0.32
5.13
11.46
17.45
21.11
21.16
17.66
12.05
6.70
4.21
6.78
15.45
29.54
46.25
60.94
68.34
64.39
48.04
22.13
-7.40
-33.61
-51.04
-57.56
-54.82
-47.23
-39.96
-37.12
-40.53
-49.74
-63.01
-78.60
-95.68
-114.22
-134.26
-154.79
-173.47
-187.38
-194.64
-195.71
-193.40
-191.24
-191.26
-192.39
-190.71
-181.38
-161.08
-129.42
-88.73
-42.66
5.14
51.66
94.21
129.88
155.59
169.04
169.72
159.57
142.54
123.23
105.37
90.80
79.46
70.05
61.04
51.45
41.14
30.70
21.21
13.81
9.37
8.28
10.40
15.25
22.18
30.60
39.96
49.73
59.18
67.38
73.40
76.60
76.95
75.07
71.87
68.19
64.35
60.25
55.65
50.69
46.07
42.82
41.77
42.91
45.15
46.61
45.22
39.42
28.59
13.17
-5.49
-25.42
-44.36
-60.10
-71.05
-76.63
-77.59
-75.71
-73.18
-71.75
-71.96
-73.04
-73.33
-71.12
-65.37
-56.15
-44.44
-31.63
-19.00
-7.29
3.21
12.53
20.71
27.68
33.31
37.49
40.26
41.86
42.60
42.78
42.59
42.09
41.31
40.26
38.98
37.54
36.01
34.33
32.37
29.86
26.53
22.19
16.88
10.83
4.45
-1.85
-7.80
-13.34
-18.64
-23.93
-29.40
-35.15
-41.13
-47.14
-52.84
-57.78
-61.36
-62.97
-62.11
-58.60
-52.56
-44.32
-34.24
-22.63
-9.71
4.21
18.60
32.69
45.59
56.49
64.85
70.50
73.66
74.84
74.75
74.17
73.82
74.23
75.59
77.72
80.07
81.90
82.48
81.30
78.23
73.51
67.72
61.56
55.64
50.32
45.72
41.80
38.48
35.72
33.43
31.33
28.87
25.32
19.91
12.12
1.95
-9.94
-22.30
-33.53
-42.00
-46.50
-46.54
-42.44
-35.16
-25.95
-15.95
-6.00
3.42
12.01
19.51
25.58
29.88
32.26
32.92
32.48
31.74
31.48
32.14
33.70
35.69
37.38
38.06
37.24
34.86
31.27
27.13
23.18
20.00
17.84
16.55
15.79
15.21
14.73
14.59
15.18
16.76
19.11
21.58
23.23
23.26
21.38
17.98
14.03
10.79
9.42
10.69
14.76
20.92
27.62
32.63
33.56
28.52
16.62
-1.84
-25.74
-53.60
-83.99
-115.52
-146.64
-175.39
-199.47
-216.47
-224.32
-221.70
-208.30
-185.17
-154.77
-120.77
-87.44
-58.44
-35.79
-19.23
-6.77
4.07
14.80
25.27
34.08
39.56
40.98
38.83
34.38
28.72
22.10
14.01
3.71
-9.05
-23.63
-38.64
-52.39
-63.30
-70.21
-72.42
-69.71
-62.40
-51.30
-37.58
-22.42
-6.77
8.81
24.06
38.77
52.57
64.77
74.59
81.37
84.86
85.29
83.33
80.01
76.61
74.47
74.84
78.53
85.61
95.19
105.61
115.00
121.94
125.98
127.80
128.87
130.69
133.93
138.00
141.15
141.27
136.89
128.06
116.71
106.14
99.84
100.16
107.20
118.58
130.28
138.16
139.48
133.83
122.87
109.28
95.45
82.47
69.90
56.33
40.05
19.67
-5.61
-35.93
-70.43
-106.92
-141.87
-171.25
-192.00
-203.73
-209.37
-214.34
-224.07
-241.12
-263.54
-285.18
-298.06
-295.36
-273.87
-234.89
-183.48
-126.87
-72.67
-27.54
3.70
18.56
17.31
2.88
-19.35
-42.40
-58.95
-62.88
-50.83
-23.10
16.17
59.91
99.83
128.72
142.05
138.60
119.95
89.34
51.19
10.50
-27.20
-56.68
-74.38
-79.88
-76.39
-69.34
-63.81
-61.81
-61.15
-56.70
-43.09
-17.45
19.40
63.58
109.75
152.73
187.87
211.01
218.36
207.12
176.93
131.31
78.16
28.47
-6.54
-18.89
-6.46
26.61
71.93
120.27
164.76
202.22
232.35
255.67
271.66
278.50
274.38
259.21
235.56
207.97
181.07
157.81
138.49
121.29
103.52
82.95
58.52
30.35
-1.06
-35.49
-73.25
-114.80
-159.83
-206.49
-251.27
-290.14
-320.18
-340.95
-354.62
-364.92
-375.23
-387.17
-400.47
-413.91
-426.77
-439.59
-453.75
-470.14
-487.83
-503.63
-512.97
-511.55
-496.89
-468.95
-429.73
-381.89
-327.69
-268.82
-207.25
-146.34
-90.95
-46.37
-16.01
0.56
8.04
13.79
25.33
47.86
83.04
128.86
180.30
230.16
270.32
293.58
295.98
278.66
248.01
213.49
183.93
163.86
152.41
144.73
135.23
120.69
101.43
80.53
61.94
48.84
43.01
44.94
53.97
68.13
83.99
96.81
101.71
95.32
77.26
50.52
20.60
-6.27
-24.88
-32.19
-27.68
-13.00
8.53
32.61
54.77
71.22
79.78
80.30
74.63
65.49
55.57
46.59
39.08
32.95
27.96
24.19
21.97
21.58
23.01
25.87
29.48
33.22
36.61
39.40
41.37
42.29
41.89
40.00
36.68
32.25
27.25
22.22
17.54
13.35
9.64
6.35
3.50
1.14
-0.64
-1.79
-2.38
-2.56
-2.49
-2.34
-2.15
-1.93
-1.65
-1.31
-0.97
-0.72
-0.70
-1.04
-1.84
-3.23
-5.36
-8.37
-12.26
-16.81
-21.47
-25.51
-28.27
-29.39
-28.97
-27.45
-25.32
-22.91
-20.26
-17.32
-14.04
-10.67
-7.60
-5.36
-4.25
-4.36
-5.47
-7.22
-9.23
-11.20
-12.94
-14.30
-15.20
-15.59
-15.41
-14.62
-13.26
-11.41
-9.27
-7.02
-4.82
-2.70
-0.66
1.32
3.12
4.43
4.79
3.74
0.98
-3.44
-9.07
-15.18
-20.98
-25.75
-29.09
-30.85
-31.08
-29.96
-27.69
-24.48
-20.60
-16.30
-11.83
-7.39
-3.05
1.20
5.44
9.69
13.97
18.20
22.36
26.36
30.15
33.57
36.44
38.61
39.99
40.64
40.71
40.38
39.76
38.89
37.81
36.63
35.51
34.62
34.00
33.52
32.93
32.03
30.80
29.44
28.21
27.23
26.36
25.17
23.20
20.20
16.27
11.86
7.58
3.97
1.27
-0.53
-1.61
-2.18
-2.39
-2.33
-2.11
-1.87
-1.79
-2.01
-2.63
-3.60
-4.83
-6.25
-7.78
-9.44
-11.29
-13.43
-16.00
-19.17
-23.07
-27.73
-33.05
-38.79
-44.63
-50.24
-55.39
-59.88
-63.53
-66.09
-67.19
-66.46
-63.65
-58.78
-52.17
-44.28
-35.53
-26.20
-16.40
-6.21
4.08
13.94
22.66
29.59
34.38
37.08
38.08
37.90
37.03
35.75
34.28
32.73
31.17
29.64
28.05
26.23
23.94
21.05
17.58
13.77
10.01
6.69
4.13
2.48
1.74
1.77
2.30
3.00
3.47
3.35
2.40
0.63
-1.67
-3.95
-5.56
-5.96
-4.84
-2.16
1.87
6.87
12.45
18.13
23.47
28.03
31.52
33.81
34.94
35.17
34.73
33.87
32.77
31.50
30.13
28.72
27.35
26.08
24.93
23.91
22.94
21.96
20.89
19.62
18.12
16.32
14.21
11.76
8.97
5.81
2.24
-1.78
-6.28
-11.18
-16.18
-20.73
-24.10
-25.55
-24.55
-21.02
-15.35
-8.30
-0.79
6.34
12.44
17.13
20.24
21.84
22.19
21.66
20.72
19.77
19.11
18.86
19.02
19.51
20.30
21.40
22.78
24.27
25.56
26.32
26.30
25.49
24.13
22.65
21.47
20.73
20.21
19.40
17.92
15.60
12.60
9.44
6.76
5.16
5.16
7.06
10.90
16.84
24.60
33.50
42.79
52.05
61.54
72.05
84.17
97.58
111.79
125.24
135.77
141.29
140.60
133.88
122.92
110.69
100.31
95.54
98.31
108.18
123.03
140.35
158.44
176.93
196.00
215.48
236.33
258.46
280.86
301.81
319.06
330.27
333.70
328.79
303.82
253.46
178.74
87.58
-8.02
-96.76
-171.50
-229.67
-272.05
-301.03
-317.61
-323.26
-319.89
-309.84
-295.61
-279.48
-263.04
-247.49
-233.61
-220.35
-206.78
-192.19
-176.42
-159.85
-143.17
-127.15
-112.71
-100.57
-90.28
-81.21
-72.61
-63.90
-54.92
-46.08
-38.34
-33.36
-32.66
-36.83
-45.61
-57.87
-71.90
-86.17
-99.63
-110.98
-120.90
-130.27
-139.73
-149.73
-160.71
-172.72
-184.77
-194.08
-196.35
-187.33
-164.76
-130.37
-89.93
-51.37
-21.49
-3.42
4.21
5.65
5.32
5.95
8.01
10.69
13.44
16.69
21.55
28.84
38.21
48.01
56.16
60.82
61.36
58.53
54.04
49.76
46.97
45.91
45.75
45.18
42.97
38.69
32.85
26.77
21.96
19.51
19.67
21.75
24.46
26.39
26.51
24.80
21.92
18.90
16.66
15.51
15.05
14.28
12.18
8.10
2.53
-3.26
-7.48
-8.17
-3.41
8.44
28.39
56.54
89.17
121.55
147.94
163.21
164.56
152.59
130.95
104.68
78.32
54.50
34.16
17.04
2.78
-8.38
-15.90
-19.60
-20.24
-19.41
-19.00
-20.10
-22.83
-26.39
-29.45
-30.95
-30.49
-28.46
-25.82
-23.60
-22.41
-22.34
-23.05
-23.96
-24.50
-24.31
-23.35
-21.84
-20.14
-18.59
-17.40
-16.55
-15.86
-15.10
-14.23
-13.44
-13.05
-13.31
-14.21
-15.44
-16.60
-17.35
-17.69
-17.91
-18.41
-19.47
-21.08
-22.88
-24.31
-24.79
-23.94
-21.65
-18.11
-13.79
-9.31
-5.27
-2.11
-0.03
1.06
1.40
1.17
0.48
-0.76
-2.61
-5.06
-7.83
-10.47
-12.46
-13.39
-13.15
-11.84
-9.69
-6.96
-3.84
-0.48
2.90
6.01
8.53
10.15
10.68
10.08
8.38
5.61
1.78
-3.03
-8.58
-14.40
-19.86
-24.30
-27.26
-28.57
-28.37
-27.07
-25.13
-23.05
-21.20
-19.84
-18.99
-18.50
-18.03
-17.11
-15.35
-12.52
-8.66
-4.11
0.61
4.94
8.42
10.80
12.08
12.48
12.36
12.07
11.97
12.33
13.34
15.13
17.75
21.16
25.21
29.74
34.58
39.61
44.84
50.27
55.88
61.63
67.38
72.99
78.24
82.91
86.68
89.27
90.55
90.60
89.78
88.69
87.95
88.02
88.97
90.34
91.24
90.46
86.92
79.98
69.70
56.86
42.73
28.65
15.66
4.36
-5.13
-12.91
-19.12
-23.85
-27.21
-29.39
-30.77
-31.82
-32.93
-34.34
-36.14
-38.38
-41.25
-45.10
-50.33
-57.10
-65.13
-73.71
-81.84
-88.60
-93.40
-96.12
-96.96
-96.25
-94.26
-91.19
-87.16
-82.38
-77.19
-71.93
-66.90
-62.22
-57.85
-53.67
-49.60
-45.72
-42.23
-39.31
-36.96
-34.94
-32.81
-30.18
-26.91
-23.24
-19.62
-16.52
-14.21
-12.62
-11.47
-10.47
-9.45
-8.43
-7.56
-7.00
-6.80
-6.92
-7.24
-7.65
-8.05
-8.34
-8.47
-8.32
-7.71
-6.54
-4.75
-2.48
-0.01
2.30
4.14
5.36
6.00
6.22
6.24
6.15
5.96
5.59
5.00
4.23
3.38
2.54
1.76
1.05
0.43
-0.02
-0.24
-0.21
-0.01
0.15
0.03
-0.54
-1.56
-2.86
-4.23
-5.57
-6.88
-8.28
-9.89
-11.71
-13.57
-15.21
-16.36
-16.83
-16.55
-15.49
-13.73
-11.35
-8.51
-5.44
-2.40
0.34
2.56
4.10
4.92
5.07
4.74
4.17
3.64
3.32
3.30
3.47
3.68
3.78
3.73
3.59
3.43
3.26
3.02
2.66
2.14
1.46
0.59
-0.49
-1.85
-3.50
-5.34
-7.20
-8.91
-10.44
-11.85
-13.24
-14.62
-15.83
-16.59
-16.60
-15.71
-13.95
-11.49
-8.57
-5.36
-2.01
1.35
4.56
7.41
9.73
11.42
12.48
13.02
13.17
13.09
12.90
12.69
12.49
12.32
12.20
12.13
12.15
12.25
12.43
12.65
12.83
12.88
12.76
12.50
12.22
11.96
11.72
11.34
10.67
9.62
8.30
6.94
5.83
5.14
4.69
4.13
3.05
1.36
-0.71
-2.58
-3.66
-3.39
-1.60
1.41
5.11
9.00
12.93
17.00
21.51
26.60
32.57
39.32
46.31
52.74
57.94
61.70
64.34
66.61
69.24
73.31
79.20
86.53
94.23
101.14
106.55
110.43
113.36
116.29
121.26
129.99
143.09
159.34
175.65
187.87
192.16
186.40
165.28
128.38
79.82
27.02
-22.24
-62.91
-93.57
-115.21
-129.47
-137.76
-140.38
-137.99
-132.05
-124.58
-117.46
-111.78
-107.54
-103.91
-99.99
-94.54
-87.07
-78.05
-68.62
-60.05
-53.15
-47.99
-44.08
-40.85
-37.55
-33.86
-29.98
-26.31
-23.25
-20.87
-18.93
-17.05
-15.04
-12.66
-9.93
-7.05
-4.20
-1.59
0.61
2.31
3.60
4.83
6.59
9.39
13.29
17.74
21.72
24.24
24.83
23.74
21.73
19.59
17.80
15.97
13.57
10.17
5.82
1.01
-3.60
-7.48
-10.46
-12.71
-14.52
-16.06
-17.43
-18.50
-19.09
-19.05
-18.29
-16.83
-14.76
-12.18
-9.19
-5.97
-2.65
0.60
3.58
6.12
8.07
9.32
9.94
10.20
10.39
10.84
11.77
13.19
15.08
17.23
19.41
21.48
23.46
25.30
27.01
28.63
30.30
32.26
34.66
37.36
40.06
42.42
44.03
44.88
45.22
45.54
46.36
47.47
47.82
45.90
41.77
35.43
27.55
19.04
11.19
5.37
1.82
-0.55
-3.13
-7.03
-12.89
-20.65
-30.50
-41.71
-51.74
-58.54
-60.83
-57.87
-50.12
-39.55
-29.07
-22.37
-20.97
-22.44
-24.95
-28.02
-31.74
-36.81
-43.61
-52.03
-62.26
-72.67
-78.69
-78.67
-72.97
-61.98
-46.29
-27.19
1.63
38.56
64.89
76.17
77.74
74.52
71.19
69.95
70.27
67.32
55.24
33.15
6.83
-19.07
-41.17
-57.20
-66.61
-68.96
-66.42
-61.65
-55.13
-32.23
11.61
69.86
129.96
172.48
198.63
212.46
216.43
216.52
215.55
211.32
200.96
183.23
158.88
131.07
99.95
65.47
30.51
-2.45
-33.96
-64.36
-93.40
-120.59
-144.73
-168.45
-192.97
-212.73
-223.21
-224.45
-218.57
-209.59
-202.24
-199.32
-205.38
-220.38
-234.05
-238.90
-234.15
-221.29
-203.39
-183.91
-165.59
-155.79
-159.89
-172.20
-189.18
-211.22
-236.59
-262.34
-285.93
-276.50
-220.67
-169.74
-142.76
-125.35
-108.43
-82.61
-40.90
19.05
94.27
172.73
241.82
299.45
342.39
365.12
366.16
347.76
315.22
275.38
231.20
185.08
144.99
114.59
92.55
78.08
70.85
70.40
75.58
82.09
86.03
88.92
91.58
92.90
92.47
90.24
85.94
79.42
69.75
56.85
43.42
31.54
21.91
14.91
10.25
6.86
3.67
-0.07
-3.82
-5.27
-2.26
6.13
19.35
35.31
50.37
61.35
67.10
69.07
70.57
75.20
85.05
99.39
114.15
121.58
114.41
89.03
46.71
-7.13
-64.32
-114.97
-148.41
-155.58
-134.75
-89.51
-27.87
39.33
100.30
145.89
173.01
185.34
188.80
182.42
162.65
127.00
76.90
16.74
-47.99
-111.59
-169.28
-220.54
-274.54
-339.16
-414.83
-493.68
-565.48
-623.24
-664.22
-688.40
-654.84
-545.23
-377.60
-196.64
-39.62
79.53
162.84
213.19
243.97
261.68
262.53
243.16
205.41
157.00
107.30
59.60
12.33
-37.15
-92.38
-157.98
-232.78
-307.55
-365.05
-391.40
-383.40
-347.95
-296.18
-240.86
-192.48
-155.82
-129.25
-102.37
-66.50
-19.85
34.24
92.45
151.22
209.64
266.89
322.26
381.15
446.45
515.24
580.96
638.09
681.66
711.58
728.14
694.09
594.48
446.34
286.57
145.95
50.36
-10.56
-44.81
-57.84
-54.43
-38.79
-17.67
-1.92
-0.99
-16.39
-42.90
-68.35
-83.98
-87.29
-78.05
-60.31
-40.89
-25.76
-17.81
-19.23
-29.34
-51.84
-84.00
-114.87
-133.68
-137.17
-130.09
-119.63
-112.43
-111.41
-117.77
-128.94
-140.29
-147.67
-148.52
-141.60
-126.84
-106.07
-81.81
-57.00
-31.93
-6.19
20.21
46.25
70.45
91.38
107.90
120.07
122.72
114.74
96.60
69.57
35.89
0.74
-27.07
-37.57
-24.67
9.43
57.07
105.92
143.69
163.19
164.73
154.74
141.72
132.35
125.68
121.44
117.15
109.66
97.07
79.58
58.67
35.74
11.13
-15.97
-45.41
-76.73
-108.22
-136.83
-158.94
-171.98
-175.63
-172.17
-165.48
-158.54
-153.26
-149.56
-145.83
-140.04
-131.13
-119.60
-107.39
-97.16
-90.57
-88.10
-88.86
-91.10
-93.09
-93.87
-93.45
-92.46
-91.77
-91.40
-90.24
-86.43
-78.34
-65.56
-49.30
-31.83
-15.62
-3.16
4.56
8.78
12.41
18.72
29.97
46.70
67.93
91.82
115.11
135.06
151.18
164.98
178.67
193.76
210.18
226.83
241.78
250.38
246.92
226.90
188.39
132.81
65.58
-4.59
-67.36
-105.29
-108.34
-82.42
-43.90
-7.84
18.08
34.85
44.34
48.05
47.26
41.50
29.75
13.55
-3.95
-19.11
-28.79
-31.98
-32.60
-34.27
-41.15
-54.02
-71.43
-89.15
-101.83
-105.30
-98.21
-81.50
-56.96
-27.43
4.64
36.98
66.80
89.71
99.96
92.33
64.95
21.28
-30.89
-80.54
-115.94
-127.53
-110.93
-68.99
-11.29
49.13
100.43
135.73
154.87
162.97
167.19
173.00
182.30
194.21
207.12
220.38
234.62
250.75
268.85
287.74
304.98
317.12
320.49
312.20
291.55
261.12
226.78
196.21
176.26
170.25
176.56
189.43
201.23
205.55
199.20
182.39
157.71
128.18
95.76
61.02
24.20
-13.35
-48.15
-75.31
-90.58
-92.92
-86.10
-78.08
-78.01
-92.55
-123.23
-166.26
-214.78
-261.93
-303.94
-340.00
-371.05
-398.54
-423.95
-448.91
-475.41
-504.80
-535.97
-564.56
-582.50
-579.58
-546.81
-479.77
-379.92
-254.58
-114.98
25.86
153.60
256.47
327.57
365.77
375.10
363.57
339.98
312.12
285.11
257.18
226.19
192.11
156.97
122.69
90.77
60.13
30.14
1.27
-33.02
-75.67
-124.02
-172.29
-216.43
-254.05
-288.07
-320.63
-352.25
-395.05
-454.90
-528.21
-605.09
-677.51
-740.38
-798.11
-854.98
-912.16
-983.59
-1070.95
-1161.81
-1235.30
-1276.01
-1277.48
-1250.08
-1207.02
-1062.08
-791.71
-440.82
-94.93
185.41
359.22
463.22
527.37
571.74
610.08
635.94
646.34
644.52
643.38
649.67
661.47
668.38
664.83
666.61
665.01
656.03
641.11
621.38
602.18
586.40
573.04
559.93
547.73
506.75
460.40
408.28
359.49
322.57
298.67
285.60
277.50
274.56
274.38
265.17
239.75
200.61
171.52
149.89
132.16
105.97
76.67
52.32
42.82
50.09
71.95
101.85
116.47
129.37
136.11
136.82
128.09
106.41
68.69
18.03
-37.55
-90.25
-128.76
-150.45
-154.84
-147.25
-133.80
-119.11
-103.37
-84.30
-61.13
-31.76
-0.06
30.75
56.28
73.42
81.11
81.19
77.12
72.50
72.69
79.69
94.66
115.55
137.72
155.66
165.61
165.92
157.01
141.40
120.51
95.79
68.15
38.89
9.37
-17.19
-39.26
-57.42
-74.11
-93.05
-117.10
-147.33
-183.15
-224.83
-268.91
-313.39
-355.04
-389.04
-409.34
-410.45
-389.49
-347.31
-290.73
-222.21
-146.58
-67.74
10.26
81.95
140.30
178.52
192.70
180.07
149.58
108.41
62.56
14.48
-36.85
-94.32
-159.53
-207.15
-256.81
-292.98
-304.35
-284.75
-237.15
-174.15
-114.05
-73.38
-59.48
-71.21
-91.14
-104.23
-101.73
-84.70
-61.67
-42.54
-33.02
-32.44
-38.84
-44.57
-47.47
-47.59
-44.80
-36.61
-18.30
14.57
62.68
119.06
175.42
220.38
245.67
249.20
235.33
212.45
189.59
173.48
166.47
169.38
179.74
193.56
206.03
212.53
209.67
196.48
174.80
148.23
121.60
98.48
80.56
67.87
59.71
54.92
51.75
47.72
39.76
25.32
3.54
-23.83
-52.54
-76.73
-90.25
-88.32
-69.00
-34.50
8.63
50.65
81.22
92.56
81.86
51.65
8.25
-40.91
-89.64
-133.81
-170.80
-198.44
-214.41
-216.85
-205.41
-182.20
-151.70
-119.74
-91.76
-71.71
-61.59
-61.49
-70.18
-85.19
-103.02
-119.50
-130.76
-134.65
-132.00
-126.72
-124.47
-130.38
-146.77
-172.18
-201.93
-230.00
-250.95
-261.33
-260.12
-248.27
-228.10
-202.52
-174.30
-145.54
-117.48
-90.94
-66.82
-46.49
-31.41
-22.36
-18.49
-17.29
-15.47
-10.39
-1.19
11.30
25.42
40.11
55.58
73.15
94.26
119.41
147.69
177.26
206.36
233.92
259.61
283.07
303.13
317.71
324.39
321.52
309.24
289.78
266.76
244.10
224.96
211.07
202.68
198.71
196.89
193.81
185.25
167.16
137.27
96.58
50.04
5.44
-28.97
-47.43
-48.68
-36.07
-15.77
5.89
24.66
39.11
49.84
57.91
63.70
66.66
65.96
61.34
53.46
43.54
32.62
21.11
8.71
-4.81
-18.89
-31.76
-40.87
-44.00
-40.50
-31.89
-21.48
-13.22
-10.14
-13.20
-21.03
-30.66
-38.83
-43.23
-43.34
-40.34
-36.52
-34.18
-34.45
-36.79
-39.19
-39.22
-35.21
-27.56
-18.72
-12.25
-11.15
-16.00
-24.46
-32.15
-34.74
-29.85
-18.11
-2.49
13.28
25.69
32.67
33.35
27.54
15.92
0.73
-13.55
-21.19
-17.45
-2.72
18.37
38.76
53.47
62.86
72.87
92.15
127.13
179.13
241.72
305.83
362.89
407.44
437.00
449.98
444.95
421.04
380.12
325.12
262.94
201.76
149.32
110.36
84.53
68.74
54.14
45.99
41.16
38.29
36.45
35.51
34.86
30.42
19.12
0.61
-22.00
-47.12
-73.46
-100.70
-127.39
-153.10
-182.45
-218.38
-259.83
-301.45
-339.09
-370.76
-396.72
-416.71
-433.27
-456.16
-492.65
-543.73
-603.84
-666.91
-729.91
-792.58
-854.03
-869.50
-813.40
-692.12
-540.61
-394.93
-273.88
-181.28
-126.85
-95.62
-77.87
-75.72
-92.62
-128.82
-180.30
-232.26
-274.72
-299.00
-295.73
-261.88
-205.17
-136.77
-66.36
1.26
65.13
123.54
173.57
211.67
230.86
223.14
187.88
134.54
79.92
40.51
24.31
30.09
51.11
77.51
100.90
118.58
133.02
148.81
169.36
194.75
223.80
256.14
291.63
329.54
367.95
402.90
428.85
440.89
436.73
418.80
393.81
369.86
353.50
347.79
351.91
362.48
375.11
385.15
387.74
377.58
349.44
299.88
229.34
143.39
52.07
-32.70
-100.87
-147.21
-172.30
-181.38
-181.49
-178.41
-174.89
-170.50
-163.02
-150.16
-130.69
-104.74
-73.40
-38.10
-0.31
38.58
77.28
114.89
151.31
187.18
223.23
259.28
293.49
322.42
342.03
349.10
342.26
322.19
290.96
251.17
205.29
155.81
105.41
57.06
13.53
-23.47
-54.09
-80.40
-105.97
-134.86
-170.48
-214.56
-266.22
-321.44
-373.50
-414.48
-437.52
-439.03
-419.82
-384.52
-339.51
-290.52
-240.95
-191.82
-142.98
-94.63
-48.33
-6.68
27.56
52.63
68.33
75.95
77.51
75.20
70.83
65.64
60.64
56.80
55.24
56.87
61.94
69.55
77.64
83.64
85.48
82.46
75.53
66.76
58.32
51.65
46.99
43.68
40.78
37.71
34.39
31.09
28.14
25.68
23.76
22.39
21.55
21.17
21.05
21.08
21.12
21.23
21.61
22.47
23.84
25.49
26.98
27.94
28.16
27.86
27.57
27.97
29.73
33.31
38.96
46.67
56.29
67.52
79.99
93.44
107.73
122.96
139.44
157.49
177.17
197.89
218.20
235.93
248.70
254.54
252.46
242.53
225.72
203.43
177.09
148.04
117.42
86.17
54.88
23.49
-8.90
-43.89
-83.51
-129.85
-184.51
-247.89
-318.30
-391.28
-459.77
-515.56
-551.66
-564.57
-555.53
-529.69
-493.92
-454.24
-414.34
-375.47
-337.56
-300.49
-264.40
-229.33
-194.25
-156.52
-112.09
-56.90
11.11
90.03
173.29
250.69
311.33
347.33
356.52
342.84
314.17
278.94
243.21
209.74
179.12
151.84
129.67
115.30
110.69
115.30
125.59
136.39
143.17
143.96
139.50
132.30
124.76
117.90
111.28
103.85
94.75
83.18
67.83
46.16
15.22
-27.05
-80.27
-141.14
-204.07
-262.93
-313.13
-352.22
-379.52
-394.22
-394.87
-380.65
-353.31
-317.38
-279.02
-244.18
-216.17
-195.30
-178.31
-160.67
-139.73
-116.79
-95.63
-79.95
-71.53
-68.80
-68.40
-64.92
-52.43
-26.85
12.32
62.45
118.98
175.60
226.04
256.32
252.73
213.01
150.84
85.39
28.69
-15.48
-54.93
-94.60
-134.02
-166.79
-184.20
-179.23
-151.84
-108.79
-59.94
-14.74
21.91
49.35
71.35
93.68
120.81
154.00
191.96
232.41
272.13
307.42
332.87
342.95
333.85
304.88
258.75
201.43
140.92
84.82
39.08
6.88
-10.46
-12.58
0.19
26.34
62.98
105.78
149.02
186.55
212.64
223.25
216.87
194.31
157.84
110.83
57.64
3.66
-44.81
-81.30
-100.60
-100.54
-83.44
-56.38
-29.51
-13.12
-14.43
-35.06
-70.12
-109.43
-140.83
-154.47
-146.67
-120.23
-82.59
-42.54
-7.24
19.20
35.44
41.50
37.45
22.68
-2.20
-34.53
-69.89
-103.86
-133.48
-157.61
-176.18
-189.26
-197.48
-201.02
-199.78
-194.19
-185.38
-174.53
-162.01
-147.42
-125.12
-95.04
-63.26
-38.14
-24.67
-22.12
-26.07
-31.43
-34.75
-34.91
-33.48
-31.65
-28.86
-23.72
-15.12
-3.13
11.46
27.63
45.15
64.56
84.98
107.12
131.28
156.02
177.81
191.69
192.71
177.34
144.30
95.78
37.99
-20.42
-70.42
-104.80
-120.00
-116.91
-100.31
-77.39
-55.23
-38.51
-29.11
-26.68
-29.78
-36.76
-46.25
-56.87
-67.12
-75.33
-79.92
-80.39
-77.69
-73.89
-71.29
-71.23
-73.53
-76.61
-78.21
-76.42
-70.33
-60.14
-46.73
-31.29
-15.19
0.09
12.95
22.10
27.08
28.60
28.37
28.44
30.29
34.16
38.99
42.99
44.39
42.15
36.28
27.64
17.62
7.69
-0.85
-7.11
-10.71
-11.76
-10.82
-8.51
-5.49
-2.28
0.69
2.98
4.22
4.13
2.68
0.08
-3.27
-6.86
-10.15
-12.57
-13.52
-12.44
-9.02
-3.33
4.18
12.76
21.74
30.59
39.03
46.85
53.78
59.46
63.65
66.33
67.80
68.51
68.83
68.83
68.28
66.84
64.27
60.60
56.13
51.32
46.60
42.22
38.19
34.29
30.22
25.69
20.62
15.12
9.51
4.08
-0.97
-5.71
-10.44
-15.55
-21.31
-27.72
-34.35
-40.37
-44.80
-46.86
-46.16
-42.88
-37.59
-31.02
-23.74
-16.05
-8.07
0.13
8.28
15.97
22.67
27.96
31.70
34.03
35.29
35.89
36.12
36.14
35.97
35.59
35.03
34.36
33.69
33.11
32.57
31.96
31.13
29.95
28.43
26.65
24.73
22.75
20.66
18.35
15.62
12.38
8.60
4.40
-0.07
-4.64
-9.25
-13.94
-18.76
-23.67
-28.35
-32.19
-34.41
-34.27
-31.36
-25.79
-18.17
-9.45
-0.60
7.60
14.73
20.67
25.45
29.12
31.65
32.99
33.20
32.48
31.24
29.92
28.92
28.40
28.23
28.11
27.72
26.89
25.69
24.40
23.28
22.48
21.93
21.34
20.40
18.94
16.99
14.75
12.45
10.26
8.21
6.23
4.20
2.08
-0.12
-2.32
-4.44
-6.43
-8.23
-9.73
-10.66
-10.61
-9.14
-5.90
-0.81
5.86
13.56
21.54
29.10
35.70
41.12
45.42
48.85
51.70
54.21
56.48
58.46
60.01
61.02
61.57
61.94
62.67
64.43
67.83
73.08
79.79
86.82
92.54
95.33
94.17
89.04
80.87
71.22
61.60
53.09
46.16
40.78
36.60
33.11
29.72
25.88
21.19
15.62
9.55
3.66
-1.36
-5.03
-7.19
-7.82
-6.73
-3.38
3.07
13.42
27.78
45.11
62.94
77.75
85.72
83.90
71.30
49.30
21.48
-7.35
-32.40
-50.02
-58.13
-56.27
-45.28
-27.08
-4.43
19.32
40.78
57.33
67.93
73.46
76.32
79.41
84.87
93.43
104.25
115.69
126.18
134.91
142.29
150.00
160.89
178.23
204.35
239.05
278.42
315.32
341.47
350.49
340.48
314.63
279.61
242.72
209.19
181.22
158.61
140.30
125.49
113.76
104.32
95.36
84.19
68.17
45.95
18.04
-13.53
-46.14
-77.99
-108.89
-140.17
-173.85
-211.50
-253.31
-298.08
-343.55
-387.61
-429.07
-468.08
-506.12
-545.67
-589.59
-640.24
-698.11
-760.41
-820.62
-869.49
-897.77
-899.41
-873.99
-826.81
-766.71
-702.56
-640.36
-582.39
-528.27
-476.64
-426.67
-378.43
-332.43
-288.66
-246.27
-203.97
-161.02
-117.91
-75.84
-36.07
1.13
36.72
72.19
108.61
145.19
178.63
203.53
215.02
210.84
192.62
165.37
136.03
112.16
99.63
101.22
115.08
137.81
165.63
195.82
226.72
257.92
291.78
331.25
377.93
427.73
475.72
516.68
547.14
564.91
569.14
563.07
551.42
538.03
519.90
494.19
457.99
409.75
348.14
272.90
190.43
112.42
52.95
19.02
16.33
46.28
106.92
191.83
270.93
314.49
304.51
277.62
252.10
236.41
219.37
198.77
176.26
153.33
133.12
117.72
106.78
92.89
71.25
40.36
-5.84
-63.49
-122.68
-170.56
-196.52
-203.55
-202.78
-202.68
-206.88
-212.81
-215.07
-210.57
-198.99
-182.80
-165.11
-148.42
-130.08
-104.96
-69.43
-26.00
14.84
39.42
38.14
10.19
-37.39
-93.05
-146.84
-193.12
-230.35
-258.62
-277.80
-285.58
-279.48
-260.37
-234.10
-209.78
-194.08
-187.17
-181.58
-167.45
-136.19
-85.51
-21.98
40.78
87.82
110.00
105.80
80.27
38.25
-15.27
-74.85
-134.04
-185.29
-221.31
-236.63
-231.77
-196.03
-133.16
-59.01
7.75
56.61
87.91
103.08
110.30
114.40
118.24
120.55
119.93
117.91
114.08
106.70
93.92
76.34
56.16
38.28
25.70
20.94
25.48
38.77
58.17
79.09
96.84
106.32
105.75
93.57
70.64
40.40
7.78
-21.54
-42.24
-49.97
-44.86
-27.93
-6.05
12.96
24.31
28.71
31.97
40.90
58.80
80.27
99.49
107.06
97.66
72.42
37.60
0.85
-33.59
-66.63
-105.75
-151.57
-203.64
-256.22
-300.43
-328.00
-334.16
-320.05
-273.98
-228.68
-186.47
-148.86
-113.80
-78.54
-41.99
-5.08
28.21
52.57
61.06
57.47
46.82
36.45
32.10
35.55
45.07
54.83
57.17
43.34
14.38
-23.12
-56.77
-73.58
-72.84
-53.99
-16.57
41.98
117.27
203.98
291.96
368.94
421.55
440.06
423.11
376.45
310.67
236.78
166.26
105.53
55.03
8.32
-42.15
-98.84
-158.50
-213.56
-255.60
-276.90
-274.61
-241.07
-180.88
-110.35
-47.78
-3.91
20.04
27.43
22.47
8.55
-10.76
-32.59
-52.84
-66.74
-71.20
-66.51
-56.98
-44.60
-30.63
-15.35
-0.03
14.26
27.27
39.52
51.34
62.54
73.09
82.79
91.38
97.36
98.96
93.37
78.99
55.40
24.09
-11.12
-45.28
-73.72
-94.01
-105.98
-110.95
-110.32
-105.24
-96.53
-85.00
-72.22
-60.32
-51.47
-46.83
-46.05
-47.40
-48.85
-48.76
-46.40
-42.21
-37.47
-33.82
-32.77
-35.05
-40.28
-47.11
-53.68
-58.31
-60.18
-59.56
-57.52
-55.38
-54.16
-54.21
-55.27
-56.79
-58.21
-59.10
-59.21
-58.31
-56.11
-52.36
-46.82
-39.59
-31.03
-21.79
-12.45
-3.29
5.73
14.86
24.18
33.40
41.84
48.67
53.28
55.59
55.99
55.08
53.35
51.07
48.28
45.07
41.65
38.31
35.24
32.30
29.08
25.01
19.79
13.50
6.65
0.05
-5.55
-9.72
-12.44
-14.04
-15.06
-16.02
-17.31
-19.07
-21.27
-23.62
-25.70
-26.97
-26.86
-24.96
-21.10
-15.48
-8.55
-0.88
7.09
15.10
23.12
31.11
38.90
46.07
51.99
56.04
57.76
57.05
54.13
49.52
43.83
37.64
31.43
25.60
20.39
15.98
12.47
9.84
7.97
6.73
5.92
5.41
5.08
4.82
4.51
3.95
2.97
1.49
-0.41
-2.58
-4.75
-6.74
-8.38
-9.55
-10.09
-9.70
-8.04
-4.82
0.09
6.50
13.91
21.66
29.09
35.76
41.51
46.43
50.78
54.73
58.27
61.23
63.32
64.38
64.48
63.89
62.98
62.03
61.12
60.15
58.90
57.18
54.93
52.17
48.98
45.43
41.53
37.32
32.84
28.25
23.71
19.44
15.53
11.97
8.61
5.23
1.57
-2.48
-6.89
-11.42
-15.69
-19.22
-21.62
-22.59
-21.99
-19.82
-16.20
-11.32
-5.50
0.85
7.26
13.23
18.36
22.39
25.31
27.31
28.71
29.81
30.82
31.80
32.68
33.37
33.82
34.08
34.24
34.39
34.46
34.28
33.58
32.15
29.96
27.16
24.08
21.06
18.32
15.90
13.70
11.52
9.21
6.67
3.82
0.64
-2.87
-6.58
-10.29
-13.66
-16.31
-17.87
-18.09
-16.84
-14.17
-10.31
-5.63
-0.59
4.34
8.76
12.42
15.25
17.31
18.72
19.58
19.98
20.03
19.87
19.71
19.66
19.76
19.85
19.72
19.17
18.14
16.76
15.32
14.05
13.04
12.17
11.21
9.91
8.20
6.17
3.99
1.83
-0.22
-2.22
-4.21
-6.26
-8.37
-10.54
-12.82
-15.29
-17.95
-20.62
-22.89
-24.22
-24.15
-22.45
-19.30
-15.14
-10.53
-5.97
-1.76
1.95
5.08
7.61
9.50
10.77
11.51
11.88
12.00
11.94
11.64
11.02
10.05
8.80
7.47
6.28
5.36
4.73
4.20
3.55
2.58
1.23
-0.38
-2.03
-3.52
-4.72
-5.67
-6.46
-7.23
-8.05
-8.99
-10.14
-11.63
-13.59
-16.04
-18.79
-21.38
-23.28
-24.05
-23.55
-22.01
-19.82
-17.33
-14.68
-11.78
-8.51
-4.84
-1.00
2.59
5.53
7.59
8.78
9.27
9.32
9.10
8.76
8.38
8.06
7.87
7.86
7.94
7.95
7.69
7.05
6.06
4.85
3.59
2.39
1.20
-0.06
-1.49
-3.09
-4.76
-6.36
-7.84
-9.25
-10.73
-12.43
-14.40
-16.56
-18.75
-20.74
-22.35
-23.38
-23.68
-23.13
-21.66
-19.29
-16.14
-12.42
-8.40
-4.33
-0.49
2.90
5.63
7.59
8.81
9.41
9.62
9.61
9.52
9.42
9.34
9.32
9.36
9.45
9.48
9.30
8.76
7.83
6.57
5.11
3.60
2.09
0.57
-1.01
-2.65
-4.32
-5.93
-7.40
-8.67
-9.80
-10.89
-12.11
-13.59
-15.32
-17.11
-18.67
-19.65
-19.81
-19.06
-17.52
-15.42
-12.99
-10.37
-7.64
-4.81
-1.93
0.91
3.59
5.97
7.92
9.34
10.19
10.55
10.51
10.26
9.92
9.56
9.20
8.80
8.34
7.84
7.32
6.77
6.18
5.50
4.67
3.66
2.46
1.11
-0.31
-1.76
-3.18
-4.58
-6.02
-7.60
-9.40
-11.42
-13.54
-15.53
-17.16
-18.28
-18.86
-18.99
-18.76
-18.17
-17.12
-15.44
-13.03
-9.97
-6.50
-2.96
0.34
3.19
5.54
7.44
8.93
10.04
10.74
11.02
10.96
10.65
10.22
9.78
9.34
8.89
8.35
7.70
6.93
6.06
5.13
4.23
3.40
2.69
2.10
1.56
0.90
-0.02
-1.28
-2.86
-4.62
-6.42
-8.14
-9.77
-11.39
-13.08
-14.81
-16.51
-17.95
-18.91
-19.23
-18.80
-17.64
-15.80
-13.40
-10.54
-7.34
-3.95
-0.56
2.61
5.40
7.72
9.54
10.86
11.70
12.14
12.27
12.20
11.98
11.69
11.43
11.20
10.90
10.42
9.64
8.61
7.47
6.37
5.61
5.40
5.75
6.33
6.63
6.16
4.65
2.13
-1.10
-4.04
-5.63
-5.28
-3.44
-1.38
-0.47
-1.49
-4.31
-8.06
-10.42
-9.00
-2.72
7.38
18.60
28.18
34.53
37.55
38.21
39.55
44.72
54.94
68.36
80.95
88.58
88.76
81.11
67.42
53.66
48.28
59.38
91.87
146.30
219.40
304.70
393.84
462.86
488.90
460.99
387.74
291.52
194.97
112.33
48.55
2.84
-26.95
-44.36
-50.16
-44.97
-31.93
-16.41
-3.92
0.96
-4.60
-19.15
-38.39
-56.53
-68.88
-74.47
-75.50
-75.71
-80.21
-92.43
-112.51
-136.18
-156.41
-166.39
-163.74
-149.44
-125.90
-98.38
-70.59
-43.80
-17.83
6.39
26.42
36.37
32.77
17.24
-9.60
-45.85
-88.95
-136.34
-186.84
-238.43
-292.22
-347.10
-399.55
-452.48
-509.67
-572.18
-636.16
-695.96
-744.22
-780.20
-804.44
-776.40
-674.06
-504.52
-302.33
-106.87
35.80
131.65
191.54
224.04
234.74
224.76
191.13
134.29
61.06
-12.68
-71.11
-109.43
-130.03
-138.52
-144.30
-152.73
-170.90
-187.63
-191.30
-174.55
-140.64
-97.13
-51.36
-8.87
24.07
45.83
60.68
73.09
87.10
102.96
120.46
139.98
160.46
179.65
196.11
210.52
223.29
235.44
247.44
260.52
276.58
297.24
323.22
354.51
389.86
424.29
450.47
460.97
452.18
426.59
392.10
358.35
332.78
317.94
310.66
305.15
296.89
284.91
271.44
259.54
250.45
242.76
233.59
220.57
203.66
185.33
169.32
158.36
152.46
148.43
141.40
127.30
105.14
77.87
50.90
29.58
16.50
10.50
7.16
1.34
-10.13
-26.82
-45.39
-62.08
-74.51
-82.79
-88.68
-95.10
-104.39
-117.83
-135.61
-158.17
-187.87
-227.01
-275.77
-329.47
-379.83
-416.70
-431.91
-421.69
-387.62
-336.25
-274.42
-207.20
-136.47
-64.91
2.63
58.94
97.79
123.26
140.94
159.19
177.11
195.99
213.64
228.79
237.17
235.60
223.48
199.98
166.22
124.64
79.57
34.44
-8.34
-47.21
-80.74
-107.28
-128.99
-146.99
-160.66
-167.47
-166.39
-158.67
-146.97
-135.09
-125.79
-125.87
-138.94
-164.11
-196.70
-232.49
-269.66
-307.64
-348.45
-393.90
-451.85
-526.35
-614.43
-705.89
-787.75
-848.86
-881.43
-885.72
-827.00
-698.08
-521.93
-339.64
-184.45
-68.35
3.77
48.81
78.01
98.11
107.41
106.34
100.24
96.14
99.50
111.54
131.33
154.55
178.50
197.66
209.75
216.52
222.20
231.06
244.49
262.64
283.03
305.01
326.25
345.76
364.12
382.74
403.64
426.51
449.99
470.56
487.69
501.83
515.31
531.82
554.75
586.64
624.27
659.34
679.57
678.25
655.08
615.67
568.96
523.37
486.03
457.24
431.65
399.27
355.40
299.79
234.29
160.86
64.92
-52.73
-178.16
-286.72
-378.70
-459.29
-529.08
-585.84
-627.38
-653.36
-662.47
-656.13
-624.68
-566.82
-485.97
-391.83
-296.69
-209.91
-136.75
-76.53
-27.60
11.31
38.50
55.43
65.16
71.49
77.35
83.09
88.83
93.04
93.20
84.68
65.56
35.93
-3.38
-44.51
-81.23
-108.71
-125.32
-132.27
-133.29
-131.04
-126.77
-120.70
-112.37
-102.50
-91.81
-81.19
-71.45
-63.62
-57.99
-54.17
-51.29
-48.32
-45.32
-42.63
-40.64
-39.59
-39.65
-40.78
-42.69
-44.94
-46.82
-48.55
-50.49
-52.93
-56.06
-59.90
-64.37
-69.25
-74.35
-79.11
-83.68
-88.25
-92.75
-97.02
-100.75
-103.49
-104.60
-105.17
-103.38
-98.39
-90.05
-78.41
-63.77
-46.56
-27.23
-6.07
16.69
41.01
66.69
91.88
114.90
134.41
149.46
159.79
165.93
168.97
170.34
170.82
170.43
168.68
164.85
158.18
148.52
136.45
123.07
109.40
95.86
82.36
67.45
49.84
28.59
3.21
-26.38
-59.45
-93.79
-125.51
-149.28
-159.80
-154.02
-133.23
-103.07
-71.71
-46.72
-32.37
-28.83
-33.18
-41.30
-50.30
-59.16
-67.90
-76.33
-83.32
-87.04
-85.93
-79.55
-68.33
-53.92
-38.72
-24.78
-13.62
-6.06
-2.13
-1.30
-2.48
-3.65
-3.06
0.79
9.03
22.36
41.05
65.19
94.63
124.53
152.67
177.14
196.34
209.56
217.28
221.07
222.28
220.28
211.86
192.99
160.59
115.18
61.95
8.56
-38.18
-75.10
-102.94
-123.84
-137.69
-143.19
-138.44
-123.46
-102.45
-83.13
-73.35
-77.40
-93.83
-116.44
-137.28
-150.48
-153.06
-145.33
-129.65
-108.00
-81.48
-50.03
-16.92
15.39
44.07
67.10
83.00
90.54
90.29
83.57
72.85
59.71
49.07
39.41
29.49
18.22
3.89
-13.11
-31.70
-49.44
-64.57
-75.66
-81.37
-79.99
-71.03
-56.34
-36.15
-18.22
-5.00
2.47
3.94
0.85
-4.61
-5.02
-3.63
-2.65
-3.65
-5.98
-8.87
-11.22
-8.79
3.68
30.20
63.35
100.14
138.83
179.67
222.90
250.94
253.76
231.31
191.89
144.92
98.67
56.60
19.54
-13.52
-36.26
-47.89
-47.82
-37.84
-22.70
-5.67
11.63
30.30
53.52
75.96
100.70
130.89
165.84
201.19
232.87
258.26
276.66
288.34
274.57
230.76
165.92
95.81
32.69
-18.05
-56.00
-82.48
-99.01
-107.37
-105.51
-92.74
-71.64
-47.01
-22.79
-1.00
18.43
36.83
56.03
80.89
115.16
158.67
207.11
253.60
290.86
313.63
320.31
313.48
297.35
279.43
265.47
256.86
251.60
246.18
237.63
224.63
207.45
188.02
168.34
149.05
129.69
110.30
92.23
77.70
68.81
66.34
69.47
76.13
83.01
85.54
80.40
66.54
45.15
18.56
-10.91
-41.47
-71.61
-100.31
-129.83
-161.38
-193.73
-223.42
-246.65
-261.21
-266.95
-265.15
-258.02
-254.66
-261.97
-281.63
-309.96
-341.39
-371.86
-399.89
-425.93
-451.39
-488.35
-545.07
-621.30
-707.78
-791.91
-863.43
-916.67
-950.14
-965.63
-980.90
-1010.69
-1060.10
-1123.27
-1189.93
-1252.12
-1306.61
-1353.82
-1309.69
-1132.69
-837.59
-489.68
-160.12
109.17
308.42
447.13
542.72
613.96
663.29
692.01
703.91
706.03
704.13
700.17
694.27
687.59
682.97
672.73
650.53
614.55
570.84
528.38
494.88
474.83
469.54
477.98
491.02
501.18
505.39
505.29
502.99
497.86
486.50
465.26
432.83
387.96
332.84
272.28
212.28
157.00
109.04
69.09
36.08
7.64
-21.23
-55.80
-99.60
-151.55
-205.08
-249.10
-271.43
-262.84
-220.15
-147.37
-54.34
45.99
140.60
218.56
272.46
298.93
298.83
276.87
240.28
196.82
152.91
112.54
77.36
47.57
22.70
1.63
-17.34
-36.60
-58.65
-84.99
-115.41
-148.09
-180.45
-210.42
-237.54
-263.06
-289.54
-320.10
-357.65
-404.02
-458.91
-518.80
-576.81
-623.74
-650.66
-651.95
-627.54
-582.88
-526.70
-467.59
-411.15
-359.28
-311.33
-266.25
-224.09
-186.14
-153.70
-126.78
-103.61
-81.27
-57.13
-30.05
-0.78
28.34
54.73
76.75
94.49
109.78
125.40
143.88
166.52
192.87
221.07
248.79
274.20
296.67
316.89
336.48
357.43
381.91
411.94
448.79
491.89
537.71
579.54
608.63
617.08
600.78
561.41
505.85
443.56
383.03
329.16
282.75
241.87
204.08
168.11
134.15
102.97
74.87
49.11
24.06
-1.99
-30.24
-61.30
-95.73
-134.55
-179.05
-229.63
-284.32
-337.99
-383.32
-413.21
-423.81
-416.39
-397.00
-374.00
-354.87
-343.80
-341.19
-344.76
-351.36
-358.29
-363.73
-366.41
-365.15
-358.93
-347.18
-330.12
-308.90
-285.23
-261.03
-237.92
-217.02
-198.87
-183.47
-170.37
-158.75
-147.62
-135.95
-123.07
-108.86
-93.90
-79.13
-65.53
-53.36
-41.81
-29.14
-12.94
9.05
38.45
75.71
119.96
168.98
219.57
267.87
309.98
343.20
366.78
382.36
393.03
401.52
408.00
409.34
400.06
375.57
335.85
287.26
241.74
212.50
208.58
230.89
271.58
317.02
353.10
370.11
364.66
338.83
297.66
246.46
189.78
131.65
76.32
28.12
-9.74
-36.33
-53.20
-63.22
-68.84
-70.62
-67.41
-57.65
-40.94
-18.82
5.12
26.66
42.30
50.35
51.29
47.03
39.66
30.14
17.93
1.91
-17.99
-39.66
-59.17
-72.52
-78.09
-77.92
-76.97
-80.52
-91.32
-107.98
-125.63
-138.14
-140.88
-132.07
-113.01
-87.50
-60.60
-37.45
-22.20
-17.05
-21.35
-31.89
-43.92
-52.64
-54.63
-48.55
-35.19
-16.70
4.57
26.42
47.08
65.19
79.52
89.14
94.00
95.12
94.15
92.72
91.65
90.74
89.18
86.21
81.70
76.23
70.47
64.73
59.13
53.57
48.04
42.62
37.21
31.42
25.15
19.21
15.57
16.78
24.29
37.32
52.43
64.53
69.14
64.14
50.45
31.37
11.23
-6.38
-19.31
-27.00
-30.42
-31.58
-33.01
-36.98
-44.72
-55.99
-69.22
-82.13
-92.53
-98.80
-99.76
-94.55
-82.59
-64.02
-40.25
-14.31
9.66
27.67
37.28
38.80
35.02
30.05
27.46
28.84
33.17
37.63
39.09
35.62
27.49
16.90
6.96
0.39
-1.51
0.56
4.41
7.48
7.83
4.88
-0.62
-7.20
-13.11
-17.20
-19.20
-19.57
-19.12
-18.52
-18.14
-18.19
-18.89
-20.10
-21.87
-24.50
-28.48
-34.23
-41.73
-50.31
-58.86
-66.14
-69.98
-68.97
-62.98
-53.29
-42.08
-31.62
-23.52
-18.56
-16.98
-16.14
-13.36
-7.13
2.02
11.61
18.40
19.79
14.61
3.59
-6.39
-7.35
6.66
36.68
78.20
123.58
165.22
197.92
219.95
238.14
261.09
295.37
342.71
400.65
465.77
536.27
612.51
661.82
658.58
591.14
470.39
323.06
175.75
44.76
-64.31
-151.97
-221.46
-271.40
-300.68
-310.35
-305.11
-292.23
-278.54
-268.50
-263.52
-263.24
-262.58
-256.85
-243.72
-224.47
-203.03
-183.40
-168.17
-157.50
-150.36
-142.98
-132.13
-116.45
-97.22
-77.47
-58.48
-43.08
-31.71
-23.69
-16.85
-9.44
-0.86
8.04
15.94
21.90
25.77
28.74
32.20
37.84
46.97
60.33
77.37
96.29
113.79
125.49
127.81
119.11
100.86
77.45
54.86
38.18
30.43
31.85
40.44
53.49
68.33
82.59
93.82
101.46
103.83
99.57
88.46
71.82
52.50
34.17
20.20
12.48
10.81
12.70
14.76
14.12
9.73
2.76
-4.21
-8.52
-8.90
-6.09
-2.64
-1.24
-3.48
-9.03
-16.02
-22.07
-25.46
-25.73
-23.55
-20.28
-17.11
-14.90
-14.22
-15.56
-19.14
-24.62
-30.98
-36.72
-40.74
-42.84
-43.90
-45.30
-48.02
-51.85
-55.48
-57.12
-55.48
-50.46
-43.05
-34.86
-27.37
-21.45
-17.20
-14.14
-11.51
-8.71
-5.52
-2.26
0.32
1.32
0.18
-2.99
-7.26
-11.02
-12.45
-10.22
-3.92
5.61
16.27
25.22
29.48
26.69
16.10
-0.59
-18.84
-31.83
-32.52
-16.45
15.94
58.64
101.89
135.87
154.40
156.92
147.76
133.03
117.25
101.46
83.91
62.34
36.53
9.06
-15.91
-34.95
-47.14
-54.24
-59.20
-64.42
-70.54
-76.81
-82.55
-88.59
-97.40
-111.71
-132.70
-158.83
-186.63
-212.66
-235.26
-254.62
-270.92
-282.27
-283.93
-270.40
-238.99
-192.90
-141.41
-96.43
-67.23
-56.61
-60.47
-71.34
-83.46
-96.16
-113.59
-141.18
-181.11
-229.86
-279.15
-319.41
-343.81
-350.39
-341.16
-319.24
-286.13
-240.93
-182.24
-111.27
-33.86
40.18
100.50
140.52
160.14
164.95
162.61
158.33
152.46
141.67
122.34
94.29
62.32
34.51
18.71
19.20
35.31
62.25
93.15
121.15
140.79
148.45
142.15
121.23
86.36
39.56
-15.60
-73.77
-128.31
-172.49
-201.61
-215.24
-218.38
-220.03
-229.69
-252.76
-287.59
-325.72
-355.16
-365.23
-350.28
-310.84
-252.23
-181.95
-107.51
-35.42
28.93
81.20
118.52
140.24
148.21
146.13
138.12
127.49
116.23
105.48
96.55
91.27
91.43
97.52
107.69
117.96
123.80
122.22
113.13
99.26
84.38
71.29
60.49
50.49
39.37
26.41
12.81
0.99
-6.99
-10.65
-11.45
-11.77
-13.61
-17.60
-23.03
-28.65
-33.65
-38.15
-42.83
-48.18
-53.81
-58.45
-60.55
-59.11
-54.19
-46.91
-38.87
-31.44
-25.29
-20.36
-16.09
-11.91
-7.65
-3.46
0.28
3.40
6.11
8.90
12.24
16.18
20.37
24.20
27.25
29.63
31.85
34.55
38.01
42.03
45.97
49.19
51.33
52.40
52.58
52.00
50.70
48.62
45.79
42.29
38.13
33.25
27.51
20.92
13.79
6.76
0.61
-4.07
-6.97
-8.06
-7.37
-4.85
-0.35
6.19
14.56
24.25
34.45
44.24
52.62
58.62
61.49
60.92
57.34
51.96
46.46
42.42
40.67
40.88
41.79
41.79
39.77
35.63
30.30
25.20
21.46
19.45
18.75
18.56
18.29
17.82
17.37
17.19
17.17
16.88
15.72
13.16
8.90
2.77
-5.32
-15.27
-26.59
-38.27
-48.82
-56.70
-60.85
-61.05
-57.94
-52.48
-45.51
-37.29
-27.52
-15.67
-1.56
14.16
29.98
44.04
54.92
62.32
67.24
71.36
76.15
81.99
87.97
92.50
94.25
92.99
89.80
86.58
85.17
86.46
90.02
94.03
96.06
93.91
86.64
75.22
62.27
51.21
44.99
44.98
50.42
58.46
64.87
64.85
54.04
29.59
-8.97
-59.00
-114.78
-168.61
-213.08
-243.16
-257.58
-258.31
-248.83
-231.79
-207.86
-176.25
-136.62
-91.14
-45.16
-6.04
19.76
29.42
25.16
13.35
1.74
-3.62
-0.43
9.73
22.95
35.10
43.54
47.43
47.26
43.77
37.22
27.19
12.87
-6.28
-29.54
-54.26
-75.80
-88.42
-87.36
-70.85
-41.33
-4.96
30.89
60.49
81.90
96.95
109.24
121.49
133.75
143.50
147.33
143.15
131.32
114.47
96.15
79.48
66.41
57.99
54.72
56.74
63.48
73.06
82.06
86.12
81.23
65.36
39.61
8.18
-22.87
-47.49
-61.52
-63.57
-54.78
-37.75
-15.38
9.68
34.86
57.08
72.67
78.04
71.06
52.38
25.66
-3.24
-28.18
-44.72
-51.20
-48.48
-38.76
-23.95
-4.94
18.03
44.14
70.75
93.27
106.47
106.67
93.57
70.53
43.08
16.53
-6.03
-24.05
-38.43
-49.76
-57.49
-60.34
-57.60
-50.05
-39.99
-30.22
-22.97
-19.15
-18.58
-20.48
-23.87
-27.65
-30.49
-31.11
-28.68
-23.35
-16.15
-8.44
-1.19
5.48
12.03
18.93
25.98
32.46
37.48
40.63
42.12
42.47
42.03
40.66
37.94
33.50
27.50
20.53
13.29
6.15
-0.89
-8.06
-15.32
-22.28
-28.43
-33.48
-37.74
-41.99
-46.96
-52.84
-58.80
-63.25
-64.31
-60.71
-52.20
-39.70
-24.91
-9.63
4.68
17.12
27.27
35.08
40.67
44.47
47.14
49.53
52.34
55.89
59.87
63.52
65.94
66.46
64.98
61.92
58.08
54.38
51.47
49.59
48.39
47.23
45.39
42.59
38.99
35.16
31.67
28.76
26.29
23.95
21.65
19.69
18.52
18.16
17.78
15.87
10.89
2.21
-9.31
-21.68
-32.62
-40.59
-45.37
-47.64
-48.26
-47.48
-44.83
-39.64
-31.80
-22.18
-12.42
-4.11
1.79
5.28
7.03
7.86
8.36
8.87
9.59
10.76
12.29
13.12
10.70
1.26
-19.19
-53.04
-99.43
-153.59
-207.56
-252.43
-280.99
-289.84
-279.74
-254.41
-218.30
-174.89
-126.14
-73.17
-17.36
39.18
94.14
145.97
194.38
239.55
280.45
313.65
333.68
335.25
315.98
278.36
229.31
178.04
133.14
100.34
81.85
77.05
83.26
96.54
112.03
124.47
129.24
123.78
108.65
87.81
67.46
54.08
52.54
64.74
89.36
122.44
158.48
191.71
217.16
231.17
231.63
218.19
192.50
158.40
121.55
88.12
62.82
47.19
39.04
33.60
25.94
13.15
-4.86
-26.38
-50.04
-76.72
-109.37
-150.97
-201.37
-255.42
-303.66
-335.35
-342.70
-323.99
-284.28
-233.46
-182.71
-140.94
-112.50
-96.94
-90.13
-86.32
-80.10
-68.17
-50.04
-28.01
-6.10
11.53
22.07
24.97
21.93
16.12
11.02
9.35
12.17
18.47
25.36
28.93
25.76
14.56
-2.84
-22.02
-38.02
-47.91
-52.50
-55.92
-63.26
-77.42
-97.29
-118.01
-133.32
-138.47
-132.15
-116.81
-97.08
-77.82
-62.48
-52.50
-47.29
-44.82
-42.63
-38.98
-34.02
-30.34
-32.18
-43.45
-65.17
-93.91
-122.30
-141.94
-146.90
-136.52
-115.54
-91.61
-71.81
-59.62
-54.44
-52.23
-47.82
-37.13
-18.68
6.19
34.19
61.17
83.20
96.93
100.63
94.37
80.09
61.19
42.06
27.12
19.49
19.75
24.60
28.75
27.27
17.66
0.93
-18.95
-36.59
-47.56
-50.39
-49.20
-49.29
-54.05
-63.53
-75.86
-89.30
-103.90
-122.08
-148.01
-189.68
-249.82
-322.35
-394.19
-452.20
-488.93
-504.77
-505.97
-500.67
-501.31
-512.00
-525.51
-527.83
-507.84
-463.21
-401.60
-337.16
-286.33
-271.14
-302.08
-371.77
-458.38
-537.33
-590.24
-609.42
-596.09
-497.53
-298.38
-31.94
238.35
464.18
631.21
747.36
824.65
875.05
901.64
896.32
857.94
797.92
736.93
686.36
653.04
634.59
622.21
604.92
568.68
510.01
439.36
376.14
337.19
329.48
347.01
374.88
395.26
389.87
350.44
281.43
196.98
113.08
41.94
-11.69
-49.40
-76.83
-102.10
-130.23
-161.18
-190.83
-214.20
-227.41
-229.24
-220.77
-204.83
-185.83
-168.41
-156.50
-152.53
-156.75
-166.33
-175.95
-179.23
-171.52
-151.69
-122.95
-91.34
-63.12
-42.28
-29.76
-24.29
-23.98
-27.41
-33.60
-41.11
-47.29
-48.41
-41.07
-24.11
0.28
26.78
48.79
60.73
59.98
47.48
27.25
4.90
-14.03
-25.52
-27.94
-22.42
-12.05
-0.49
9.57
17.46
24.20
31.23
38.86
45.55
48.67
46.40
39.25
30.07
22.34
17.94
15.58
11.45
1.48
-16.22
-39.71
-63.82
-82.24
-89.89
-84.61
-67.57
-42.64
-15.07
9.81
27.82
36.86
37.25
31.81
24.90
21.19
23.93
33.80
48.57
64.00
75.51
80.28
78.93
75.59
76.42
86.68
107.40
133.72
155.88
162.85
147.23
109.12
56.87
4.48
-33.74
-48.75
-40.30
-17.00
7.04
17.34
4.58
-32.27
-85.73
-142.40
-187.76
-210.91
-207.93
-182.20
-142.47
-99.23
-61.05
-32.15
-12.01
3.87
22.26
50.31
93.63
154.26
228.68
307.17
375.51
419.40
430.01
408.39
366.25
322.50
296.69
301.96
340.57
403.82
475.49
537.37
574.82
580.08
552.94
499.12
427.35
346.41
263.08
181.40
103.24
29.08
-41.08
-107.74
-171.94
-235.21
-298.92
-363.39
-427.64
-489.91
-548.95
-604.86
-658.92
-711.88
-762.36
-806.17
-837.37
-850.99
-845.50
-823.99
-792.79
-758.33
-724.46
-691.29
-656.37
-616.81
-571.25
-520.39
-466.30
-410.77
-354.07
-294.92
-231.65
-163.42
-91.05
-17.16
54.60
120.55
178.46
228.42
272.79
314.56
356.35
399.90
445.97
494.71
544.32
591.09
629.90
655.55
663.94
655.50
637.07
620.69
619.85
641.17
681.93
730.78
771.63
787.97
769.40
715.02
632.36
534.30
430.16
325.38
222.70
123.71
28.13
-63.70
-150.02
-228.12
-294.22
-349.54
-396.55
-436.11
-451.43
-426.60
-357.39
-256.37
-157.20
-69.13
4.37
61.17
103.15
130.93
143.82
141.30
123.86
93.40
54.38
7.89
-45.28
-102.61
-160.09
-214.64
-264.28
-307.90
-344.86
-373.83
-397.58
-420.82
-447.94
-481.12
-520.36
-562.44
-600.86
-627.31
-634.06
-619.71
-588.66
-548.10
-503.97
-460.03
-417.56
-376.14
-334.51
-291.34
-246.96
-202.37
-157.12
-107.98
-51.68
12.83
83.88
158.43
233.55
307.11
371.79
416.52
434.73
428.98
408.62
382.69
355.93
329.11
301.02
278.38
259.76
245.90
238.22
236.95
240.77
248.02
258.00
272.21
283.59
290.77
296.35
303.79
315.95
334.05
357.55
383.83
408.10
424.11
426.89
414.83
389.22
353.35
310.89
264.58
215.79
164.74
111.28
56.72
3.53
-46.31
-92.35
-135.87
-178.20
-218.71
-254.01
-279.00
-288.86
-281.82
-260.49
-229.93
-195.85
-162.21
-130.71
-102.11
-77.80
-60.02
-51.06
-51.91
-59.95
-71.61
-83.95
-96.73
-112.64
-135.78
-169.10
-213.39
-267.82
-328.38
-391.31
-451.89
-504.00
-540.27
-553.54
-539.33
-497.94
-435.76
-360.56
-282.20
-208.62
-144.64
-92.08
-50.85
-20.20
6.91
22.53
29.94
31.05
27.85
22.17
16.21
12.73
15.07
27.09
51.57
92.68
151.05
223.95
304.13
380.13
438.33
466.51
458.05
413.84
344.58
264.91
189.54
128.78
86.56
61.24
48.36
43.40
42.77
45.23
49.33
53.41
55.62
54.56
49.87
42.53
34.51
27.52
23.10
21.23
20.70
19.65
16.49
10.64
2.92
-4.85
-10.84
-13.96
-14.81
-15.25
-17.46
-22.78
-30.83
-39.67
-46.65
-49.64
-48.01
-42.93
-36.85
-32.48
-31.65
-34.23
-37.99
-39.21
-34.15
-20.63
0.88
27.11
52.97
73.26
84.32
85.07
76.85
62.61
45.69
28.97
14.43
3.27
-3.84
-6.62
-5.40
-1.31
3.83
7.79
8.75
5.73
-1.13
-10.88
-22.20
-33.59
-43.39
-49.53
-49.80
-42.57
-28.01
-8.72
10.32
23.18
25.15
14.67
-5.72
-30.06
-50.90
-61.95
-60.17
-46.73
-26.23
-4.53
13.70
26.82
36.18
44.64
54.34
65.07
74.44
79.39
78.44
72.76
65.74
61.05
60.61
63.72
67.56
68.86
65.33
56.38
42.60
25.00
4.34
-18.91
-44.08
-69.83
-94.02
-114.10
-127.74
-133.62
-131.88
-124.16
-113.16
-101.68
-91.59
-83.07
-74.54
-63.47
-47.74
-26.81
-2.20
23.04
45.49
62.42
72.49
75.66
72.81
65.41
55.21
44.22
34.47
27.66
24.63
25.23
28.38
32.54
36.26
38.45
38.42
35.93
31.11
24.59
17.44
10.91
6.02
3.11
1.72
0.85
-0.55
-3.13
-6.84
-11.13
-15.17
-18.09
-18.97
-16.97
-11.39
-2.03
10.44
24.51
38.17
49.80
59.08
67.47
77.51
91.59
110.18
130.79
148.14
155.68
147.64
120.66
74.77
13.34
-57.37
-128.90
-191.69
-236.64
-257.04
-250.67
-220.93
-176.32
-128.00
-86.15
-56.80
-40.50
-33.25
-29.28
-24.05
-15.99
-6.51
1.52
5.86
6.13
3.73
0.81
-1.40
-3.22
-6.09
-11.32
-18.85
-26.91
-32.79
-34.34
-31.02
-24.38
-17.36
-13.03
-13.25
-18.09
-25.66
-32.91
-36.47
-33.58
-23.00
-5.38
16.78
39.81
59.98
74.57
82.31
83.31
78.60
69.65
58.26
46.54
36.65
30.19
27.46
27.01
26.14
21.99
12.98
-0.42
-15.73
-29.64
-39.21
-42.96
-41.17
-35.52
-28.19
-21.15
-15.38
-10.72
-6.12
-0.15
8.39
19.89
33.50
46.88
56.28
57.32
46.35
22.24
-12.20
-50.24
-82.98
-102.34
-104.20
-89.85
-65.23
-38.30
-15.78
-1.10
5.91
7.58
6.65
4.88
2.93
0.94
-0.92
-2.15
-2.29
-1.36
-0.11
0.25
-1.39
-5.60
-12.05
-19.75
-27.33
-33.50
-37.35
-38.47
-36.88
-32.90
-27.01
-19.70
-11.63
-3.50
3.84
9.69
13.85
16.80
19.55
23.23
28.46
34.82
40.94
44.98
45.60
42.58
37.02
31.02
26.92
26.40
29.86
36.16
42.60
45.19
39.35
21.07
-11.25
-55.13
-103.44
-145.66
-171.12
-172.95
-150.91
-111.56
-65.65
-23.95
6.45
23.62
29.74
28.67
23.56
16.12
7.19
-1.85
-8.43
-9.32
-2.02
13.70
35.29
57.98
76.62
87.47
89.49
84.47
76.01
67.93
62.88
61.66
63.30
65.81
66.97
65.04
59.12
49.20
36.24
21.93
8.64
-1.02
-4.76
-1.40
8.48
22.46
36.65
46.90
49.99
44.58
31.44
12.95
-7.81
-28.06
-45.75
-59.74
-69.35
-74.16
-74.02
-69.32
-61.34
-52.33
-44.86
-40.77
-40.21
-41.32
-40.93
-36.02
-25.16
-9.33
8.49
24.48
35.45
39.80
37.83
31.18
22.05
12.42
3.62
-3.64
-9.01
-12.12
-12.33
-8.74
-0.59
12.29
29.12
48.28
67.77
85.74
100.96
112.62
119.90
121.50
115.58
100.45
75.57
42.48
4.85
-32.40
-64.72
-89.39
-106.10
-116.37
-122.15
-124.53
-123.28
-117.49
-106.66
-91.56
-74.29
-57.47
-43.28
-32.72
-25.60
-20.97
-17.82
-15.38
-13.15
-10.74
-7.74
-3.91
0.70
5.61
10.02
13.20
14.75
14.87
14.24
13.54
13.03
12.39
10.95
8.15
4.18
0.02
-2.87
-3.27
-0.88
3.44
8.13
11.59
12.89
12.08
9.99
7.67
5.90
5.11
5.39
6.73
9.13
12.54
16.77
21.49
26.29
30.92
35.28
39.46
43.43
46.88
49.23
49.99
49.02
46.72
43.96
41.71
40.66
40.97
42.37
44.25
45.94
46.60
45.27
40.88
32.50
19.83
3.57
-14.44
-31.74
-46.02
-55.90
-61.37
-63.47
-63.63
-62.98
-61.87
-60.07
-57.16
-53.04
-48.20
-43.47
-39.64
-37.07
-35.46
-34.07
-32.09
-29.03
-24.88
-20.01
-14.94
-10.06
-5.57
-1.47
2.24
5.46
7.99
9.63
10.33
10.21
9.58
8.86
8.51
8.97
10.53
13.27
16.88
20.80
24.26
26.57
27.34
26.67
25.08
23.31
22.07
21.73
22.18
22.79
22.57
20.43
15.52
7.41
-3.65
-16.84
-30.91
-44.31
-55.45
-62.90
-65.58
-63.04
-55.58
-44.17
-30.23
-15.17
-0.10
14.22
27.21
38.39
47.18
53.26
56.80
58.59
59.75
61.31
63.67
66.40
68.54
69.12
67.76
64.91
61.68
59.29
58.55
59.49
61.45
63.32
64.13
63.42
61.59
59.70
59.13
61.09
66.13
73.94
83.16
91.46
95.91
93.74
83.37
65.27
42.16
18.19
-2.50
-17.31
-25.97
-30.23
-32.71
-35.60
-39.85
-45.12
-50.47
-55.17
-59.27
-63.65
-69.61
-78.10
-89.01
-100.90
-111.23
-117.30
-117.35
-111.36
-101.15
-89.50
-78.89
-70.54
-64.07
-58.15
-51.50
-43.69
-35.35
-27.70
-21.82
-17.96
-15.47
-13.26
-10.55
-7.41
-4.86
-4.28
-6.65
-11.83
-18.49
-24.67
-28.64
-29.71
-28.54
-26.75
-26.17
-27.95
-32.13
-37.64
-42.79
-45.97
-46.17
-43.12
-37.27
-29.45
-20.64
-11.74
-3.49
3.59
9.25
13.59
16.87
19.47
21.58
23.13
23.83
23.46
22.04
20.01
18.02
16.67
16.21
16.56
17.38
18.36
19.32
20.17
20.86
21.29
21.30
20.83
19.91
18.64
17.11
15.30
13.17
10.65
7.78
4.64
1.27
-2.30
-6.06
-9.84
-13.35
-16.13
-17.78
-18.02
-16.81
-14.27
-10.67
-6.39
-1.80
2.68
6.78
10.44
13.82
17.15
20.58
24.00
27.09
29.44
30.77
31.17
30.94
30.51
30.14
29.92
29.68
29.15
28.05
26.18
23.51
20.22
16.73
13.56
11.25
10.11
10.13
10.91
11.82
12.21
11.54
9.59
6.47
2.51
-1.73
-5.71
-8.95
-11.22
-12.64
-13.59
-14.50
-15.68
-17.12
-18.48
-19.18
-18.70
-16.74
-13.33
-8.85
-3.88
1.01
5.36
8.98
11.90
14.29
16.33
18.07
19.42
20.21
20.31
19.77
18.87
18.02
17.53
17.54
17.85
18.08
17.84
16.88
15.22
13.11
10.86
8.74
6.81
5.02
3.25
1.46
-0.29
-1.94
-3.51
-5.13
-7.01
-9.34
-12.19
-15.40
-18.69
-21.75
-24.35
-26.40
-27.92
-28.86
-29.14
-28.57
-26.96
-24.23
-20.50
-16.02
-11.16
-6.25
-1.54
2.84
6.84
10.38
13.34
15.57
17.02
17.73
17.88
17.76
17.61
17.65
17.96
18.51
19.16
19.69
19.85
19.53
18.72
17.59
16.35
15.18
14.02
12.64
10.76
8.18
5.00
1.47
-2.05
-5.34
-8.36
-11.24
-14.10
-17.02
-19.97
-22.87
-25.72
-28.58
-31.46
-34.21
-36.44
-37.61
-37.20
-34.94
-30.93
-25.61
-19.58
-13.40
-7.45
-1.90
3.18
7.74
11.62
14.60
16.48
17.23
17.03
16.25
15.31
14.54
14.09
13.87
13.71
13.42
12.94
12.38
11.86
11.51
11.28
11.00
10.45
9.49
8.09
6.39
4.55
2.67
0.81
-1.11
-3.21
-5.59
-8.33
-11.42
-14.77
-18.23
-21.63
-24.85
-27.75
-30.18
-31.98
-32.90
-32.70
-31.15
-28.17
-23.93
-18.78
-13.18
-7.61
-2.41
2.23
6.25
9.68
12.55
14.83
16.53
17.65
18.29
18.57
18.66
18.65
18.49
18.07
17.23
15.89
14.11
12.12
10.24
8.80
7.98
7.74
7.85
7.90
7.49
6.30
4.28
1.58
-1.40
-4.20
-6.47
-8.00
-8.90
-9.47
-10.16
-11.37
-13.39
-16.35
-20.11
-24.35
-28.46
-31.73
-33.46
-33.15
-30.69
-26.36
-20.76
-14.59
-8.47
-2.79
2.32
6.84
10.75
13.96
16.34
17.84
18.55
18.68
18.54
18.44
18.55
18.91
19.42
19.80
19.83
19.34
18.30
16.91
15.45
14.22
13.37
12.81
12.22
11.25
9.65
7.43
4.82
2.13
-0.38
-2.66
-4.75
-6.83
-9.00
-11.32
-13.88
-16.73
-19.91
-23.36
-26.76
-29.61
-31.34
-31.47
-29.81
-26.52
-21.95
-16.58
-10.83
-5.03
0.49
5.42
9.43
12.32
14.01
14.66
14.60
14.16
13.65
13.23
13.00
12.96
13.04
13.12
13.06
12.70
12.01
11.13
10.26
9.58
9.14
8.78
8.22
7.21
5.66
3.62
1.26
-1.32
-4.10
-7.05
-10.12
-13.12
-15.83
-18.10
-19.95
-21.56
-23.19
-24.98
-26.84
-28.47
-29.38
-29.15
-27.52
-24.42
-19.97
-14.40
-8.04
-1.25
5.60
12.15
18.08
23.17
27.31
30.43
32.55
33.69
33.87
33.16
31.67
29.63
27.21
24.63
21.99
19.42
17.00
14.83
12.99
11.44
10.09
8.66
6.92
4.70
2.04
-0.89
-3.81
-6.50
-8.91
-11.16
-13.53
-16.37
-19.91
-24.25
-29.32
-34.88
-40.56
-45.94
-50.53
-53.86
-55.54
-55.36
-53.28
-49.52
-44.47
-38.60
-32.35
-26.03
-19.86
-14.04
-8.80
-4.40
-1.04
1.21
2.43
2.87
2.85
2.59
2.23
1.72
0.90
-0.42
-2.40
-5.03
-8.04
-10.86
-12.87
-13.63
-13.21
-12.28
-11.77
-12.39
-14.11
-16.23
-17.58
-17.15
-14.56
-10.09
-4.43
1.68
7.62
12.85
16.77
18.76
18.48
16.23
13.05
10.38
9.53
11.10
14.82
19.79
24.92
29.45
33.08
35.86
37.86
38.99
38.99
37.60
34.87
31.24
27.52
24.62
23.16
23.22
24.33
25.64
26.31
25.77
23.95
21.12
17.72
14.14
10.64
7.36
4.45
2.02
0.21
-1.06
-2.08
-3.42
-5.66
-9.15
-13.87
-19.37
-24.94
-29.81
-33.45
-35.45
-35.61
-33.81
-30.02
-24.33
-17.06
-8.83
-0.37
7.51
14.23
19.51
23.39
26.13
28.05
29.46
30.58
31.63
32.72
33.88
34.96
35.62
35.52
34.40
32.37
29.92
27.78
26.59
26.58
27.49
28.58
29.02
28.14
25.78
22.29
18.37
14.83
12.23
10.75
9.94
8.92
6.51
1.63
-6.34
-17.28
-30.19
-43.38
-54.84
-62.83
-66.32
-65.31
-60.61
-53.59
-45.58
-37.52
-29.93
-22.99
-16.92
-12.03
-8.66
-6.90
-6.39
-6.41
-6.13
-5.04
-3.12
-0.80
1.38
3.05
4.20
4.99
5.57
5.95
5.97
5.49
4.48
3.06
1.33
-0.68
-3.03
-5.80
-8.90
-12.17
-15.32
-18.18
-20.77
-23.31
-26.12
-29.41
-33.23
-37.30
-41.19
-44.43
-46.62
-47.53
-47.04
-45.12
-41.71
-36.82
-30.51
-23.09
-15.04
-6.91
0.77
7.67
13.62
18.56
22.48
25.42
27.44
28.72
29.53
30.21
31.02
32.12
33.55
35.17
36.83
38.31
39.42
40.03
40.11
39.71
38.94
37.93
36.82
35.70
34.59
33.48
32.29
30.93
29.35
27.57
25.71
23.96
22.49
21.35
20.41
19.39
17.84
15.43
12.03
7.91
3.73
0.34
-1.45
-1.21
1.01
4.69
9.10
13.54
17.54
20.95
23.80
26.26
28.52
30.67
32.59
33.79
33.38
30.25
23.56
13.34
0.82
-11.71
-21.62
-26.91
-26.98
-22.76
-16.24
-9.57
-4.30
-1.05
0.24
-0.04
-1.51
-3.88
-6.75
-9.53
-11.57
-12.37
-11.97
-11.01
-10.52
-11.49
-14.39
-18.99
-24.41
-29.53
-33.46
-35.94
-37.35
-38.41
-39.70
-41.29
-42.70
-43.11
-41.82
-38.66
-33.99
-28.57
-23.18
-18.32
-14.22
-10.88
-8.36
-6.76
-6.12
-6.24
-6.56
-6.38
-5.07
-2.51
0.86
4.24
6.80
8.14
8.36
7.91
7.28
6.70
6.08
5.22
3.99
2.47
0.89
-0.58
-2.01
-3.64
-5.77
-8.55
-11.85
-15.43
-18.96
-22.29
-25.45
-28.50
-31.45
-34.03
-35.77
-36.13
-34.70
-31.39
-26.43
-20.24
-13.41
-6.46
0.08
5.76
10.21
13.20
14.77
15.21
15.00
14.64
14.57
15.01
15.99
17.36
18.78
19.92
20.49
20.41
19.87
19.34
19.33
20.10
21.56
23.09
23.86
23.18
20.78
16.98
12.50
8.11
4.28
1.04
-1.97
-5.22
-9.01
-13.27
-17.60
-21.47
-24.41
-26.16
-26.68
-26.08
-24.48
-21.98
-18.55
-14.11
-8.56
-1.94
5.48
13.22
20.64
27.11
32.22
35.84
38.15
39.56
40.50
41.31
42.24
43.35
44.65
45.98
47.18
48.00
48.25
47.80
46.60
44.65
42.07
39.03
35.80
32.69
29.99
27.86
26.26
24.95
23.53
21.64
18.93
15.30
10.83
5.86
0.90
-3.50
-6.94
-9.35
-10.93
-12.11
-13.33
-14.87
-16.78
-18.99
-21.41
-24.06
-27.19
-31.20
-36.58
-43.81
-53.27
-64.91
-78.12
-91.61
-103.49
-111.80
-115.09
-112.96
-106.22
-96.62
-86.16
-76.36
-67.82
-60.17
-52.54
-44.21
-35.00
-25.38
-16.22
-8.26
-1.84
3.03
6.61
9.01
10.26
10.36
9.54
8.40
7.71
8.09
9.68
12.12
14.78
17.13
19.14
21.33
24.54
29.51
36.47
44.94
53.82
61.72
67.35
69.80
68.69
64.06
56.33
46.28
35.00
23.83
14.10
6.80
2.37
0.53
0.59
1.70
3.22
4.83
6.43
8.00
9.46
10.69
11.69
12.59
13.63
15.02
16.74
18.56
20.04
20.73
20.31
18.74
16.24
13.22
10.08
7.10
4.37
1.96
0.05
-0.95
-0.47
2.02
6.80
13.81
22.70
32.91
43.69
53.99
62.36
67.21
67.47
63.17
55.74
47.45
40.38
35.47
32.13
28.86
24.25
18.04
11.18
5.31
1.67
0.38
0.48
0.53
-0.66
-3.56
-7.90
-13.14
-18.78
-24.57
-30.50
-36.55
-42.57
-48.24
-53.25
-57.39
-60.77
-63.72
-66.72
-70.18
-74.15
-78.23
-81.62
-83.40
-82.87
-79.85
-74.68
-68.05
-60.70
-53.12
-45.55
-38.05
-30.71
-23.74
-17.47
-12.17
-7.94
-4.65
-2.05
0.12
2.05
3.88
5.66
7.42
9.07
10.49
11.48
11.89
11.61
10.64
9.05
6.88
4.22
1.11
-2.35
-6.04
-9.86
-13.78
-17.85
-22.23
-27.01
-32.17
-37.52
-42.68
-47.18
-50.50
-52.19
-51.92
-49.64
-45.51
-39.93
-33.48
-26.71
-19.99
-13.48
-7.21
-1.18
4.44
9.36
13.28
16.00
17.63
18.56
19.26
20.10
21.17
22.22
22.85
22.73
21.79
20.29
18.61
17.05
15.61
13.93
11.41
7.56
2.23
-4.34
-11.46
-18.29
-24.04
-28.08
-30.11
-30.28
-29.19
-27.88
-27.55
-29.14
-32.92
-38.27
-43.78
-47.76
-48.91
-46.67
-41.39
-33.99
-25.55
-16.91
-8.59
-0.81
6.32
12.60
17.85
21.87
24.62
26.19
26.80
26.68
26.05
25.12
24.04
22.96
21.95
20.96
19.80
18.23
15.99
13.04
9.54
5.79
2.12
-1.31
-4.54
-7.72
-11.00
-14.35
-17.63
-20.67
-23.51
-26.38
-29.72
-33.88
-38.89
-44.33
-49.40
-53.09
-54.55
-53.34
-49.45
-43.22
-35.06
-25.28
-14.17
-2.06
10.43
22.49
33.22
42.05
48.88
54.13
58.44
62.35
66.08
69.51
72.37
74.47
75.85
76.71
77.30
77.71
77.85
77.44
76.15
73.73
70.14
65.55
60.27
54.57
48.66
42.54
36.21
29.70
23.15
16.83
10.96
5.67
0.87
-3.65
-8.24
-13.19
-18.67
-24.64
-30.74
-36.33
-40.61
-42.76
-42.25
-38.96
-33.22
-25.70
-17.15
-8.29
0.38
8.48
15.75
21.99
27.08
30.96
33.72
35.52
36.62
37.25
37.63
37.92
38.19
38.42
38.54
38.48
38.17
37.58
36.59
35.10
32.96
30.08
26.50
22.37
17.96
13.49
9.10
4.81
0.53
-3.80
-8.16
-12.44
-16.51
-20.32
-23.97
-27.65
-31.63
-36.04
-40.80
-45.51
-49.55
-52.20
-52.86
-51.22
-47.24
-41.24
-33.67
-25.03
-15.86
-6.63
2.21
10.31
17.41
23.35
28.08
31.62
34.13
35.81
36.94
37.77
38.48
39.14
39.67
39.93
39.81
39.29
38.41
37.21
35.76
34.01
31.98
29.69
27.19
24.53
21.77
18.88
15.83
12.61
9.17
5.53
1.72
-2.23
-6.25
-10.21
-14.05
-17.69
-21.17
-24.61
-28.20
-32.02
-35.98
-39.77
-42.78
-44.33
-43.85
-41.00
-35.85
-28.75
-20.20
-10.70
-0.66
9.55
19.48
28.62
36.46
42.58
46.89
49.63
51.28
52.33
53.13
53.80
54.31
54.57
54.45
53.95
53.10
52.01
50.79
49.60
48.52
47.43
45.99
43.62
39.77
34.09
26.75
18.37
9.86
2.06
-4.52
-9.78
-13.96
-17.33
-20.13
-22.50
-24.64
-26.80
-29.41
-32.89
-37.53
-43.37
-50.14
-57.27
-64.00
-69.47
-72.93
-73.90
-72.32
-68.55
-63.23
-57.01
-50.34
-43.35
-35.98
-28.22
-20.26
-12.57
-5.65
0.13
4.71
8.28
11.18
13.62
15.65
17.21
18.26
18.90
19.32
19.75
20.30
20.93
21.44
21.63
21.25
20.15
18.27
15.65
12.54
9.26
6.11
3.26
0.62
-2.08
-5.19
-8.88
-13.10
-17.58
-22.02
-26.25
-30.39
-34.68
-39.34
-44.45
-49.77
-54.86
-59.21
-62.38
-64.05
-64.08
-62.40
-58.95
-53.71
-46.74
-38.24
-28.63
-18.51
-8.57
0.57
8.53
15.16
20.62
25.19
29.19
32.83
36.23
39.38
42.21
44.59
46.46
47.79
48.69
49.31
49.82
50.36
50.96
51.53
51.92
51.91
51.30
49.81
47.26
43.49
38.48
32.42
25.71
18.94
12.67
7.35
3.00
-0.74
-4.52
-9.08
-14.90
-22.03
-30.13
-38.58
-46.74
-54.09
-60.24
-64.86
-67.65
-68.33
-66.71
-62.86
-57.09
-49.96
-42.15
-34.25
-26.68
-19.64
-13.19
-7.33
-2.07
2.57
6.66
10.36
13.92
17.52
21.14
24.53
27.34
29.32
30.51
31.19
31.77
32.48
33.25
33.85
34.00
33.65
32.94
32.02
30.95
29.58
27.61
24.85
21.29
17.14
12.71
8.24
3.80
-0.70
-5.37
-10.32
-15.60
-21.18
-27.05
-33.16
-39.49
-45.97
-52.41
-58.60
-64.26
-69.04
-72.60
-74.66
-74.97
-73.39
-69.91
-64.67
-57.84
-49.73
-40.67
-31.07
-21.40
-12.18
-3.87
3.18
8.89
13.38
16.90
19.75
22.12
24.07
25.61
26.74
27.53
28.09
28.49
28.66
28.38
27.31
25.21
21.99
17.84
13.17
8.46
4.08
0.19
-3.31
-6.68
-10.20
-13.97
-17.92
-21.82
-25.42
-28.60
-31.48
-34.29
-37.35
-40.86
-44.82
-49.00
-53.03
-56.47
-58.85
-59.80
-58.96
-56.15
-51.32
-44.66
-36.62
-27.79
-18.87
-10.45
-2.92
3.60
9.14
13.87
17.96
21.48
24.48
26.97
28.93
30.39
31.42
32.15
32.69
33.20
33.71
34.16
34.42
34.30
33.67
32.57
31.12
29.46
27.71
25.80
23.64
21.11
18.21
15.04
11.80
8.65
5.60
2.60
-0.47
-3.64
-6.83
-9.88
-12.65
-15.11
-17.38
-19.67
-22.15
-24.86
-27.66
-30.21
-32.03
-32.64
-31.56
-28.57
-23.70
-17.28
-9.88
-2.17
5.24
11.88
17.47
21.92
25.30
27.75
29.44
30.57
31.28
31.65
31.67
31.35
30.71
29.88
29.03
28.32
27.83
27.56
27.38
27.13
26.60
25.62
24.06
21.84
19.04
15.83
12.47
9.18
6.01
2.78
-0.83
-5.06
-9.86
-14.80
-19.21
-22.52
-24.52
-25.48
-26.04
-26.82
-28.20
-30.20
-32.61
-35.15
-37.68
-40.05
-41.98
-42.93
-42.16
-38.99
-33.16
-25.05
-15.63
-6.17
2.22
8.99
14.19
18.36
22.21
26.20
30.37
34.35
37.66
39.91
41.05
41.34
41.15
40.81
40.50
40.32
40.29
40.47
40.79
40.91
40.25
38.15
34.18
28.43
21.46
14.10
7.02
0.43
-5.92
-12.42
-19.29
-26.29
-32.90
-38.61
-43.28
-47.29
-51.33
-55.93
-61.11
-66.25
-70.34
-72.36
-71.70
-68.31
-62.62
-55.34
-47.19
-38.78
-30.58
-22.87
-15.84
-9.59
-4.19
0.27
3.77
6.31
8.05
9.19
10.04
10.74
11.34
11.62
11.36
10.32
8.47
5.91
2.93
-0.09
-2.80
-4.85
-6.09
-6.59
-6.72
-6.99
-7.92
-9.74
-12.36
-15.41
-18.41
-21.05
-23.26
-25.16
-26.97
-28.78
-30.65
-32.58
-34.70
-37.18
-40.10
-43.21
-45.85
-47.14
-46.22
-42.66
-36.56
-28.52
-19.34
-9.73
-0.19
9.04
17.78
25.89
33.21
39.56
44.76
48.67
51.20
52.39
52.51
52.00
51.41
51.14
51.32
51.75
52.05
51.83
50.92
49.34
47.20
44.56
41.36
37.52
33.04
28.07
22.92
17.81
12.92
8.26
3.82
-0.47
-4.60
-8.56
-12.44
-16.37
-20.61
-25.30
-30.45
-35.86
-41.03
-45.23
-47.71
-47.81
-45.11
-39.62
-31.72
-22.12
-11.67
-1.21
8.54
17.08
24.14
29.65
33.74
36.63
38.60
39.89
40.65
41.01
41.07
40.98
40.89
40.86
40.84
40.69
40.25
39.44
38.25
36.71
34.85
32.64
30.00
26.87
23.27
19.32
15.23
11.19
7.36
3.79
0.44
-2.81
-6.10
-9.59
-13.36
-17.39
-21.58
-25.78
-29.76
-33.21
-35.75
-36.96
-36.44
-33.99
-29.66
-23.75
-16.76
-9.21
-1.60
5.59
11.98
17.24
21.21
23.88
25.42
26.13
26.33
26.21
25.91
25.51
25.05
24.60
24.27
24.11
24.16
24.39
24.75
25.12
25.34
25.21
24.50
23.15
21.17
18.74
16.06
13.36
10.76
8.30
5.99
3.75
1.53
-0.82
-3.47
-6.62
-10.42
-14.84
-19.58
-24.10
-27.75
-29.89
-30.08
-28.16
-24.25
-18.74
-12.18
-5.13
1.85
8.31
13.95
18.59
22.17
24.78
26.51
27.56
28.16
28.58
28.99
29.54
30.24
31.03
31.82
32.52
33.12
33.62
34.08
34.51
34.97
35.48
36.03
36.57
37.01
37.25
37.19
36.80
36.13
35.21
34.09
32.75
31.23
29.58
27.98
26.56
25.43
24.57
23.87
23.13
22.20
21.01
19.53
17.76
15.68
13.25
10.47
7.43
4.33
1.38
-1.27
-3.58
-5.65
-7.59
-9.53
-11.51
-13.49
-15.42
-17.27
-19.05
-20.82
-22.60
-24.37
-26.08
-27.64
-29.05
-30.36
-31.75
-33.38
-35.33
-37.53
-39.72
-41.68
-43.30
-44.68
-46.07
-47.71
-49.68
-51.92
-54.25
-56.59
-58.96
-61.47
-64.09
-66.57
-68.36
-68.82
-67.45
-64.08
-58.90
-52.37
-45.00
-37.19
-29.29
-21.54
-14.25
-7.78
-2.45
1.59
4.42
6.39
7.90
9.31
10.79
12.36
13.91
15.38
16.72
17.89
18.82
19.47
19.77
19.70
19.32
18.65
17.71
16.47
14.84
12.79
10.33
7.57
4.65
1.68
-1.26
-4.18
-7.12
-10.13
-13.29
-16.59
-20.01
-23.47
-26.81
-29.85
-32.28
-33.71
-33.76
-32.12
-28.76
-23.93
-18.19
-12.21
-6.57
-1.65
2.48
5.91
8.77
11.12
12.90
14.09
14.71
14.94
15.04
15.28
15.76
16.41
16.99
17.21
16.89
16.00
14.66
13.10
11.52
9.96
8.27
6.27
3.79
0.86
-2.32
-5.47
-8.37
-10.96
-13.37
-15.84
-18.66
-22.01
-25.94
-30.35
-34.92
-39.13
-42.34
-43.91
-43.38
-40.60
-35.81
-29.58
-22.55
-15.34
-8.38
-1.95
3.76
8.66
12.64
15.68
17.81
19.15
19.87
20.14
20.17
20.15
20.25
20.52
20.87
21.12
20.98
20.26
18.93
17.15
15.11
13.01
10.86
8.54
5.86
2.74
-0.78
-4.51
-8.26
-11.94
-15.61
-19.46
-23.68
-28.38
-33.45
-38.58
-43.24
-46.84
-48.83
-48.84
-46.77
-42.75
-37.13
-30.34
-22.83
-15.02
-7.33
-0.15
6.20
11.52
15.72
18.94
21.31
23.01
24.22
25.10
25.80
26.46
27.06
27.51
27.61
27.18
26.18
24.76
23.13
21.46
19.74
17.75
15.24
12.02
8.11
3.72
-0.85
-5.32
-9.56
-13.56
-17.43
-21.33
-25.44
-29.90
-34.69
-39.59
-44.20
-47.88
-50.03
-50.15
-48.03
-43.73
-37.62
-30.12
-21.70
-12.79
-3.80
4.89
12.87
19.80
25.46
29.78
32.84
34.88
36.18
37.00
37.54
37.90
38.09
38.07
37.72
36.97
35.76
34.05
31.88
29.23
26.14
22.58
18.57
14.13
9.34
4.38
-0.56
-5.27
-9.66
-13.75
-17.71
-21.72
-25.94
-30.47
-35.31
-40.34
-45.33
-49.84
-53.32
-55.10
-54.61
-51.55
-46.01
-38.47
-29.56
-19.93
-10.08
-0.36
8.99
17.69
25.44
31.97
37.14
40.95
43.55
45.17
46.06
46.43
46.46
46.19
45.62
44.66
43.27
41.48
39.39
37.17
34.87
32.43
29.67
26.34
22.29
17.53
12.22
6.67
1.22
-3.87
-8.52
-12.83
-17.07
-21.59
-26.64
-32.34
-38.58
-45.07
-51.28
-56.67
-60.58
-62.48
-61.92
-58.74
-53.05
-45.30
-36.08
-26.08
-15.84
-5.78
3.78
12.59
20.34
26.75
31.58
34.82
36.67
37.63
38.23
38.88
39.68
40.41
40.63
39.95
38.20
35.58
32.48
29.35
26.42
23.62
20.61
16.93
12.32
6.84
0.94
-4.69
-9.39
-12.85
-15.25
-17.25
-19.69
-23.27
-28.24
-34.28
-40.62
-46.23
-50.14
-51.63
-50.36
-46.36
-40.01
-31.91
-22.69
-12.76
-2.12
9.57
22.56
36.44
49.72
59.90
64.13
60.29
48.05
29.21
7.50
-12.49
-26.35
-30.85
-24.67
-8.71
13.98
38.76
60.46
74.88
79.93
76.19
66.42
54.26
42.71
33.31
26.05
20.09
14.63
9.46
4.89
1.37
-0.82
-1.67
-1.25
0.50
3.80
8.79
15.14
21.88
27.49
30.45
29.81
25.65
19.09
11.94
6.01
2.55
1.95
3.69
6.78
10.08
12.77
14.52
15.49
16.19
17.16
18.76
20.98
23.39
25.36
26.21
25.44
22.90
18.84
13.91
8.97
4.93
2.31
0.82
-0.84
-4.74
-12.93
-26.51
-44.82
-65.46
-85.00
-100.11
-108.62
-110.04
-105.45
-97.00
-87.31
-79.13
-74.94
-76.57
-84.60
-97.93
-113.71
-127.99
-136.84
-137.54
-129.28
-113.11
-91.30
-66.42
-40.67
-15.64
7.59
28.22
45.65
59.53
69.85
77.02
81.67
84.47
85.98
86.59
86.55
85.99
85.00
83.55
81.50
78.68
74.93
70.19
64.51
57.96
50.63
42.59
33.99
25.02
15.89
6.76
-2.29
-11.19
-19.76
-27.66
-34.41
-39.65
-43.30
-45.76
-47.73
-49.90
-52.56
-55.45
-57.77
-58.58
-57.09
-52.98
-46.35
-37.66
-27.51
-16.47
-5.12
6.09
16.70
26.28
34.46
41.01
45.87
49.17
51.17
52.18
52.48
52.29
51.75
50.93
49.90
48.77
47.64
46.58
45.58
44.47
43.02
40.92
37.97
34.17
29.69
24.89
20.12
15.61
11.36
7.27
3.18
-1.03
-5.36
-9.84
-14.47
-19.29
-24.30
-29.53
-34.90
-40.29
-45.48
-50.07
-53.52
-55.23
-54.64
-51.52
-46.00
-38.57
-29.86
-20.50
-10.96
-1.60
7.31
15.41
22.34
27.79
31.60
33.90
35.01
35.39
35.48
35.60
35.80
35.99
35.97
35.53
34.60
33.18
31.38
29.33
27.05
24.52
21.67
18.43
14.74
10.63
6.17
1.45
-3.40
-8.25
-13.01
-17.59
-21.89
-25.84
-29.39
-32.53
-35.39
-38.23
-41.36
-45.05
-49.27
-53.60
-57.24
-59.25
-58.87
-55.71
-49.94
-42.13
-33.02
-23.35
-13.67
-4.36
4.31
12.12
18.87
24.46
28.87
32.15
34.45
35.96
36.94
37.64
38.21
38.70
38.98
38.85
38.10
36.63
34.49
31.84
28.88
25.73
22.42
18.88
15.02
10.82
6.37
1.87
-2.48
-6.52
-10.25
-13.77
-17.29
-20.92
-24.66
-28.43
-32.15
-35.84
-39.59
-43.50
-47.47
-51.09
-53.69
-54.51
-53.01
-49.06
-42.94
-35.26
-26.64
-17.62
-8.52
0.38
8.80
16.33
22.62
27.39
30.58
32.38
33.15
33.29
33.13
32.92
32.72
32.60
32.47
32.17
31.51
30.30
28.48
26.09
23.34
20.45
17.61
14.82
11.98
8.91
5.42
1.49
-2.75
-7.09
-11.30
-15.22
-18.84
-22.25
-25.56
-28.91
-32.35
-35.92
-39.65
-43.49
-47.25
-50.50
-52.61
-52.89
-50.85
-46.35
-39.71
-31.53
-22.60
-13.58
-4.96
3.02
10.21
16.52
21.83
26.04
29.06
30.94
31.87
32.19
32.28
32.41
32.71
33.04
33.14
32.72
31.64
29.92
27.75
25.30
22.69
19.88
16.76
13.17
9.11
4.68
0.14
-4.25
-8.32
-12.03
-15.47
-18.77
-22.03
-25.28
-28.46
-31.55
-34.54
-37.54
-40.61
-43.77
-46.79
-49.24
-50.55
-50.13
-47.59
-42.88
-36.27
-28.32
-19.70
-10.98
-2.59
5.19
12.16
18.14
22.95
26.52
28.92
30.33
31.05
31.36
31.47
31.47
31.31
30.90
30.16
28.99
27.39
25.39
23.08
20.57
17.94
15.21
12.28
9.05
5.43
1.49
-2.61
-6.62
-10.31
-13.60
-16.57
-19.43
-22.43
-25.78
-29.59
-33.84
-38.41
-43.04
-47.34
-50.82
-52.91
-53.10
-51.01
-46.59
-40.08
-32.01
-23.07
-13.94
-5.13
3.04
10.44
17.00
22.68
27.35
30.98
33.59
35.35
36.57
37.51
38.29
38.80
38.83
38.15
36.67
34.49
31.81
28.90
25.91
22.84
19.60
16.10
12.32
8.33
4.30
0.35
-3.44
-7.12
-10.77
-14.52
-18.45
-22.53
-26.70
-30.95
-35.31
-39.82
-44.46
-48.88
-52.49
-54.54
-54.35
-51.56
-46.29
-39.06
-30.61
-21.64
-12.61
-3.81
4.57
12.34
19.23
24.93
29.29
32.31
34.19
35.27
35.89
36.25
36.41
36.31
35.84
34.91
33.47
31.54
29.23
26.72
24.13
21.52
18.85
15.94
12.60
8.73
4.33
-0.43
-5.31
-10.09
-14.66
-19.04
-23.29
-27.55
-31.89
-36.33
-40.88
-45.38
-49.56
-53.00
-55.15
-55.46
-53.55
-49.27
-42.83
-34.73
-25.60
-16.12
-6.81
1.92
9.79
16.59
22.15
26.36
29.22
30.93
31.84
32.39
32.92
33.57
34.24
34.67
34.64
34.02
32.88
31.35
29.58
27.58
25.28
22.53
19.26
15.53
11.55
7.53
3.64
-0.11
-3.85
-7.73
-11.87
-16.35
-21.10
-26.07
-31.18
-36.33
-41.43
-46.22
-50.31
-53.15
-54.19
-52.96
-49.29
-43.31
-35.42
-26.22
-16.35
-6.34
3.38
12.52
20.83
28.07
34.03
38.61
41.84
43.92
45.19
46.02
46.75
47.52
48.27
48.76
48.77
48.13
46.88
45.22
43.39
41.52
39.63
37.59
35.26
32.60
29.77
27.00
24.53
22.47
20.76
19.21
17.60
15.87
14.01
12.16
10.47
8.97
7.64
6.38
5.14
3.96
2.98
2.38
2.37
3.07
4.44
6.34
8.54
10.79
12.86
14.58
15.81
16.47
16.45
15.78
14.63
13.41
12.73
13.14
14.87
17.62
20.58
22.69
23.07
21.47
18.42
15.09
12.78
12.45
14.26
17.40
20.22
20.53
16.20
5.82
-10.70
-31.89
-55.07
-77.18
-95.78
-109.74
-119.31
-125.48
-129.14
-130.34
-128.26
-121.76
-110.15
-93.83
-74.53
-55.14
-39.08
-29.34
-27.51
-32.98
-42.96
-53.36
-60.18
-60.95
-55.36
-45.02
-32.37
-19.69
-8.42
0.72
7.36
11.31
12.66
12.02
10.51
9.42
9.50
10.63
11.93
12.23
10.67
7.19
2.48
-2.28
-5.88
-7.43
-6.48
-3.13
2.02
8.01
13.65
17.73
19.42
18.64
16.20
13.75
13.30
16.45
23.83
34.67
47.05
58.58
67.37
72.62
74.87
75.63
76.49
78.45
81.42
84.44
86.21
85.93
83.65
80.36
77.38
75.64
75.30
75.77
76.23
76.13
75.16
72.75
67.48
57.14
39.50
13.74
-18.52
-53.19
-84.95
-109.20
-123.58
-128.42
-125.89
-118.68
-108.80
-97.32
-84.75
-71.56
-58.37
-45.78
-34.00
-22.76
-11.58
-0.12
11.46
22.58
32.64
41.28
48.62
55.05
60.95
66.37
70.99
74.26
75.79
75.68
74.66
73.86
74.28
76.37
79.63
82.72
83.77
80.76
71.93
56.12
33.15
4.24
-27.75
-58.62
-83.68
-99.16
-103.40
-97.40
-84.32
-67.98
-51.48
-36.28
-22.38
-9.42
2.21
10.76
13.62
8.63
-4.44
-23.22
-43.26
-59.60
-68.48
-68.38
-59.79
-44.19
-23.03
2.50
30.99
59.96
85.66
103.78
110.82
105.44
89.07
65.48
39.52
15.66
-3.10
-15.66
-22.80
-26.59
-29.65
-34.42
-42.51
-54.40
-69.42
-86.04
-102.20
-115.86
-125.11
-128.47
-125.02
-114.52
-97.50
-75.45
-50.85
-27.05
-7.75
3.89
6.30
0.25
-11.17
-23.48
-32.23
-34.58
-30.04
-20.37
-8.53
2.70
11.66
18.11
22.74
26.40
29.41
31.47
31.88
29.93
25.06
16.79
4.67
-11.45
-30.82
-51.22
-68.93
-79.82
-81.02
-72.56
-57.70
-41.60
-29.01
-22.11
-19.88
-19.14
-16.78
-11.55
-4.47
2.13
6.41
8.11
8.70
10.30
14.40
21.01
28.77
35.75
40.35
42.15
41.90
41.15
41.56
44.41
50.19
58.74
69.30
80.69
91.46
99.79
103.77
101.73
92.71
76.95
56.13
33.13
11.59
-4.81
-13.13
-11.95
-1.98
13.73
30.24
41.91
44.07
34.61
14.78
-11.15
-37.37
-58.40
-70.68
-73.22
-67.36
-55.71
-41.27
-26.50
-13.10
-2.03
6.38
12.09
15.28
16.15
14.78
11.01
4.46
-5.27
-18.11
-33.18
-48.42
-60.77
-66.82
-63.77
-50.57
-28.54
-1.38
25.74
47.66
60.68
63.45
57.11
44.49
28.98
13.41
-0.38
-11.56
-19.75
-24.61
-25.66
-22.50
-15.25
-4.79
7.24
18.73
27.71
32.89
33.95
31.58
27.07
21.69
16.07
9.86
2.12
-7.98
-20.27
-33.19
-44.30
-51.20
-52.82
-49.84
-44.38
-38.87
-35.00
-33.12
-32.56
-32.42
-32.19
-31.96
-31.99
-32.26
-32.20
-30.97
-27.97
-23.21
-17.25
-10.83
-4.44
1.91
8.47
15.32
21.90
26.92
28.74
26.05
18.58
7.43
-5.05
-15.94
-22.62
-23.56
-18.89
-10.22
-0.20
8.38
13.40
14.04
10.74
4.86
-1.91
-8.22
-13.22
-16.64
-18.49
-18.85
-17.83
-15.64
-12.64
-9.35
-6.26
-3.58
-1.26
1.06
3.68
6.81
10.33
13.97
17.31
19.96
21.65
22.28
21.96
20.96
19.65
18.31
17.04
15.72
14.01
11.61
8.43
4.75
1.13
-1.81
-3.69
-4.57
-4.89
-5.25
-6.20
-7.91
-10.30
-13.07
-16.00
-18.99
-22.07
-25.37
-28.93
-32.73
-36.67
-40.68
-44.77
-49.00
-53.45
-58.13
-62.77
-66.84
-69.50
-69.87
-67.24
-61.35
-52.53
-41.55
-29.34
-16.71
-4.18
7.96
19.54
30.25
39.72
47.55
53.46
57.38
59.42
59.80
58.79
56.92
54.97
54.02
55.03
58.34
63.21
67.71
69.38
66.11
57.17
43.49
27.46
12.00
-0.48
-8.70
-12.62
-13.13
-11.55
-9.34
-7.92
-8.58
-12.14
-18.59
-26.94
-35.45
-42.35
-46.50
-47.84
-47.04
-44.82
-41.30
-35.88
-27.68
-16.36
-2.39
13.05
28.74
43.97
58.55
72.43
85.16
95.74
102.82
105.25
102.28
93.60
79.22
59.47
35.27
8.48
-18.06
-41.09
-57.83
-66.79
-68.18
-63.66
-55.65
-46.58
-38.40
-32.46
-29.56
-30.09
-34.04
-40.99
-49.98
-59.66
-68.60
-75.70
-80.73
-84.45
-88.31
-93.74
-101.41
-110.67
-119.77
-126.40
-128.55
-124.98
-115.30
-99.76
-79.05
-54.23
-26.91
0.73
26.23
47.39
62.73
71.81
75.02
73.36
68.12
60.83
53.18
46.96
43.67
44.06
47.87
53.95
60.69
66.68
71.07
73.71
74.80
74.64
73.34
70.90
67.45
63.39
59.37
56.06
53.82
52.54
51.66
50.44
48.27
44.95
40.71
36.07
31.60
27.82
25.08
23.65
23.62
24.93
27.39
30.80
35.15
40.73
48.08
57.63
69.37
82.43
95.15
105.33
110.79
109.90
102.02
87.72
68.73
47.59
27.07
9.45
-4.15
-13.92
-21.14
-27.40
-33.73
-40.17
-45.88
-49.63
-50.68
-49.08
-45.69
-41.68
-37.99
-35.11
-33.19
-32.28
-32.46
-33.78
-35.94
-38.18
-39.39
-38.64
-35.71
-31.32
-26.78
-23.14
-20.47
-17.56
-12.47
-3.52
9.49
25.01
40.09
51.79
58.49
60.72
60.87
62.09
66.95
76.36
89.41
103.71
116.03
122.68
120.03
105.48
78.69
42.61
3.42
-31.28
-55.48
-67.64
-71.58
-74.62
-83.67
-101.46
-124.79
-146.08
-157.04
-152.63
-132.96
-102.67
-68.45
-36.31
-10.12
8.41
18.77
20.65
13.70
-1.72
-23.61
-47.99
-69.43
-82.69
-84.60
-75.15
-57.68
-37.43
-19.45
-6.59
1.18
6.24
11.72
19.69
30.33
42.09
52.83
60.71
64.82
65.05
61.76
55.49
47.05
37.75
29.42
24.02
22.74
25.36
30.08
34.27
35.64
33.26
27.95
21.73
16.66
13.86
13.05
13.01
12.47
10.73
7.80
4.00
-0.62
-6.44
-13.90
-22.88
-32.32
-40.46
-45.58
-46.75
-44.16
-38.86
-32.05
-24.61
-16.90
-9.10
-1.52
5.31
10.83
14.85
17.62
19.74
21.63
23.34
24.46
24.49
23.21
20.93
18.39
16.41
15.57
16.04
17.67
20.14
22.98
25.40
26.20
23.84
17.05
5.48
-9.64
-25.70
-39.48
-48.50
-52.01
-51.34
-49.05
-47.82
-49.41
-54.29
-62.01
-71.65
-82.20
-92.42
-100.72
-105.23
-104.32
-97.22
-84.43
-67.58
-48.81
-30.18
-13.19
1.07
11.85
18.62
21.29
20.51
17.63
14.38
12.23
11.99
13.53
16.11
18.80
20.87
21.94
21.97
21.15
19.92
18.92
18.70
19.54
21.14
22.66
23.09
21.70
18.33
13.43
7.72
1.75
-4.31
-10.46
-16.58
-22.15
-26.51
-29.15
-30.15
-30.31
-30.66
-31.87
-33.80
-35.41
-35.23
-32.11
-25.67
-16.50
-5.89
4.74
14.27
22.06
27.97
32.13
34.84
36.51
37.60
38.52
39.56
40.66
41.42
41.29
39.82
37.00
33.34
29.70
26.92
25.47
25.30
25.86
26.42
26.31
25.25
23.30
20.74
17.96
15.20
12.57
9.96
7.29
4.44
1.42
-1.76
-5.19
-9.06
-13.70
-19.38
-26.04
-33.15
-39.75
-44.62
-46.63
-45.05
-39.69
-30.98
-19.86
-7.50
4.85
16.04
25.19
31.77
35.60
36.93
36.30
34.42
32.01
29.61
27.47
25.59
23.80
21.96
20.07
18.35
17.08
16.41
16.21
16.13
15.64
14.28
11.83
8.30
3.95
-0.85
-5.71
-10.21
-13.96
-16.60
-17.92
-17.93
-16.95
-15.59
-14.39
-13.69
-13.35
-12.97
-12.05
-10.38
-8.15
-5.79
-3.68
-1.84
0.06
2.51
5.74
9.56
13.44
16.88
19.63
21.80
23.65
25.27
26.53
27.13
26.88
25.92
24.68
23.64
23.10
23.11
23.45
23.92
24.38
24.86
25.40
25.96
26.41
26.52
26.06
24.85
22.82
19.96
16.36
12.21
7.68
3.06
-1.33
-5.18
-8.24
-10.45
-12.06
-13.59
-15.63
-18.67
-22.78
-27.62
-32.53
-36.77
-39.78
-41.14
-40.67
-38.26
-33.96
-28.00
-20.89
-13.37
-6.19
0.09
5.15
9.01
11.81
13.68
14.68
14.80
14.07
12.67
10.91
9.16
7.77
6.98
6.82
7.12
7.56
7.78
7.47
6.49
4.82
2.59
-0.06
-2.99
-6.09
-9.24
-12.36
-15.49
-18.75
-22.39
-26.62
-31.53
-36.91
-42.36
-47.39
-51.71
-55.32
-58.56
-61.97
-66.07
-71.15
-77.05
-83.11
-88.12
-90.59
-89.14
-82.93
-71.95
-57.01
-39.33
-20.07
0.08
20.91
42.19
63.11
81.97
96.56
105.01
106.87
103.46
97.37
91.32
87.05
84.68
83.13
80.98
77.31
72.09
65.89
59.26
52.23
44.39
35.11
24.01
11.17
-2.97
-17.67
-32.01
-44.84
-54.88
-60.80
-61.57
-56.96
-47.91
-36.62
-26.05
-19.03
-17.29
-20.91
-28.48
-37.87
-47.13
-55.03
-61.14
-65.27
-66.99
-65.41
-59.53
-48.90
-34.19
-17.31
-0.89
12.49
21.06
24.18
22.28
16.71
9.44
2.90
-0.40
1.60
9.71
22.97
38.62
52.94
62.54
65.62
62.41
54.69
44.76
34.41
24.67
16.24
9.98
7.27
9.47
16.93
28.12
39.67
47.39
48.00
40.64
27.42
12.65
1.04
-4.39
-3.41
1.49
6.44
8.04
4.86
-2.03
-9.82
-15.35
-16.57
-13.42
-7.62
-1.96
0.95
-0.43
-6.14
-14.82
-24.23
-31.96
-36.11
-35.81
-31.53
-24.96
-18.49
-14.51
-14.51
-18.63
-25.74
-34.11
-42.12
-49.02
-54.89
-60.38
-66.04
-71.99
-77.57
-81.65
-82.91
-80.23
-73.10
-61.75
-47.19
-31.01
-15.07
-1.00
10.02
17.34
20.80
20.53
16.86
10.28
1.26
-9.97
-23.52
-39.83
-59.04
-80.42
-101.82
-119.93
-131.20
-133.17
-125.46
-109.91
-89.81
-68.82
-49.96
-35.09
-24.84
-18.65
-15.08
-12.18
-8.22
-2.53
4.07
9.63
11.93
9.75
3.58
-4.56
-12.12
-17.22
-19.25
-18.78
-16.74
-13.68
-9.32
-2.83
6.77
20.13
37.39
58.18
81.60
106.07
128.93
146.38
154.00
148.16
127.65
94.94
56.18
19.80
-6.14
-16.68
-11.79
3.51
21.06
32.65
33.10
21.77
2.30
-19.40
-37.61
-48.51
-50.87
-45.55
-34.62
-20.72
-6.50
5.63
14.06
18.48
19.94
20.27
21.00
22.64
24.76
26.85
29.25
33.20
40.00
49.79
61.03
71.06
77.53
79.74
78.94
77.61
77.96
80.86
85.47
89.73
91.31
88.52
80.84
68.97
54.72
40.51
28.70
20.96
17.67
17.82
19.37
20.04
18.01
12.43
3.44
-8.07
-20.62
-32.33
-41.07
-44.84
-42.32
-33.54
-20.16
-5.24
7.64
15.54
17.12
12.92
5.07
-3.60
-10.44
-13.67
-12.67
-7.76
0.22
10.29
21.68
33.81
46.22
58.35
69.50
78.94
86.09
90.69
92.84
92.86
91.03
87.54
82.47
76.02
68.61
60.87
53.50
47.08
41.91
37.96
35.03
32.77
30.75
28.19
23.71
15.12
-0.20
-24.55
-58.73
-101.13
-147.63
-192.44
-229.67
-254.96
-266.43
-264.67
-252.04
-231.79
-207.50
-182.87
-161.56
-146.54
-139.16
-138.39
-140.73
-141.60
-137.15
-125.99
-109.69
-91.54
-74.63
-60.07
-46.58
-31.55
-12.87
9.44
32.94
53.71
68.07
74.12
72.28
64.96
55.52
47.20
42.42
42.42
47.06
54.99
64.03
71.82
76.58
77.81
76.37
74.01
72.33
71.67
70.56
65.99
54.56
34.08
4.94
-29.28
-62.31
-86.79
-96.53
-88.57
-64.39
-29.66
7.68
39.88
61.68
71.50
71.25
65.07
57.98
54.48
57.64
68.32
84.78
102.87
117.25
123.37
119.41
107.31
92.05
79.61
74.39
77.63
87.22
98.97
108.20
111.10
105.30
90.06
66.24
36.29
3.86
-26.89
-52.31
-70.14
-79.80
-82.26
-79.27
-72.78
-64.41
-55.40
-46.54
-37.98
-29.20
-19.13
-6.78
7.83
22.91
35.03
39.78
32.97
11.76
-24.55
-73.93
-131.70
-191.09
-244.31
-284.06
-305.22
-306.01
-288.15
-256.08
-215.42
-171.63
-129.32
-92.15
-62.79
-42.54
-31.10
-26.59
-26.60
-29.62
-36.22
-48.81
-70.12
-100.67
-136.77
-170.45
-191.45
-190.44
-162.04
-106.52
-29.98
57.01
141.83
213.05
263.55
292.54
305.44
311.29
318.78
332.68
352.60
374.54
394.09
409.29
421.28
432.48
443.96
454.12
459.40
456.76
445.94
429.87
413.10
399.52
390.24
383.13
374.55
361.00
340.57
313.46
280.92
244.26
204.63
163.50
123.39
88.13
61.43
44.77
35.90
28.80
16.02
-8.21
-45.55
-93.24
-145.53
-196.53
-242.39
-281.84
-315.73
-345.65
-373.26
-400.41
-429.89
-465.68
-512.23
-572.25
-644.34
-722.00
-794.14
-848.46
-875.63
-872.58
-843.22
-796.34
-741.63
-686.08
-632.57
-580.62
-528.66
-475.94
-423.14
-371.72
-322.69
-275.95
-230.46
-185.21
-139.90
-95.28
-52.97
-14.55
19.22
48.78
75.90
103.02
132.25
164.40
198.34
231.14
259.09
279.05
289.49
290.92
285.37
275.36
263.05
249.73
235.89
221.61
206.88
191.74
176.43
161.45
147.70
136.55
129.63
128.39
133.60
145.02
161.45
181.00
201.61
221.49
239.43
254.82
267.63
278.18
286.90
294.22
300.48
306.01
311.22
316.70
323.09
330.97
340.65
352.02
364.65
377.93
391.29
404.39
417.10
429.34
440.73
450.39
456.77
457.79
451.32
435.70
410.25
375.58
333.46
286.37
236.98
187.57
139.87
95.11
54.25
18.21
-12.24
-36.59
-54.89
-67.79
-76.36
-81.76
-84.90
-86.27
-86.02
-84.05
-80.37
-75.11
-68.65
-61.51
-54.23
-47.20
-40.64
-34.52
-28.70
-23.12
-17.79
-12.94
-9.01
-6.54
-6.01
-7.70
-11.51
-17.02
-23.64
-30.74
-38.03
-45.60
-54.00
-63.86
-75.70
-89.51
-104.67
-120.22
-135.13
-148.97
-162.08
-175.58
-190.98
-209.54
-231.72
-257.02
-284.38
-312.56
-340.80
-369.03
-397.72
-427.68
-460.07
-496.50
-538.66
-587.35
-640.92
-694.19
-738.68
-764.77
-765.11
-737.51
-685.97
-619.12
-546.94
-477.25
-413.97
-357.15
-304.64
-254.03
-203.78
-153.59
-103.87
-55.42
-8.74
35.86
78.54
119.86
160.50
201.29
243.35
288.36
338.20
393.53
451.96
507.05
549.47
570.91
568.53
547.43
519.18
496.83
488.97
496.36
512.72
529.00
538.20
537.75
528.73
513.08
491.32
462.41
425.43
381.49
334.21
288.27
247.43
212.80
182.79
154.24
124.25
91.56
56.87
22.34
-9.72
-38.08
-63.22
-86.97
-111.63
-138.73
-168.26
-198.76
-228.14
-255.09
-279.56
-303.00
-327.53
-354.81
-385.48
-419.24
-455.43
-493.26
-531.49
-567.87
-599.50
-624.14
-641.99
-656.20
-671.40
-690.59
-712.31
-730.20
-735.51
-721.53
-687.06
-637.04
-579.90
-523.40
-471.71
-424.91
-381.06
-338.66
-298.03
-260.78
-228.21
-200.33
-175.45
-151.15
-125.61
-98.46
-70.89
-44.96
-22.49
-4.19
10.59
23.53
36.44
50.41
65.40
80.46
94.41
106.62
117.40
128.00
139.94
154.31
171.20
189.67
208.30
225.89
242.18
257.94
274.56
293.35
314.80
338.41
362.94
387.05
409.98
431.95
454.08
478.16
506.28
540.54
582.33
630.84
681.91
727.97
759.61
768.49
750.39
706.84
644.66
573.44
501.92
435.60
376.38
323.98
277.87
238.32
206.15
181.92
165.33
154.30
145.40
135.10
120.71
100.96
75.63
44.68
8.61
-31.18
-74.21
-120.81
-170.84
-223.70
-278.70
-336.09
-398.32
-467.09
-539.69
-610.54
-671.70
-713.22
-726.79
-708.98
-663.35
-600.66
-531.92
-462.54
-395.46
-332.26
-272.34
-214.78
-158.72
-104.31
-53.15
-3.05
51.24
108.89
162.70
204.31
227.18
230.23
232.84
252.97
279.06
306.50
339.75
375.12
407.07
430.02
440.52
432.29
398.82
344.40
276.19
196.11
105.47
7.99
-91.90
-188.61
-282.72
-376.32
-460.23
-527.17
-578.64
-617.54
-645.12
-662.95
-631.43
-530.59
-424.84
-341.19
-266.75
-200.83
-145.38
-102.45
-76.09
-67.48
-79.60
-109.92
-140.61
-157.19
-155.67
-137.00
-91.86
-26.74
41.37
90.57
110.21
110.06
101.27
88.35
72.28
54.40
33.91
12.35
-9.73
-30.77
-44.91
-50.55
-51.26
-50.32
-49.47
-50.85
-54.20
-58.83
-63.24
-64.17
-61.07
-56.00
-50.72
-45.98
-42.83
-41.00
-39.65
-37.71
-33.86
-28.22
-22.06
-16.48
-11.94
-8.98
-7.43
-6.56
-5.58
-4.12
-2.35
-0.72
0.38
0.83
0.48
-0.53
-1.82
-2.98
-3.72
-3.91
-3.52
-2.54
-0.98
1.16
3.81
6.84
10.04
13.21
16.09
18.49
20.23
21.25
21.53
21.14
20.18
18.77
17.03
15.11
13.11
11.19
9.51
8.27
7.71
8.07
9.63
12.66
17.45
24.21
33.17
44.46
58.06
73.70
90.80
108.47
125.42
140.19
151.22
157.15
157.05
150.57
138.01
120.31
98.89
75.56
52.27
31.02
13.66
1.80
-3.40
-1.40
7.57
22.48
41.61
62.88
84.21
103.99
121.33
136.11
148.75
159.91
170.08
179.43
187.91
195.34
201.75
207.50
213.26
219.99
228.77
240.67
256.44
276.05
298.21
320.16
338.10
348.26
348.21
337.74
318.89
295.11
269.87
245.61
223.32
202.96
184.11
166.62
150.59
136.16
123.20
111.20
99.55
87.83
76.12
64.92
54.97
46.89
40.90
36.74
33.86
31.64
29.71
28.10
27.25
27.71
29.85
33.58
38.35
43.65
48.90
53.52
57.17
59.82
61.91
64.11
67.10
71.40
77.50
85.38
94.31
103.10
110.52
116.02
119.97
123.47
127.55
133.11
139.15
142.48
139.03
125.88
102.92
72.81
39.42
5.78
-24.74
-51.74
-77.64
-106.28
-140.91
-182.85
-231.41
-284.08
-336.36
-376.11
-391.44
-375.04
-327.01
-253.94
-165.64
-71.77
20.46
107.10
195.51
291.50
394.53
497.04
589.56
666.26
726.62
773.36
809.57
848.16
896.81
954.27
1010.72
1054.02
1076.36
1076.33
1057.30
954.85
739.26
425.62
71.62
-257.78
-523.16
-715.12
-841.67
-916.83
-954.74
-956.84
-926.13
-871.40
-807.22
-748.33
-703.31
-673.12
-653.72
-639.41
-616.96
-578.41
-524.99
-466.24
-414.49
-377.96
-358.38
-352.81
-356.64
-359.77
-354.77
-339.59
-316.80
-290.99
-265.13
-239.87
-214.84
-189.68
-161.51
-127.84
-87.81
-41.04
8.13
52.84
87.13
108.20
116.27
113.61
104.37
88.52
65.90
37.79
7.79
-19.72
-42.18
-57.81
-67.27
-72.54
-75.57
-76.70
-75.02
-68.88
-57.60
-42.80
-27.64
-15.39
-7.89
-5.00
-4.99
-5.50
-4.26
-0.69
2.93
2.91
-4.15
-20.04
-43.73
-71.36
-95.91
-107.43
-96.09
-56.72
9.66
95.67
189.00
276.51
343.88
377.29
373.55
342.21
296.17
243.49
187.42
124.23
53.68
-20.46
-92.64
-158.94
-213.53
-256.25
-289.75
-316.15
-335.74
-346.41
-346.12
-334.35
-312.83
-286.36
-263.39
-252.99
-261.99
-292.90
-342.31
-401.86
-459.82
-503.90
-525.13
-521.42
-496.64
-457.72
-411.48
-361.84
-309.96
-255.56
-198.57
-140.42
-84.41
-33.70
10.35
48.59
83.38
116.97
150.31
183.05
213.96
241.71
265.93
287.52
308.18
329.17
350.25
369.29
382.70
386.65
378.35
357.07
324.59
284.99
243.69
206.44
177.91
160.78
155.20
158.99
168.35
178.96
187.05
190.08
186.88
177.51
162.80
143.94
122.35
99.49
76.84
55.78
37.50
22.84
12.04
4.64
-0.41
-4.23
-7.68
-10.85
-13.19
-14.01
-13.07
-10.98
-9.07
-8.72
-10.76
-15.04
-20.58
-26.05
-30.43
-33.29
-34.79
-35.40
-35.52
-35.34
-34.92
-34.32
-33.70
-33.27
-33.07
-32.95
-32.61
-31.75
-30.25
-28.21
-25.79
-23.05
-19.91
-16.17
-11.81
-7.13
-2.69
0.87
3.15
4.13
4.15
3.74
3.39
3.37
3.74
4.36
5.02
5.50
5.58
5.17
4.26
3.01
1.65
0.39
-0.61
-1.33
-1.85
-2.27
-2.71
-3.30
-4.17
-5.42
-7.11
-9.15
-11.39
-13.60
-15.62
-17.36
-18.82
-20.01
-20.91
-21.43
-21.40
-20.69
-19.18
-16.87
-13.83
-10.23
-6.31
-2.32
1.49
4.89
7.71
9.85
11.22
11.89
11.99
11.77
11.51
11.42
11.54
11.81
12.09
12.27
12.37
12.51
12.78
13.22
13.65
13.84
13.57
12.76
11.54
10.12
8.78
7.67
6.77
5.85
4.71
3.20
1.38
-0.53
-2.30
-3.79
-5.03
-6.18
-7.38
-8.55
-9.35
-9.31
-8.03
-5.42
-1.73
2.49
6.64
10.32
13.37
15.85
17.85
19.37
20.28
20.45
19.85
18.64
17.13
15.65
14.42
13.51
12.90
12.53
12.38
12.43
12.62
12.84
12.90
12.70
12.23
11.60
10.96
10.39
9.89
9.25
8.28
6.83
4.91
2.68
0.43
-1.63
-3.37
-4.87
-6.30
-7.87
-9.64
-11.47
-13.04
-13.97
-13.93
-12.75
-10.46
-7.23
-3.36
0.85
5.07
9.07
12.59
15.44
17.48
18.62
18.85
18.27
17.05
15.45
13.80
12.36
11.31
10.71
10.45
10.39
10.37
10.28
10.06
9.71
9.23
8.65
7.95
7.17
6.35
5.52
4.73
3.95
3.13
2.19
1.04
-0.39
-2.10
-4.01
-5.98
-7.82
-9.41
-10.74
-11.91
-13.09
-14.43
-15.94
-17.48
-18.71
-19.27
-18.85
-17.32
-14.72
-11.26
-7.21
-2.91
1.30
5.07
8.09
10.13
11.20
11.46
11.26
10.96
10.85
11.02
11.38
11.82
12.20
12.52
12.82
13.08
13.25
13.18
12.77
11.98
10.96
9.93
9.12
8.67
8.51
8.48
8.35
8.01
7.44
6.75
6.07
5.56
5.30
5.28
5.44
5.65
5.75
5.62
5.16
4.39
3.40
2.41
1.65
1.31
1.40
1.80
2.27
2.59
2.59
2.26
1.67
0.96
0.24
-0.42
-1.07
-1.72
-2.35
-2.91
-3.30
-3.51
-3.54
-3.47
-3.41
-3.47
-3.70
-4.03
-4.41
-4.70
-4.86
-4.89
-4.86
-4.90
-5.13
-5.60
-6.29
-7.09
-7.86
-8.52
-9.12
-9.73
-10.48
-11.45
-12.64
-13.98
-15.33
-16.55
-17.54
-18.33
-19.01
-19.76
-20.72
-21.92
-23.25
-24.43
-25.14
-25.15
-24.34
-22.72
-20.40
-17.52
-14.16
-10.47
-6.60
-2.75
0.86
4.06
6.73
8.82
10.31
11.22
11.59
11.46
10.97
10.20
9.33
8.50
7.81
7.33
7.09
7.06
7.12
7.17
7.14
6.98
6.74
6.46
6.14
5.77
5.28
4.66
3.92
3.15
2.37
1.62
0.86
0.04
-0.83
-1.73
-2.57
-3.33
-4.03
-4.72
-5.48
-6.39
-7.51
-8.83
-10.31
-11.82
-13.14
-14.02
-14.20
-13.54
-12.01
-9.70
-6.83
-3.72
-0.70
1.95
4.00
5.40
6.22
6.62
6.75
6.71
6.49
6.11
5.59
5.02
4.52
4.19
4.03
4.01
4.04
4.07
4.08
4.09
4.11
4.15
4.22
4.24
4.09
3.65
2.84
1.71
0.42
-0.79
-1.73
-2.31
-2.62
-2.91
-3.40
-4.24
-5.40
-6.74
-8.13
-9.46
-10.74
-12.01
-13.22
-14.31
-15.11
-15.40
-14.99
-13.79
-11.85
-9.36
-6.59
-3.77
-1.11
1.26
3.30
4.96
6.18
6.89
7.06
6.78
6.24
5.67
5.23
4.98
4.87
4.79
4.63
4.32
3.87
3.29
2.66
2.06
1.57
1.23
1.04
0.91
0.72
0.44
0.06
-0.36
-0.77
-1.23
-1.86
-2.75
-3.91
-5.22
-6.51
-7.61
-8.50
-9.26
-10.12
-11.23
-12.67
-14.33
-15.96
-17.27
-17.93
-17.81
-16.88
-15.28
-13.19
-10.84
-8.37
-5.86
-3.42
-1.16
0.74
2.08
2.75
2.75
2.19
1.26
0.20
-0.81
-1.70
-2.52
-3.43
-4.58
-6.07
-7.81
-9.48
-10.61
-10.72
-9.42
-6.58
-2.42
2.52
7.43
11.40
13.67
13.78
11.77
8.20
3.91
-0.18
-3.40
-5.50
-6.61
-7.10
-7.41
-7.85
-8.61
-9.70
-10.94
-12.07
-12.74
-12.65
-11.65
-9.78
-7.25
-4.33
-1.26
1.88
5.03
8.15
11.13
13.75
15.79
17.11
17.74
17.81
17.48
16.87
16.03
14.99
13.79
12.57
11.54
10.95
10.94
11.48
12.30
13.04
13.35
13.08
12.37
11.55
11.05
11.08
11.61
12.37
13.02
13.41
13.58
13.76
14.22
15.12
16.40
17.82
19.15
20.31
21.58
23.32
26.00
30.12
36.03
43.94
53.85
65.56
78.71
92.90
107.42
121.60
134.94
147.17
158.03
167.07
173.35
175.45
171.81
160.59
141.03
114.19
83.01
51.60
23.82
2.15
-12.66
-21.14
-25.77
-28.68
-30.50
-30.10
-25.41
-14.84
1.90
23.70
48.79
72.62
90.65
99.61
98.18
86.61
65.80
36.76
0.82
-39.70
-85.17
-135.72
-190.35
-246.47
-300.78
-350.63
-394.64
-432.57
-448.79
-431.76
-378.37
-297.94
-206.81
-119.14
-42.29
22.26
72.06
112.42
143.77
164.27
172.01
166.96
151.12
127.07
98.76
69.26
41.57
14.82
-12.83
-43.26
-77.65
-116.52
-159.86
-206.24
-251.69
-288.48
-309.06
-307.04
-279.79
-229.82
-163.98
-91.37
-19.84
46.11
106.26
161.78
214.50
266.16
318.35
372.20
427.35
480.81
526.42
556.34
563.28
543.76
499.89
438.71
369.56
300.78
237.71
182.13
133.32
89.18
47.28
5.34
-38.58
-85.70
-136.34
-189.68
-244.20
-298.42
-351.23
-402.59
-453.58
-506.28
-562.80
-623.84
-686.91
-745.64
-790.73
-812.73
-805.74
-770.09
-712.61
-644.18
-575.84
-515.37
-465.81
-426.48
-394.98
-369.19
-347.93
-330.38
-315.17
-300.08
-282.51
-260.55
-233.78
-203.29
-171.27
-139.83
-110.15
-82.21
-54.92
-26.90
2.63
33.41
64.08
92.72
117.71
138.42
155.45
170.37
185.05
200.94
218.65
237.94
258.05
278.26
298.26
318.21
338.59
359.92
382.73
407.43
434.17
462.44
490.61
515.70
533.89
541.57
536.57
518.92
490.76
455.37
416.06
375.44
335.33
297.14
262.21
231.69
206.12
185.10
167.42
151.73
137.33
124.54
114.37
107.70
104.58
103.81
103.40
101.29
96.19
87.92
77.23
65.26
52.97
40.81
28.76
16.67
4.66
-6.72
-16.32
-22.55
-23.63
-18.25
-6.34
10.14
26.92
38.18
38.27
24.11
-3.05
-37.35
-70.04
-92.56
-99.68
-91.26
-72.07
-49.78
-32.08
-24.04
-26.50
-36.10
-46.61
-51.37
-45.80
-29.22
-5.19
19.70
38.26
45.39
39.83
24.38
4.57
-13.54
-25.35
-28.95
-25.24
-17.17
-8.39
-2.05
0.12
-1.91
-6.78
-12.40
-16.67
-18.02
-15.88
-10.74
-4.22
1.26
3.31
0.39
-7.18
-17.20
-26.20
-31.08
-30.74
-26.84
-23.25
-24.09
-31.67
-44.96
-59.88
-70.90
-73.25
-64.64
-45.74
-19.50
9.96
38.18
60.88
74.16
74.99
62.23
37.55
5.94
-25.07
-47.46
-55.40
-47.57
-28.05
-5.13
11.50
14.28
0.58
-26.37
-58.66
-86.62
-102.20
-101.43
-85.27
-58.63
-28.38
-1.28
17.54
25.10
20.63
5.53
-16.74
-41.17
-62.10
-74.89
-77.48
-71.16
-59.97
-48.89
-41.44
-38.24
-37.13
-34.57
-27.92
-17.12
-5.02
3.50
3.41
-8.40
-31.54
-61.61
-90.98
-111.01
-114.86
-99.98
-69.07
-29.16
11.11
44.42
66.98
78.79
82.32
80.64
76.05
69.80
62.63
55.59
50.13
47.66
48.72
52.43
56.65
58.93
57.67
53.05
47.28
43.45
43.72
47.75
52.19
51.80
41.93
20.98
-8.32
-39.58
-65.24
-79.48
-80.36
-70.09
-53.76
-37.22
-25.06
-19.63
-21.01
-27.59
-36.68
-44.89
-48.57
-44.35
-30.25
-6.59
23.37
54.01
78.96
93.24
94.99
85.61
68.68
48.24
27.50
8.57
-6.91
-17.24
-20.77
-16.77
-6.50
6.52
17.40
21.69
17.02
4.01
-14.02
-32.40
-46.58
-53.38
-51.53
-41.94
-27.45
-12.33
-1.34
1.57
-5.36
-20.84
-40.71
-59.28
-71.45
-74.52
-68.95
-57.58
-43.97
-30.86
-19.52
-10.24
-3.28
0.50
0.06
-4.80
-12.40
-19.37
-21.80
-17.21
-5.87
8.93
22.14
29.09
27.31
17.41
2.68
-12.45
-24.05
-30.09
-30.76
-28.18
-25.50
-25.63
-30.15
-38.39
-47.50
-53.25
-51.70
-40.91
-22.24
-0.33
18.56
28.98
28.80
20.10
8.32
-0.30
-1.40
5.81
18.65
32.85
44.63
52.30
56.27
58.14
59.27
60.09
60.21
59.15
56.89
53.72
49.87
45.05
38.55
29.78
18.96
7.33
-3.30
-11.42
-16.67
-19.96
-22.88
-26.78
-31.94
-37.30
-40.81
-40.42
-34.99
-25.07
-13.02
-2.41
3.00
0.58
-10.03
-26.40
-43.78
-56.52
-60.06
-52.62
-36.06
-15.26
3.67
15.68
18.63
13.96
5.94
-0.19
-0.30
7.06
20.22
35.05
46.68
51.27
47.40
36.60
22.58
9.86
2.08
0.89
5.64
14.02
23.04
30.14
33.79
33.64
30.36
25.54
21.28
19.71
22.25
28.77
37.14
43.64
44.16
35.92
19.00
-3.34
-25.84
-43.32
-53.16
-56.40
-57.19
-60.60
-69.99
-85.17
-102.36
-115.87
-120.34
-112.65
-92.33
-60.93
-20.98
24.34
71.06
114.03
147.37
165.79
166.48
150.46
122.52
89.74
59.00
35.08
19.66
11.90
9.67
10.51
12.23
12.78
10.15
2.70
-9.88
-26.01
-42.24
-54.34
-59.36
-57.13
-50.62
-44.63
-43.46
-48.68
-58.53
-68.94
-75.59
-76.18
-71.35
-64.20
-58.48
-56.71
-58.87
-62.66
-64.67
-61.88
-52.87
-37.75
-17.40
7.26
35.55
66.27
96.71
122.27
137.40
137.41
120.73
90.17
52.36
15.79
-12.00
-26.76
-28.52
-21.07
-10.40
-2.38
-0.64
-5.54
-14.33
-22.63
-26.47
-24.02
-16.20
-6.32
1.46
3.76
-0.76
-10.83
-23.03
-32.89
-36.56
-32.22
-21.06
-6.96
5.25
11.97
12.55
9.64
7.85
11.58
22.84
40.18
59.58
76.89
89.91
98.93
105.63
111.45
116.38
118.74
115.45
102.98
78.88
43.04
-1.79
-49.88
-92.79
-120.87
-126.21
-106.67
-68.08
-22.85
14.45
32.24
25.59
-3.00
-45.19
-87.57
-116.44
-124.73
-114.85
-94.26
-69.12
-41.98
-13.29
16.16
44.02
66.54
80.54
85.58
84.45
82.44
84.63
93.78
109.69
129.88
150.30
167.92
181.47
191.03
198.07
203.79
208.03
209.43
206.31
197.53
183.28
165.32
145.28
125.01
105.22
85.18
63.22
37.90
8.51
-25.15
-55.72
-79.29
-94.14
-100.93
-102.13
-101.11
-101.04
-104.46
-112.69
-125.10
-139.06
-148.34
-145.10
-123.53
-83.51
-32.12
18.45
55.97
73.13
69.79
52.92
31.93
13.86
0.98
-8.13
-15.70
-22.12
-26.66
-28.32
-27.04
-24.92
-25.96
-34.40
-52.51
-79.63
-112.37
-148.47
-185.86
-222.97
-259.08
-295.01
-332.63
-374.32
-421.93
-475.34
-535.10
-597.33
-653.63
-693.81
-711.09
-704.85
-681.30
-650.67
-622.51
-606.84
-606.59
-617.32
-630.27
-637.28
-632.62
-613.97
-581.13
-504.47
-374.22
-204.34
-27.22
125.88
237.93
307.52
345.04
362.70
368.59
363.61
349.44
330.85
315.93
303.40
294.26
288.26
283.95
280.04
272.41
258.95
240.46
219.96
200.37
184.35
172.42
163.43
155.87
146.42
133.23
116.74
99.28
83.43
71.88
65.59
63.93
65.51
67.81
69.18
69.71
71.25
76.51
88.58
109.16
138.17
173.91
213.31
253.07
290.76
325.25
356.69
386.61
417.26
451.57
492.47
541.44
596.95
653.66
703.35
737.37
749.85
739.90
711.65
672.36
628.79
584.71
540.39
494.30
445.03
392.33
337.21
280.91
224.47
167.97
111.40
55.74
4.00
-39.95
-73.10
-94.55
-105.85
-109.73
-110.24
-111.73
-117.82
-129.81
-147.15
-168.10
-189.80
-208.51
-219.67
-220.62
-212.00
-197.49
-181.32
-167.52
-159.01
-156.33
-162.89
-174.97
-183.90
-180.69
-167.78
-150.91
-134.41
-121.00
-111.66
-105.47
-99.46
-91.00
-79.05
-64.46
-48.91
-34.84
-25.07
-21.45
-23.88
-29.67
-35.52
-39.11
-39.74
-37.85
-34.85
-32.79
-33.59
-38.21
-45.49
-52.04
-52.54
-41.12
-14.51
25.97
73.37
117.16
147.07
157.24
147.96
124.92
96.06
66.26
38.77
16.29
2.20
-0.17
10.38
31.32
56.55
78.05
83.87
67.33
29.87
-20.05
-71.97
-118.51
-157.37
-190.26
-220.96
-261.14
-318.41
-392.75
-476.95
-561.17
-637.38
-700.39
-747.05
-775.73
-796.61
-818.34
-844.26
-872.15
-898.95
-924.50
-951.18
-981.65
-952.36
-830.45
-625.58
-385.24
-159.61
23.82
159.90
255.16
319.37
361.65
379.83
374.93
355.42
336.03
330.07
342.62
369.77
402.47
431.57
443.83
433.81
405.53
369.41
335.47
308.70
289.44
276.15
267.59
258.37
244.66
225.44
202.33
177.61
152.68
128.64
107.04
89.74
76.31
66.16
59.12
55.46
55.18
57.58
61.83
67.43
74.37
81.91
89.19
95.54
100.48
103.63
104.58
103.14
99.62
94.85
90.25
87.63
88.54
93.44
100.85
107.27
108.05
99.05
78.51
48.07
12.62
-21.25
-47.22
-60.93
-60.76
-47.70
-24.79
3.81
32.40
55.15
68.00
70.41
66.32
63.21
69.39
90.53
126.90
172.50
216.95
248.73
258.43
241.10
196.89
130.75
51.19
-31.32
-106.32
-165.28
-203.39
-220.40
-220.14
-208.67
-192.20
-175.55
-161.59
-151.60
-145.81
-143.68
-144.00
-144.71
-143.37
-138.01
-128.00
-114.32
-99.05
-84.33
-71.57
-61.23
-53.28
-47.87
-45.65
-47.45
-53.56
-63.12
-74.06
-83.64
-89.46
-90.17
-85.85
-77.51
-66.51
-53.92
-40.32
-26.01
-11.57
1.88
12.73
19.33
20.70
17.02
9.83
1.70
-4.56
-6.80
-4.25
2.35
11.18
20.17
27.80
33.45
37.21
39.35
39.95
38.90
36.35
32.92
29.61
27.13
25.11
22.01
15.76
5.19
-9.00
-24.05
-36.27
-42.67
-42.23
-36.19
-27.16
-17.93
-10.44
-5.58
-3.45
-3.82
-6.46
-11.17
-17.73
-25.87
-35.17
-44.86
-53.62
-59.51
-60.40
-54.68
-42.11
-24.26
-4.03
15.32
31.35
43.15
51.21
56.69
60.58
63.16
64.14
63.20
60.53
56.92
53.48
51.07
49.79
48.97
47.56
44.72
40.35
35.14
30.19
26.44
24.19
22.98
21.77
19.50
15.45
9.47
1.97
-6.30
-14.49
-21.89
-27.99
-32.56
-35.61
-37.37
-38.14
-38.27
-37.92
-37.06
-35.38
-32.33
-27.35
-20.11
-10.82
-0.31
10.08
19.01
25.54
29.47
31.29
31.91
32.22
32.83
34.04
35.91
38.42
41.53
45.09
48.85
52.38
55.10
56.37
55.62
52.48
46.90
39.30
30.52
21.64
13.76
7.62
3.52
1.35
0.86
1.89
4.48
8.75
14.76
22.32
31.03
40.32
49.62
58.32
65.77
71.25
74.19
74.54
73.05
71.25
70.96
73.53
79.19
86.90
94.69
100.49
102.95
102.02
98.89
95.56
94.04
95.56
100.17
106.78
113.60
118.82
121.15
119.92
114.83
105.57
91.71
72.99
49.74
23.28
-4.28
-30.50
-53.39
-71.80
-85.51
-94.97
-101.00
-104.54
-106.53
-107.84
-108.99
-110.10
-110.80
-110.43
-108.36
-104.32
-98.43
-91.15
-83.03
-74.60
-66.39
-58.96
-52.91
-48.68
-46.38
-45.70
-45.96
-46.39
-46.48
-46.23
-46.18
-47.20
-50.09
-55.27
-62.58
-71.23
-80.02
-87.57
-92.51
-93.79
-90.76
-83.36
-72.00
-57.52
-40.94
-23.28
-5.39
12.12
28.76
44.13
57.75
69.07
77.51
82.59
84.09
82.17
77.50
71.08
64.09
57.55
52.14
48.06
45.15
43.07
41.45
40.03
38.64
37.20
35.62
33.84
31.80
29.38
26.45
22.78
18.13
12.30
5.36
-2.35
-10.14
-17.01
-21.94
-24.13
-23.25
-19.58
-13.94
-7.49
-1.39
3.43
6.46
7.57
7.00
5.22
2.97
1.20
0.79
2.20
5.04
7.95
8.88
5.93
-1.68
-13.04
-25.60
-36.19
-42.23
-42.78
-38.66
-31.87
-24.50
-17.94
-12.57
-8.12
-4.27
-1.06
1.14
2.00
1.68
0.87
0.49
1.07
2.41
3.64
3.71
2.08
-0.98
-4.52
-7.46
-9.21
-9.95
-10.41
-11.52
-13.76
-17.09
-21.01
-24.94
-28.41
-31.15
-33.06
-34.07
-34.16
-33.42
-32.15
-30.76
-29.71
-29.30
-29.56
-30.31
-31.15
-31.70
-31.58
-30.56
-28.45
-25.17
-20.69
-15.14
-8.78
-2.02
4.68
10.97
16.60
21.53
25.83
29.48
32.40
34.37
35.22
34.94
33.86
32.50
31.43
31.03
31.29
31.85
32.15
31.74
30.38
28.13
25.27
22.14
19.11
16.43
14.33
12.92
12.24
12.15
12.41
12.64
12.51
11.76
10.26
8.09
5.36
2.32
-0.81
-3.72
-6.16
-7.85
-8.59
-8.28
-6.91
-4.64
-1.79
1.26
4.26
7.20
10.28
13.73
17.64
21.88
26.03
29.49
31.78
32.89
33.28
33.74
35.00
37.47
41.17
45.56
49.67
52.25
52.22
49.18
43.63
37.28
33.03
34.60
45.29
66.67
97.97
136.00
175.90
211.88
238.47
251.70
249.79
232.74
201.68
158.71
106.66
49.04
-10.90
-70.02
-125.46
-173.44
-207.58
-221.90
-214.08
-187.31
-148.44
-105.72
-65.76
-33.83
-9.86
7.45
19.21
26.03
27.81
24.35
14.50
-2.65
-27.32
-58.39
-94.35
-134.10
-177.15
-224.34
-271.16
-312.59
-344.49
-365.76
-378.37
-386.17
-392.08
-395.56
-393.12
-379.18
-349.94
-305.87
-252.82
-199.67
-155.19
-126.44
-111.39
-105.30
-102.76
-100.35
-97.05
-93.56
-90.25
-86.68
-81.57
-73.33
-61.74
-47.37
-31.44
-14.80
0.05
12.67
23.77
34.59
46.37
59.34
73.20
87.28
100.89
113.54
125.54
137.45
149.78
163.02
177.08
191.75
206.80
222.22
238.49
256.72
277.82
301.50
325.70
346.35
358.56
358.36
344.31
318.15
284.33
248.09
213.72
183.53
157.81
135.89
117.02
100.85
87.26
76.06
66.57
57.81
48.91
39.50
29.80
20.47
12.19
5.31
-0.22
-4.81
-8.97
-13.08
-17.24
-21.25
-24.77
-27.52
-29.44
-30.70
-31.68
-32.78
-34.25
-36.06
-37.97
-39.62
-40.72
-41.18
-41.11
-40.77
-40.37
-40.10
-40.04
-40.22
-40.58
-41.03
-41.35
-41.22
-40.30
-38.38
-35.48
-31.97
-28.33
-25.00
-22.14
-19.72
-17.47
-15.24
-13.03
-11.09
-9.71
-9.07
-9.14
-9.61
-10.13
-10.35
-10.12
-9.45
-8.53
-7.64
-7.04
-6.87
-7.18
-7.90
-8.90
-10.06
-11.31
-12.52
-13.59
-14.37
-14.75
-14.71
-14.40
-14.04
-13.89
-14.16
-14.90
-16.04
-17.44
-18.88
-20.15
-21.03
-21.30
-20.77
-19.36
-17.13
-14.31
-11.17
-7.98
-4.86
-1.83
1.16
4.15
7.03
9.58
11.54
12.71
13.08
12.82
12.24
11.64
11.21
10.93
10.67
10.19
9.31
7.97
6.28
4.47
2.78
1.38
0.27
-0.67
-1.58
-2.53
-3.44
-4.20
-4.72
-5.06
-5.45
-6.17
-7.37
-9.01
-10.80
-12.31
-13.15
-13.07
-12.06
-10.27
-7.88
-4.98
-1.51
2.69
7.85
14.02
20.93
27.98
34.40
39.53
43.15
45.66
47.98
51.15
55.91
62.23
69.30
75.86
80.78
83.64
85.05
86.49
89.74
96.09
105.77
117.75
130.16
141.19
149.88
156.76
163.59
172.63
185.63
203.38
225.26
249.31
272.38
290.29
298.37
292.40
270.27
233.42
187.05
138.60
94.98
59.90
33.03
11.41
-7.93
-25.55
-39.37
-46.41
-45.28
-37.88
-28.97
-24.10
-27.19
-39.43
-59.61
-85.88
-117.48
-155.17
-200.81
-256.34
-323.11
-400.91
-487.35
-577.09
-661.79
-731.48
-776.90
-792.53
-778.67
-741.18
-689.18
-631.44
-573.51
-516.78
-459.97
-401.35
-340.72
-279.76
-220.87
-165.69
-114.28
-65.31
-17.07
31.48
80.54
129.78
179.29
229.70
281.24
332.46
379.28
415.66
435.75
436.74
420.30
392.34
360.50
331.12
307.24
288.39
271.99
255.31
236.59
215.00
190.24
162.28
131.66
100.28
71.68
50.26
39.74
41.33
52.55
67.71
79.74
82.69
74.02
55.31
31.59
9.38
-5.54
-9.94
-3.75
10.21
27.11
41.58
49.02
47.13
36.87
22.84
12.11
11.81
26.08
53.70
87.65
116.90
130.10
119.70
85.02
32.70
-25.22
-75.19
-106.61
-114.88
-102.65
-78.38
-53.09
-36.51
-33.84
-44.38
-62.29
-79.04
-86.46
-79.62
-58.26
-26.69
7.74
37.09
55.28
59.64
51.23
33.95
12.87
-7.41
-23.86
-35.41
-42.47
-46.28
-48.09
-48.60
-47.73
-44.81
-39.20
-31.05
-21.83
-14.16
-10.84
-13.58
-21.85
-32.62
-41.41
-44.02
-38.58
-26.59
-12.58
-2.31
-0.19
-7.35
-21.08
-36.11
-46.82
-49.68
-44.31
-32.96
-18.88
-4.39
9.97
24.91
41.10
57.79
72.33
80.86
79.86
67.61
45.33
17.02
-11.45
-34.05
-46.41
-47.13
-38.27
-24.81
-13.15
-9.13
-16.05
-33.38
-56.82
-79.77
-95.54
-99.53
-90.47
-70.36
-43.07
-12.94
16.51
42.56
62.76
74.42
75.01
63.39
41.26
13.64
-12.37
-29.86
-34.68
-26.79
-9.88
10.46
28.81
41.49
46.85
44.57
35.07
19.32
-0.81
-22.43
-41.80
-55.02
-58.95
-51.78
-33.17
-4.31
32.11
71.74
108.58
135.54
145.86
135.13
103.13
54.66
-1.10
-53.03
-91.30
-110.44
-110.73
-97.71
-79.75
-64.95
-58.28
-60.15
-66.97
-72.90
-71.95
-59.63
-33.89
4.50
51.82
101.32
144.02
170.53
173.56
150.35
104.10
42.93
-22.57
-82.59
-130.79
-165.14
-187.03
-199.03
-203.05
-199.36
-187.08
-165.38
-134.70
-97.52
-58.07
-21.36
8.21
27.86
36.78
35.85
27.42
15.14
3.96
-0.46
6.68
27.19
57.99
91.29
116.85
125.98
115.10
87.01
49.58
12.41
-16.48
-32.44
-34.34
-23.66
-3.84
19.84
40.28
49.57
41.32
13.58
-29.26
-77.16
-117.59
-139.97
-139.53
-118.74
-85.99
-52.23
-27.19
-16.42
-20.27
-34.64
-52.85
-68.02
-75.26
-73.01
-63.33
-51.07
-42.16
-41.49
-51.18
-69.73
-91.98
-110.35
-116.89
-105.90
-76.43
-33.25
14.23
55.21
81.55
90.62
85.74
73.72
61.25
52.22
47.23
45.23
45.67
49.55
58.26
71.62
86.25
95.89
93.74
75.72
42.81
1.30
-38.93
-67.73
-77.83
-66.86
-37.70
2.48
44.39
78.90
99.15
101.99
88.52
63.58
34.42
8.46
-8.75
-15.20
-12.86
-6.89
-3.54
-7.79
-21.09
-40.60
-59.97
-71.62
-69.80
-53.04
-25.08
6.40
32.64
47.25
48.59
40.23
29.02
21.82
22.37
29.67
38.85
43.80
40.53
29.21
14.12
1.61
-2.91
2.89
17.67
37.44
57.22
72.48
79.75
76.70
62.36
37.56
5.56
-27.97
-56.01
-72.34
-73.74
-61.42
-40.71
-19.27
-4.46
-1.12
-10.37
-29.64
-53.70
-76.28
-91.63
-95.99
-88.53
-71.57
-49.80
-28.66
-12.38
-2.54
2.12
4.77
8.79
16.27
27.43
40.96
55.02
68.18
79.67
89.22
96.43
100.45
100.08
94.19
82.64
66.91
50.20
36.89
31.15
35.32
48.52
66.21
81.23
86.07
75.78
50.31
15.08
-20.70
-47.30
-58.23
-52.37
-33.98
-10.51
10.29
22.89
24.97
17.19
2.47
-14.70
-28.65
-33.54
-25.29
-3.67
26.62
57.34
79.95
89.47
86.62
76.86
66.98
61.45
60.47
60.83
58.61
51.96
42.09
32.25
25.66
23.58
24.88
27.01
27.43
24.84
19.36
12.10
4.19
-3.87
-12.39
-21.92
-32.52
-43.16
-51.81
-56.19
-54.88
-48.13
-38.06
-28.02
-21.20
-19.55
-23.11
-30.27
-38.66
-46.19
-51.84
-55.65
-58.29
-60.25
-61.52
-61.56
-59.68
-55.54
-49.23
-41.34
-32.63
-23.81
-15.49
-8.14
-2.09
2.57
6.06
8.80
11.21
13.50
15.59
17.32
18.71
20.13
22.19
25.24
29.14
33.00
35.72
36.49
35.37
33.41
32.21
33.18
36.73
41.85
46.42
48.09
45.23
37.83
27.61
17.63
11.25
11.01
17.49
28.83
40.69
47.23
42.71
23.51
-9.94
-52.36
-94.44
-125.49
-137.08
-126.28
-97.09
-59.34
-25.16
-4.66
-2.43
-16.38
-39.20
-61.56
-75.60
-77.09
-66.00
-45.44
-20.27
4.15
22.78
31.60
28.48
14.06
-7.71
-30.34
-46.61
-51.16
-42.41
-22.85
2.38
27.92
50.30
68.78
84.73
100.06
115.77
131.16
143.81
150.18
146.72
131.15
103.85
68.68
32.55
3.71
-11.04
-8.96
7.14
29.51
47.91
53.21
40.51
10.75
-29.57
-70.59
-102.10
-116.84
-112.67
-93.08
-66.02
-41.05
-26.38
-26.18
-39.41
-60.42
-81.10
-93.99
-94.99
-84.65
-67.53
-50.28
-38.43
-33.93
-34.38
-34.33
-28.19
-13.00
10.26
37.63
63.43
82.80
93.14
94.45
88.67
78.67
67.49
57.81
51.46
47.37
41.28
26.62
-3.15
-51.69
-118.11
-196.83
-279.50
-350.56
-394.68
-401.37
-369.26
-306.25
-225.24
-139.04
-57.38
13.32
69.59
109.54
133.27
142.97
143.00
138.73
134.58
132.93
133.37
133.59
130.88
121.81
103.95
77.14
43.03
3.54
-39.27
-84.65
-132.97
-185.62
-244.18
-309.64
-379.81
-448.81
-507.80
-545.52
-553.17
-527.52
-472.23
-391.27
-295.26
-195.14
-98.89
-10.53
71.48
149.29
223.36
292.12
352.98
403.56
444.04
476.46
503.35
530.13
560.49
595.33
633.24
671.27
705.76
734.22
755.11
746.08
694.05
597.31
467.05
322.21
180.68
53.65
-53.93
-141.43
-210.47
-260.02
-289.12
-300.50
-297.77
-284.76
-265.02
-241.21
-215.66
-191.21
-168.72
-149.59
-135.48
-128.43
-128.63
-134.20
-141.92
-148.88
-153.67
-154.84
-152.14
-146.06
-137.17
-126.15
-113.91
-101.66
-90.76
-82.31
-75.88
-70.32
-64.25
-56.54
-46.88
-35.93
-25.04
-15.68
-8.95
-4.87
-2.78
-1.75
-0.91
0.26
1.88
3.87
6.02
8.21
10.34
12.36
14.23
15.99
17.76
19.69
21.88
24.21
26.40
28.01
28.64
28.13
26.54
24.12
21.14
17.72
13.81
9.34
4.33
-1.08
-6.68
-12.40
-18.27
-24.43
-30.83
-37.18
-42.92
-47.48
-50.47
-51.74
-51.42
-49.72
-46.82
-42.91
-38.25
-33.10
-27.79
-22.60
-17.69
-13.16
-9.03
-5.36
-2.24
0.30
2.30
3.81
4.92
5.58
5.73
5.35
4.58
3.70
3.07
2.98
3.50
4.59
6.10
7.89
9.77
11.47
12.52
12.39
10.65
7.24
2.67
-2.17
-6.29
-9.01
-10.30
-10.74
-11.27
-12.76
-15.66
-19.74
-24.22
-28.10
-30.43
-30.67
-28.73
-24.91
-19.71
-13.65
-7.25
-0.93
4.87
9.78
13.55
16.11
17.64
18.52
19.15
19.85
20.76
21.84
22.92
23.76
24.15
24.01
23.37
22.42
21.43
20.70
20.40
20.50
20.77
20.93
20.70
19.94
18.63
16.81
14.54
11.85
8.82
5.62
2.56
-0.01
-1.75
-2.51
-2.33
-1.49
-0.32
0.89
2.00
3.10
4.40
6.10
8.30
10.93
13.71
16.28
18.24
19.30
19.36
18.58
17.31
16.03
15.12
14.76
14.87
15.20
15.50
15.63
15.63
15.61
15.62
15.66
15.67
15.56
15.35
15.11
14.92
14.79
14.70
14.57
14.41
14.20
13.91
13.34
12.11
9.78
6.08
1.12
-4.51
-9.86
-13.86
-15.77
-15.35
-12.97
-9.40
-5.56
-2.15
0.36
1.86
2.43
2.32
1.82
1.23
0.86
0.92
1.50
2.49
3.64
4.64
5.23
5.30
4.86
4.03
2.95
1.79
0.72
-0.11
-0.64
-0.93
-1.19
-1.67
-2.60
-3.98
-5.59
-7.08
-8.10
-8.55
-8.61
-8.63
-9.01
-9.97
-11.51
-13.36
-15.18
-16.57
-17.23
-17.01
-15.87
-13.94
-11.39
-8.45
-5.31
-2.11
1.12
4.36
7.65
10.98
14.29
17.40
20.13
22.30
23.83
24.76
25.21
25.35
25.35
25.32
25.28
25.22
25.05
24.68
24.06
23.12
21.92
20.53
19.09
17.68
16.31
14.94
13.51
12.00
10.44
8.93
7.52
6.25
5.03
3.79
2.43
0.92
-0.73
-2.44
-4.06
-5.47
-6.56
-7.23
-7.42
-7.12
-6.30
-4.97
-3.14
-0.89
1.64
4.24
6.77
9.12
11.25
13.22
15.10
16.90
18.53
19.80
20.47
20.36
19.43
17.83
15.90
14.02
12.49
11.43
10.77
10.32
9.84
9.07
7.83
6.02
3.68
1.00
-1.69
-4.02
-5.73
-6.74
-7.25
-7.59
-8.15
-9.17
-10.74
-12.74
-14.96
-17.11
-18.87
-19.95
-20.22
-19.65
-18.41
-16.77
-15.01
-13.27
-11.51
-9.58
-7.27
-4.50
-1.36
1.87
4.86
7.34
9.15
10.28
10.78
10.71
10.12
9.09
7.78
6.45
5.41
4.88
4.83
4.99
5.01
4.61
3.75
2.67
1.66
0.97
0.62
0.44
0.23
-0.10
-0.47
-0.81
-1.08
-1.51
-2.40
-3.99
-6.29
-8.97
-11.49
-13.33
-14.13
-13.85
-12.69
-10.91
-8.78
-6.43
-3.90
-1.21
1.56
4.28
6.76
8.82
10.30
11.10
11.23
10.81
10.04
9.12
8.24
7.50
6.87
6.28
5.66
5.01
4.34
3.69
3.05
2.38
1.60
0.65
-0.43
-1.63
-2.87
-4.07
-5.18
-6.16
-6.95
-7.55
-8.00
-8.37
-8.74
-9.21
-9.79
-10.48
-11.18
-11.79
-12.15
-12.15
-11.71
-10.89
-9.78
-8.50
-7.14
-5.70
-4.15
-2.49
-0.84
0.66
1.83
2.56
2.91
3.01
2.97
2.84
2.58
2.13
1.45
0.60
-0.36
-1.37
-2.48
-3.78
-5.27
-6.79
-7.99
-8.44
-7.83
-6.09
-3.48
-0.53
2.16
4.11
5.11
5.20
4.62
3.67
2.59
1.52
0.45
-0.69
-1.97
-3.43
-5.03
-6.65
-8.13
-9.33
-10.12
-10.43
-10.23
-9.52
-8.33
-6.76
-4.94
-3.00
-1.10
0.65
2.17
3.42
4.35
4.90
5.07
4.92
4.59
4.29
4.16
4.32
4.75
5.37
6.07
6.73
7.21
7.40
7.20
6.64
5.83
4.99
4.33
3.96
3.81
3.71
3.47
2.96
2.19
1.14
-0.19
-1.85
-3.84
-6.11
-8.45
-10.60
-12.34
-13.52
-14.11
-14.15
-13.70
-12.77
-11.42
-9.68
-7.64
-5.41
-3.07
-0.71
1.59
3.71
5.50
6.82
7.56
7.71
7.37
6.70
5.86
4.98
4.11
3.28
2.51
1.90
1.53
1.42
1.54
1.73
1.84
1.74
1.45
1.06
0.69
0.36
-0.06
-0.73
-1.75
-3.07
-4.43
-5.52
-6.09
-6.16
-5.97
-5.89
-6.24
-7.11
-8.40
-9.80
-11.04
-11.86
-12.16
-11.88
-11.00
-9.58
-7.69
-5.50
-3.20
-0.96
1.10
2.91
4.47
5.78
6.82
7.56
8.00
8.13
8.02
7.75
7.42
7.10
6.79
6.48
6.13
5.72
5.27
4.85
4.51
4.29
4.13
3.94
3.61
3.08
2.37
1.60
0.89
0.33
-0.03
-0.26
-0.50
-0.88
-1.48
-2.35
-3.43
-4.68
-6.07
-7.62
-9.33
-11.13
-12.87
-14.32
-15.29
-15.63
-15.33
-14.46
-13.10
-11.29
-9.10
-6.63
-4.01
-1.44
0.92
2.97
4.73
6.25
7.58
8.72
9.60
10.20
10.54
10.73
10.93
11.30
11.94
12.89
14.10
15.40
16.55
17.23
17.21
16.38
14.85
13.01
11.49
11.01
12.11
14.89
18.90
23.15
26.46
27.81
26.68
23.15
17.86
11.68
5.46
-0.15
-4.70
-8.03
-10.32
-12.05
-13.92
-16.47
-19.77
-23.19
-25.68
-26.24
-24.49
-20.97
-16.85
-13.41
-11.40
-10.81
-10.95
-11.02
-10.45
-9.11
-7.25
-5.28
-3.67
-2.87
-3.33
-5.39
-9.17
-14.33
-19.96
-24.74
-27.29
-26.70
-22.93
-16.93
-10.39
-5.24
-2.93
-3.98
-7.81
-12.95
-17.74
-20.82
-21.61
-20.36
-17.87
-15.12
-12.81
-11.27
-10.44
-10.10
-10.09
-10.41
-11.16
-12.36
-13.80
-15.05
-15.46
-14.49
-11.82
-7.58
-2.35
3.01
7.54
10.52
11.53
10.68
8.46
5.61
3.04
1.60
1.95
4.41
8.77
14.23
19.54
23.47
25.27
25.06
23.73
22.46
21.93
21.86
21.05
18.02
11.94
3.24
-6.40
-14.82
-20.37
-22.72
-22.82
-22.28
-22.42
-23.56
-25.07
-25.83
-25.03
-22.64
-19.43
-16.48
-14.73
-14.55
-15.66
-17.39
-18.84
-19.25
-18.07
-15.22
-10.99
-6.03
-1.07
3.37
7.13
10.41
13.44
16.31
18.84
20.71
21.70
21.94
21.90
22.11
22.94
24.31
25.80
26.80
26.84
25.84
24.07
22.11
20.53
19.76
19.85
20.51
21.12
20.96
19.36
15.89
10.62
4.12
-2.53
-8.03
-11.26
-11.73
-9.83
-6.81
-4.32
-3.72
-5.60
-9.45
-13.95
-17.44
-18.51
-16.32
-10.77
-2.38
7.82
18.38
27.62
34.02
36.69
35.79
32.59
29.02
27.02
27.74
31.21
36.40
41.76
45.89
48.08
48.46
47.80
47.09
47.13
48.27
50.40
52.93
55.00
55.59
53.75
48.86
40.86
30.40
18.83
7.81
-1.12
-7.08
-10.08
-10.98
-11.06
-11.51
-13.02
-15.59
-18.66
-21.37
-22.93
-22.84
-21.05
-17.91
-14.06
-10.26
-7.27
-5.73
-6.10
-8.55
-12.87
-18.44
-24.30
-29.28
-32.35
-32.91
-30.94
-27.05
-22.19
-17.31
-13.05
-9.61
-6.82
-4.48
-2.71
-2.12
-3.80
-8.94
-18.23
-31.51
-47.57
-64.43
-79.80
-91.61
-98.40
-99.52
-95.10
-85.86
-72.90
-57.38
-40.38
-22.75
-5.19
11.57
26.69
39.23
48.40
53.84
55.82
55.21
53.11
50.52
48.03
45.87
43.89
41.75
38.94
34.88
29.09
21.42
12.36
3.06
-4.81
-9.77
-11.02
-8.95
-5.11
-1.61
-0.43
-2.71
-8.44
-16.53
-25.21
-32.57
-36.96
-37.48
-34.07
-27.47
-19.10
-10.56
-3.23
2.19
5.78
8.32
10.75
13.85
18.08
23.59
30.49
38.83
48.39
58.32
67.11
72.73
73.58
69.20
60.69
50.38
40.84
33.79
29.47
26.74
23.93
19.78
14.16
7.95
2.37
-1.91
-5.22
-8.67
-13.42
-19.92
-27.51
-34.72
-40.09
-42.81
-43.08
-41.82
-40.15
-38.84
-38.19
-38.09
-38.36
-38.91
-39.78
-41.10
-42.93
-45.16
-47.50
-49.38
-50.14
-49.29
-46.74
-42.97
-38.91
-35.56
-33.54
-32.87
-33.12
-33.79
-34.65
-35.90
-37.94
-41.01
-44.89
-48.86
-51.99
-53.51
-53.16
-51.19
-48.23
-44.88
-41.55
-38.38
-35.36
-32.53
-30.06
-28.17
-27.00
-26.48
-26.25
-25.89
-25.01
-23.48
-21.44
-19.09
-16.65
-14.25
-11.96
-9.83
-7.89
-6.14
-4.44
-2.54
-0.07
3.40
8.26
14.77
22.92
32.35
42.35
52.00
60.44
67.27
72.60
77.01
81.21
85.54
89.69
92.73
93.50
91.17
85.73
78.17
70.23
63.79
60.14
59.51
60.87
62.40
62.16
59.02
52.96
45.17
37.42
31.28
27.52
25.98
25.89
26.61
28.11
31.11
36.65
45.34
56.52
68.11
77.15
80.64
76.50
64.15
44.43
19.15
-9.19
-37.28
-60.90
-75.34
-76.79
-64.24
-40.68
-12.49
13.18
31.64
42.82
50.72
60.43
74.66
91.73
106.30
112.32
106.35
89.29
65.70
41.59
21.82
8.59
1.68
-0.59
-0.22
1.47
3.89
6.74
9.08
9.22
5.09
-4.27
-17.54
-30.83
-38.97
-38.00
-27.29
-10.07
8.65
25.04
39.31
55.89
80.72
117.63
165.44
218.52
268.44
307.59
330.60
335.74
324.09
297.85
259.86
213.62
164.42
117.49
77.31
43.81
13.71
-18.08
-56.36
-102.62
-154.42
-204.87
-248.10
-280.08
-302.95
-321.18
-339.07
-359.09
-380.26
-399.47
-411.20
-413.96
-408.47
-401.20
-399.25
-408.18
-431.53
-468.98
-517.99
-572.47
-630.51
-664.05
-653.13
-589.44
-481.64
-352.45
-225.34
-136.43
-84.66
-60.06
-50.44
-48.59
-49.38
-40.53
-16.71
23.11
74.87
133.17
186.71
224.58
236.63
218.82
173.29
105.57
23.90
-63.42
-146.34
-217.72
-270.62
-300.53
-305.46
-287.83
-255.40
-217.74
-183.26
-154.97
-133.07
-115.11
-99.02
-84.41
-72.55
-65.74
-64.66
-67.80
-71.19
-71.41
-66.12
-54.94
-39.19
-21.04
-2.69
14.91
31.93
49.66
69.11
90.55
113.51
136.99
159.89
181.17
199.84
214.74
224.57
228.43
226.61
221.09
215.14
212.23
214.56
222.19
233.28
245.22
255.92
264.52
271.47
277.71
284.09
291.30
300.09
311.47
326.44
345.08
365.66
384.82
398.13
401.94
394.84
378.04
354.67
328.16
301.01
274.35
248.53
224.09
202.36
185.28
174.15
168.82
167.53
167.86
167.95
167.34
166.65
167.11
170.02
175.53
182.57
189.17
193.21
192.86
186.90
174.41
155.44
132.04
106.67
81.62
58.07
35.70
13.23
-10.57
-36.59
-63.61
-87.30
-103.42
-109.48
-105.88
-95.65
-82.81
-70.85
-62.80
-58.96
-55.56
-47.96
-31.61
-3.30
38.05
91.33
153.23
217.52
261.63
267.76
227.12
144.93
37.44
-76.64
-183.32
-268.17
-333.37
-381.63
-411.18
-419.68
-407.04
-377.47
-340.14
-305.28
-280.95
-271.66
-275.20
-283.58
-288.15
-282.09
-261.75
-226.35
-176.80
-115.37
-46.90
23.02
88.84
145.03
187.52
214.51
226.21
224.32
211.12
188.57
159.44
127.44
96.05
67.66
42.94
20.80
-0.77
-23.54
-48.64
-75.52
-102.31
-126.77
-146.95
-161.80
-171.33
-176.23
-177.44
-175.69
-171.07
-163.29
-152.17
-138.08
-122.11
-105.87
-91.01
-78.75
-69.51
-62.96
-58.26
-54.49
-51.07
-48.03
-46.05
-46.36
-50.30
-58.77
-71.56
-86.94
-101.75
-112.06
-114.38
-106.90
-90.26
-67.45
-42.67
-19.73
-0.80
14.03
26.16
37.37
48.80
60.37
70.83
78.11
79.94
74.54
61.41
42.12
20.55
2.25
-7.10
-3.71
12.86
39.46
70.55
100.19
123.86
139.21
145.89
144.63
136.63
123.23
105.97
86.79
67.79
50.94
37.50
27.66
20.51
14.41
7.62
-1.09
-11.82
-23.57
-34.62
-43.26
-48.62
-51.08
-52.16
-53.81
-57.64
-64.17
-72.69
-81.60
-89.15
-94.12
-96.17
-95.80
-93.82
-90.93
-87.38
-83.03
-77.63
-70.99
-63.13
-54.14
-44.06
-32.89
-20.71
-7.91
4.76
16.39
26.23
33.96
39.75
44.10
47.39
49.73
50.99
50.97
49.66
47.39
44.68
42.03
39.65
37.50
35.33
32.95
30.32
27.61
25.09
22.97
21.40
20.46
20.18
20.49
21.16
21.73
21.57
20.11
17.02
12.41
6.79
0.96
-4.17
-7.76
-9.16
-8.03
-4.47
0.97
7.37
13.82
19.77
25.19
30.64
36.91
44.62
53.93
64.47
75.50
86.19
95.95
104.55
112.19
119.45
127.11
135.84
146.00
