1.587326219000000000e+09
-2.999999999999999889e-02
5.059999999999999609e+00
1.791000000000000014e+01
7.934000000000000341e+01
2.282500000000000000e+02
-4.865000000000000000e+02
-5.900000000000000355e+00
1.561500000000000057e+02
4.678000000000000114e+01
4.389999999999999680e+00
2.419999999999999929e+00
1.016999999999999993e+01
3.689000000000000057e+01
-1.091999999999999993e+01
-7.904000000000000625e+01
1.460999999999999943e+01
-2.510000000000000142e+01
2.821999999999999886e+01
1.012300000000000040e+02
1.753100000000000023e+02
2.125500000000000114e+02
-1.768799999999999955e+02
-3.789800000000000182e+02
5.618999999999999773e+01
9.787999999999999545e+01
-5.043999999999999773e+01
-2.544999999999999929e+01
-2.780999999999999872e+01
9.965000000000000568e+01
4.918999999999999773e+01
-2.442400000000000091e+02
2.088400000000000034e+02
1.591500000000000057e+02
-6.710999999999999943e+01
-8.679000000000000625e+01
-2.459999999999999964e+00
1.905000000000000071e+01
2.512999999999999901e+01
-3.035000000000000142e+01
9.160000000000000142e+00
-3.950000000000000178e+00
-4.131000000000000227e+01
3.107999999999999829e+01
-3.400000000000000244e-01
-4.799000000000000199e+01
2.635999999999999943e+01
1.575000000000000000e+01
7.500000000000000000e+01
3.192400000000000091e+02
1.272099999999999937e+02
1.518499999999999943e+02
-3.203700000000000045e+02
-6.033700000000000045e+02
-3.636700000000000159e+02
-6.720000000000000284e+01
5.786999999999999744e+01
1.518100000000000023e+02
2.933199999999999932e+02
-1.992999999999999972e+01
1.229399999999999977e+02
9.985999999999999943e+01
1.721999999999999886e+01
2.281800000000000068e+02
-2.734599999999999795e+02
-1.777400000000000091e+02
1.256800000000000068e+02
3.281000000000000227e+01
-1.210999999999999943e+02
4.490000000000000213e+00
5.771999999999999886e+01
1.325000000000000000e+02
-3.487300000000000182e+02
-1.597100000000000080e+02
3.998100000000000023e+02
1.888100000000000023e+02
-2.145300000000000011e+02
1.837100000000000080e+02
-4.540799999999999841e+02
1.964499999999999886e+02
8.928300000000000409e+02
-3.072099999999999795e+02
-4.581999999999999886e+02
-7.222300000000000182e+02
2.740000000000000213e+00
8.575000000000000000e+01
2.398199999999999932e+02
4.339399999999999977e+02
7.437000000000000455e+01
-2.469399999999999977e+02
-6.451000000000000512e+01
1.083400000000000034e+02
1.598000000000000114e+02
4.011999999999999744e+01
-1.726999999999999957e+01
-1.969699999999999989e+02
-1.841500000000000057e+02
1.744999999999999929e+01
1.455200000000000102e+02
-2.999999999999999889e-01
1.744999999999999929e+01
-7.400000000000000355e+00
-1.734699999999999989e+02
9.420999999999999375e+01
2.121000000000000085e+01
7.187000000000000455e+01
-5.490000000000000213e+00
-4.443999999999999773e+01
4.131000000000000227e+01
-1.864000000000000057e+01
-9.710000000000000853e+00
8.006999999999999318e+01
2.887000000000000099e+01
3.419999999999999929e+00
3.485999999999999943e+01
2.326000000000000156e+01
-5.360000000000000142e+01
-1.923000000000000043e+01
-3.864000000000000057e+01
7.459000000000000341e+01
1.277999999999999972e+02
1.381599999999999966e+02
-1.712500000000000000e+02
-2.753999999999999915e+01
1.385999999999999943e+02
-1.744999999999999929e+01
2.660999999999999943e+01
1.212900000000000063e+02
-3.649200000000000159e+02
-3.818899999999999864e+02
2.301599999999999966e+02
4.884000000000000341e+01
-1.300000000000000000e+01
2.157999999999999829e+01
1.334999999999999964e+01
-7.199999999999999734e-01
-2.291000000000000014e+01
-1.558999999999999986e+01
-3.439999999999999947e+00
1.199999999999999956e+00
3.889000000000000057e+01
2.019999999999999929e+01
-3.600000000000000089e+00
-5.988000000000000256e+01
2.958999999999999986e+01
1.376999999999999957e+01
-5.959999999999999964e+00
3.150000000000000000e+01
5.809999999999999609e+00
1.712999999999999901e+01
2.632000000000000028e+01
7.059999999999999609e+00
1.338799999999999955e+02
3.018100000000000023e+02
-3.232599999999999909e+02
-1.005699999999999932e+02
-1.109800000000000040e+02
-3.419999999999999929e+00
5.853000000000000114e+01
2.639000000000000057e+01
8.439999999999999503e+00
-8.380000000000000782e+00
-2.233999999999999986e+01
-1.331000000000000050e+01
-1.378999999999999915e+01
-1.315000000000000036e+01
-8.580000000000000071e+00
-1.534999999999999964e+01
1.775000000000000000e+01
9.054999999999999716e+01
1.566000000000000014e+01
-5.032999999999999829e+01
-6.690000000000000568e+01
-1.421000000000000085e+01
-7.709999999999999964e+00
3.379999999999999893e+00
-6.879999999999999893e+00
2.560000000000000053e+00
3.020000000000000018e+00
-1.658999999999999986e+01
1.308999999999999986e+01
1.196000000000000085e+01
-3.390000000000000124e+00
6.660999999999999943e+01
1.878700000000000045e+02
-1.245799999999999983e+02
-3.385999999999999943e+01
4.830000000000000071e+00
1.010000000000000009e+00
-5.969999999999999751e+00
2.148000000000000043e+01
4.746999999999999886e+01
-4.171000000000000085e+01
-5.203000000000000114e+01
6.995000000000000284e+01
6.985999999999999943e+01
-2.450000000000000178e+00
-2.203799999999999955e+02
-2.765000000000000000e+02
3.477599999999999909e+02
9.290000000000000568e+01
-5.269999999999999574e+00
8.903000000000000114e+01
1.824199999999999875e+02
-6.883999999999999773e+02
5.960000000000000142e+01
-1.023700000000000045e+02
7.281399999999999864e+02
-4.289999999999999858e+01
-1.300900000000000034e+02
2.021000000000000085e+01
5.707000000000000028e+01
1.113000000000000078e+01
-1.311299999999999955e+02
-7.834000000000000341e+01
1.511800000000000068e+02
-1.083400000000000034e+02
-3.260000000000000142e+01
9.995999999999999375e+01
1.671899999999999977e+02
2.267800000000000011e+02
-4.814999999999999858e+01
-4.239499999999999886e+02
3.275699999999999932e+02
-3.302000000000000313e+01
-8.549800000000000182e+02
4.632200000000000273e+02
6.213799999999999955e+02
2.651700000000000159e+02
1.368199999999999932e+02
-3.176000000000000156e+01
1.659199999999999875e+02
-2.248300000000000125e+02
1.785200000000000102e+02
-1.741500000000000057e+02
-4.759000000000000341e+01
1.693799999999999955e+02
4.771999999999999886e+01
5.164999999999999858e+01
-6.149000000000000199e+01
-2.613299999999999841e+02
-1.039000000000000057e+01
3.177099999999999795e+02
9.657999999999999829e+01
6.134000000000000341e+01
-1.319999999999999929e+01
-1.225000000000000000e+01
-1.355000000000000071e+01
4.370000000000000000e+02
3.645000000000000284e+01
-3.390899999999999750e+02
-5.406100000000000136e+02
-2.051699999999999875e+02
5.110999999999999943e+01
4.367300000000000182e+02
5.207000000000000028e+01
-3.099999999999999978e-01
2.052899999999999920e+02
-4.375199999999999818e+02
7.751000000000000512e+01
5.832000000000000028e+01
2.112000000000000099e+01
5.628999999999999915e+01
2.257199999999999989e+02
-4.597699999999999818e+02
-1.120900000000000034e+02
1.296699999999999875e+02
6.782999999999999829e+01
-2.790199999999999818e+02
1.232000000000000028e+01
-1.841999999999999886e+02
3.328700000000000045e+02
1.490200000000000102e+02
-2.951000000000000156e+01
3.745000000000000284e+01
-1.620099999999999909e+02
-1.511999999999999922e+01
3.799000000000000199e+01
-6.712000000000000455e+01
-1.518999999999999950e+01
1.762000000000000099e+01
-3.270000000000000018e+00
6.364999999999999858e+01
3.021999999999999886e+01
-4.615999999999999659e+01
3.611999999999999744e+01
2.066000000000000014e+01
-3.135999999999999943e+01
2.892000000000000171e+01
1.244999999999999929e+01
-8.100000000000000533e-01
6.193999999999999773e+01
4.078000000000000114e+01
1.341999999999999993e+01
-2.707999999999999829e+01
1.500000000000000000e+02
1.403000000000000114e+02
-2.533100000000000023e+02
-8.739900000000000091e+02
-7.584000000000000341e+01
1.012199999999999989e+02
5.630700000000000500e+02
1.918300000000000125e+02
4.035999999999999943e+01
-1.484199999999999875e+02
-2.855799999999999841e+02
8.026999999999999602e+01
1.102999999999999972e+02
5.817000000000000171e+01
2.430999999999999872e+01
-2.036399999999999864e+02
6.106000000000000227e+01
-1.657000000000000028e+01
-4.214999999999999858e+01
-1.075999999999999979e+01
7.309000000000000341e+01
-1.052399999999999949e+02
-3.504999999999999716e+01
-5.831000000000000227e+01
5.559000000000000341e+01
5.000000000000000278e-02
-1.548000000000000043e+01
3.764000000000000057e+01
1.489999999999999991e+00
3.575999999999999801e+01
5.717999999999999972e+01
-2.479999999999999982e+00
2.239000000000000057e+01
3.214999999999999858e+01
-1.366000000000000014e+01
1.998000000000000043e+01
9.910000000000000142e+00
-2.421999999999999886e+01
1.193999999999999950e+01
-4.719999999999999751e+00
-1.982000000000000028e+01
8.060000000000000497e+00
-6.360000000000000320e+00
-1.241999999999999993e+01
9.449999999999999289e+00
-9.800000000000000711e+00
-1.929999999999999938e+00
7.320000000000000284e+00
-1.353999999999999915e+01
5.540000000000000036e+00
5.129999999999999893e+00
-1.481000000000000050e+01
9.539999999999999147e+00
5.610000000000000320e+00
-4.309999999999999609e+00
8.857999999999999829e+01
2.915199999999999818e+02
-5.653000000000000114e+01
-4.379999999999999716e+01
-4.524800000000000182e+02
2.240399999999999920e+02
-1.745500000000000114e+02
2.105200000000000102e+02
3.583500000000000227e+02
1.583600000000000136e+02
-6.207999999999999829e+01
-4.216899999999999977e+02
2.287899999999999920e+02
-1.674699999999999989e+02
-5.263500000000000227e+02
9.810999999999999943e+01
2.626399999999999864e+02
5.866399999999999864e+02
1.608600000000000136e+02
-3.918299999999999841e+02
8.468000000000000682e+01
-8.118999999999999773e+01
-4.854999999999999716e+01
-1.051700000000000017e+02
1.597899999999999920e+02
4.984000000000000341e+01
-3.317999999999999972e+01
-2.129999999999999893e+00
2.172800000000000011e+02
-1.384399999999999977e+02
-1.692000000000000171e+01
-3.169999999999999929e+01
-3.629999999999999893e+00
2.313100000000000023e+02
7.595999999999999375e+01
-8.248000000000000398e+01
2.535999999999999943e+02
1.490500000000000114e+02
-4.146999999999999886e+01
-3.413899999999999864e+02
-1.060099999999999909e+03
6.632899999999999636e+02
4.695400000000000205e+02
1.090400000000000063e+02
1.405999999999999943e+02
-5.864999999999999858e+01
-6.506599999999999682e+02
-5.713000000000000256e+01
3.168899999999999864e+02
3.291600000000000250e+02
-2.296299999999999955e+02
-3.664100000000000250e+02
-1.230699999999999932e+02
3.099800000000000182e+02
2.715799999999999841e+02
-6.884000000000000341e+01
-1.798999999999999844e+01
-6.060000000000000142e+01
7.951999999999999602e+01
4.803999999999999915e+01
1.123000000000000043e+01
-8.259000000000000341e+01
2.748999999999999844e+01
-1.912000000000000099e+01
-6.297999999999999687e+01
-6.389999999999999680e+00
6.125099999999999909e+02
-2.785400000000000205e+02
-9.721999999999999886e+01
4.696999999999999886e+01
6.832999999999999829e+01
9.730000000000000426e+00
-1.710999999999999943e+01
-5.547999999999999687e+01
-7.259999999999999787e+00
1.593999999999999950e+01
-4.714000000000000057e+01
-2.709200000000000159e+02
-1.811100000000000136e+02
1.601399999999999864e+02
1.407899999999999920e+02
-2.875899999999999750e+02
1.381200000000000045e+02
6.049000000000000199e+01
-4.282999999999999829e+01
2.800000000000000266e-01
5.132999999999999829e+01
-6.969999999999999751e+00
4.646000000000000085e+01
1.737000000000000099e+01
-5.793999999999999773e+01
8.796999999999999886e+01
4.499000000000000199e+01
-2.488300000000000125e+02
2.294999999999999929e+01
-4.132999999999999829e+01
6.640999999999999659e+01
-5.478000000000000114e+01
-3.875999999999999801e+01
-4.975999999999999801e+01
-2.335000000000000142e+01
3.350000000000000000e+01
-6.325000000000000000e+01
5.589000000000000057e+01
3.515999999999999659e+01
-4.059000000000000341e+01
8.869999999999999218e+00
-2.544099999999999966e+02
2.783600000000000136e+02
5.407999999999999829e+01
4.718999999999999773e+01
-3.239900000000000091e+02
2.496999999999999886e+01
-5.592000000000000171e+01
-3.897999999999999687e+01
-5.222999999999999687e+01
1.975000000000000000e+01
-1.039000000000000057e+02
-5.078399999999999750e+02
2.383499999999999943e+02
5.686799999999999500e+02
-4.939999999999999858e+01
-1.663300000000000125e+02
-4.840999999999999659e+01
-4.899999999999999911e-01
-1.621999999999999886e+01
2.392999999999999972e+01
5.686999999999999744e+01
-1.424699999999999989e+02
3.662500000000000000e+02
1.032399999999999949e+02
-8.373700000000000045e+02
-2.316500000000000057e+02
6.298999999999999773e+02
4.301600000000000250e+02
-1.571999999999999886e+02
-2.642799999999999727e+02
-5.039700000000000273e+02
3.717900000000000205e+02
2.580000000000000000e+02
3.108899999999999864e+02
-2.604900000000000091e+02
-1.690999999999999943e+02
-9.207999999999999829e+01
2.239499999999999886e+02
4.522999999999999687e+01
-4.849999999999999645e+00
-3.422999999999999687e+01
3.270000000000000018e+00
-4.257000000000000028e+01
2.682000000000000028e+01
5.638000000000000256e+01
-8.306999999999999318e+01
2.766000000000000014e+01
8.499999999999999778e-01
6.746999999999999886e+01
-2.506699999999999875e+02
8.100000000000000533e-01
-3.290999999999999659e+01
3.019000000000000128e+01
-1.072000000000000064e+01
-8.984999999999999432e+01
2.500000000000000000e-01
9.689999999999999503e+00
3.615999999999999659e+01
2.362000000000000099e+01
8.446999999999999886e+01
-1.399999999999999911e+00
-6.931999999999999318e+01
3.117999999999999972e+01
1.126200000000000045e+02
-1.174899999999999949e+02
5.610000000000000320e+00
3.439999999999999947e+00
3.092000000000000171e+01
4.660000000000000142e+01
-5.715999999999999659e+01
2.240000000000000213e+00
2.733999999999999986e+01
-5.545000000000000284e+01
5.975000000000000000e+01
6.159000000000000341e+01
-2.596999999999999886e+01
-1.173499999999999943e+02
-1.055000000000000071e+01
-4.278999999999999915e+01
2.382999999999999829e+01
1.991000000000000014e+01
-1.680999999999999872e+01
3.094000000000000128e+01
1.182000000000000028e+01
-1.917999999999999972e+01
1.976999999999999957e+01
1.459999999999999964e+00
-2.857000000000000028e+01
1.776000000000000156e+01
8.179999999999999716e+00
-3.760999999999999943e+01
1.625000000000000000e+01
6.389999999999999680e+00
-3.289999999999999858e+01
1.828999999999999915e+01
7.490000000000000213e+00
-2.846000000000000085e+01
1.855000000000000071e+01
1.222000000000000064e+01
-2.676000000000000156e+01
1.459999999999999964e+01
8.220000000000000639e+00
-2.683999999999999986e+01
3.254999999999999716e+01
6.919999999999999929e+00
-5.053000000000000114e+01
2.430000000000000160e+00
-1.176999999999999957e+01
1.305000000000000071e+01
2.751999999999999957e+01
2.099999999999999922e-01
-1.705999999999999872e+01
3.552000000000000313e+01
1.075000000000000000e+01
-3.752000000000000313e+01
4.990000000000000213e+00
-2.330999999999999872e+01
-6.910000000000000142e+00
3.831000000000000227e+01
2.396000000000000085e+01
1.353999999999999915e+01
-2.691000000000000014e+01
-1.100999999999999979e+01
-3.865999999999999659e+01
4.240000000000000213e+00
-8.550000000000000711e+00
-6.459999999999999964e+00
2.041000000000000014e+01
-5.219999999999999751e+00
1.322000000000000064e+01
4.779999999999999716e+01
5.860000000000000320e+00
-4.381000000000000227e+01
-4.421000000000000085e+01
1.211999999999999922e+01
4.628000000000000114e+01
1.258999999999999986e+01
-9.499999999999999556e-01
3.546999999999999886e+01
-2.457000000000000028e+01
-7.984999999999999432e+01
3.879999999999999893e+00
-1.377999999999999936e+01
-1.998999999999999844e+01
2.178999999999999915e+01
-2.919000000000000128e+01
6.320000000000000284e+00
1.599000000000000021e+01
-3.889000000000000057e+01
4.888000000000000256e+01
7.014000000000000057e+01
-1.867000000000000171e+01
2.707999999999999829e+01
3.296000000000000085e+01
-3.162999999999999901e+01
1.741000000000000014e+01
3.575999999999999801e+01
-1.405000000000000071e+01
-6.600000000000000311e-01
5.310000000000000142e+01
-1.396000000000000085e+01
-7.231999999999999318e+01
1.565000000000000036e+01
6.110000000000000320e+00
-5.921000000000000085e+01
2.519000000000000128e+01
5.190999999999999659e+01
-2.203000000000000114e+01
-1.964000000000000057e+01
3.247999999999999687e+01
-6.999999999999999556e-01
-7.339000000000000057e+01
2.407000000000000028e+01
-3.310000000000000053e+00
-5.885000000000000142e+01
2.448000000000000043e+01
2.771000000000000085e+01
-1.737999999999999901e+01
1.746999999999999886e+01
2.737999999999999901e+01
-1.921000000000000085e+01
-3.315999999999999659e+01
4.114999999999999858e+01
-5.919999999999999929e+00
-6.261999999999999744e+01
1.133999999999999986e+01
-1.235999999999999943e+01
-4.621999999999999886e+01
5.250999999999999801e+01
2.292000000000000171e+01
-4.771000000000000085e+01
4.064999999999999858e+01
2.326999999999999957e+01
-3.575000000000000000e+01
2.632999999999999829e+01
2.117000000000000171e+01
-2.775000000000000000e+01
2.816000000000000014e+01
3.700999999999999801e+01
2.219999999999999929e+01
-1.349000000000000021e+01
-4.167999999999999972e+01
-6.407999999999999829e+01
1.235999999999999943e+01
7.570000000000000284e+00
-3.211999999999999744e+01
1.527999999999999936e+01
-5.469999999999999751e+00
-2.957999999999999829e+01
2.051999999999999957e+01
-1.193999999999999950e+01
-1.501999999999999957e+01
2.717999999999999972e+01
-2.132999999999999829e+01
4.889999999999999680e+00
3.404999999999999716e+01
-3.046999999999999886e+01
1.769000000000000128e+01
3.717000000000000171e+01
-3.234000000000000341e+01
1.258999999999999986e+01
2.935000000000000142e+01
-3.428000000000000114e+01
5.989999999999999858e+01
7.618999999999999773e+01
8.789999999999999147e+00
1.451999999999999957e+01
8.199999999999999512e-01
-7.656999999999999318e+01
5.953000000000000114e+01
5.796000000000000085e+01
-4.989999999999999858e+01
4.100999999999999801e+01
4.092000000000000171e+01
-2.953000000000000114e+01
1.541000000000000014e+01
2.932999999999999829e+01
-3.253000000000000114e+01
-4.360000000000000320e+00
3.663000000000000256e+01
-2.092000000000000171e+01
-1.762000000000000099e+01
3.217000000000000171e+01
-1.522000000000000064e+01
-3.153000000000000114e+01
3.303999999999999915e+01
-1.202999999999999936e+01
-4.288000000000000256e+01
3.146999999999999886e+01
-6.620000000000000107e+00
-4.659000000000000341e+01
3.828999999999999915e+01
-3.439999999999999947e+00
-4.628999999999999915e+01
3.640999999999999659e+01
-5.309999999999999609e+00
-4.282999999999999829e+01
3.424000000000000199e+01
-3.850000000000000089e+00
-3.542000000000000171e+01
4.827000000000000313e+01
2.076000000000000156e+01
4.440000000000000391e+00
2.057999999999999829e+01
-5.507000000000000028e+01
-2.751000000000000156e+01
1.050999999999999979e+01
1.365000000000000036e+01
7.648999999999999488e+01
6.748000000000000398e+01
-5.836999999999999744e+01
7.579000000000000625e+01
-8.368000000000000682e+01
-4.325999999999999801e+01
3.952000000000000313e+01
-1.250199999999999960e+02
-8.529999999999999361e+00
-6.893000000000000682e+01
8.699999999999999289e+00
9.145999999999999375e+01
4.407000000000000028e+01
1.527999999999999936e+01
4.765999999999999659e+01
1.873000000000000043e+01
-4.984000000000000341e+01
-1.083000000000000007e+01
-1.022000000000000064e+01
-9.349999999999999645e+00
1.830999999999999872e+01
-1.307000000000000028e+01
-6.987000000000000455e+01
5.979999999999999716e+01
-8.699999999999999289e+00
-4.129999999999999716e+01
7.921999999999999886e+01
-3.403999999999999915e+01
-1.152999999999999972e+02
4.367000000000000171e+01
5.382000000000000028e+01
3.514999999999999858e+01
-4.150000000000000355e+00
-3.246000000000000085e+01
4.009000000000000341e+01
3.419999999999999929e+00
-1.011999999999999922e+01
1.179999999999999938e+00
2.273999999999999844e+01
-6.199999999999999956e-01
1.083000000000000007e+01
2.298000000000000043e+01
-6.200999999999999801e+01
2.128999999999999915e+01
1.953999999999999915e+01
-3.030999999999999872e+01
3.650999999999999801e+01
2.630999999999999872e+01
-2.603999999999999915e+01
3.629999999999999716e+01
1.183000000000000007e+01
-1.205000000000000071e+01
2.653000000000000114e+01
2.605999999999999872e+01
-2.278000000000000114e+01
1.181000000000000050e+01
4.820000000000000284e+00
-5.532000000000000028e+01
2.091000000000000014e+01
6.589000000000000057e+01
-3.661999999999999744e+01
-1.730999999999999872e+01
6.562000000000000455e+01
2.742000000000000171e+01
9.499999999999999556e-01
-4.211999999999999744e+01
1.001999999999999957e+01
-1.254599999999999937e+02
3.580000000000000071e+00
1.289300000000000068e+02
2.299999999999999822e+00
2.476000000000000156e+01
9.131000000000000227e+01
-2.062000000000000099e+01
-1.266999999999999993e+01
8.246999999999999886e+01
-5.872999999999999687e+01
-1.407299999999999898e+02
7.228000000000000114e+01
7.056000000000000227e+01
7.125000000000000000e+01
8.721999999999999886e+01
-6.440999999999999659e+01
-1.910900000000000034e+02
-2.962000000000000099e+01
2.925400000000000205e+02
4.298700000000000045e+02
4.477000000000000313e+01
-4.656800000000000068e+02
-4.759399999999999977e+02
1.644000000000000057e+02
1.614499999999999886e+02
2.942200000000000273e+02
4.503899999999999864e+02
-3.659000000000000341e+01
-3.452000000000000313e+01
-6.385999999999999943e+01
-3.690299999999999727e+02
-4.772500000000000000e+02
2.883600000000000136e+02
5.377500000000000000e+02
2.233999999999999986e+01
-4.192400000000000091e+02
-6.370399999999999636e+02
-4.496000000000000085e+01
1.896699999999999875e+02
5.405399999999999636e+02
2.383199999999999932e+02
-2.236999999999999886e+02
-3.322599999999999909e+02
3.065000000000000000e+02
-3.763199999999999932e+02
-6.748000000000000398e+01
5.439999999999999858e+01
-5.600000000000000000e+01
-4.120000000000000107e+00
6.839999999999999858e+00
8.269999999999999574e+00
1.571500000000000057e+02
6.288000000000000256e+01
2.406699999999999875e+02
1.666200000000000045e+02
2.810000000000000142e+01
8.537999999999999545e+01
5.780000000000000249e+00
-7.176999999999999602e+01
1.054019999999999982e+03
-8.713999999999999773e+02
-3.597699999999999818e+02
1.082000000000000028e+02
-6.887999999999999545e+01
-7.135999999999999943e+01
1.242300000000000040e+02
-2.529900000000000091e+02
-1.404199999999999875e+02
3.692900000000000205e+02
1.900800000000000125e+02
-1.084999999999999964e+01
-3.534000000000000341e+01
-7.129999999999999893e+00
3.009999999999999787e+00
-1.735999999999999943e+01
9.849999999999999645e+00
1.383999999999999986e+01
-6.179999999999999716e+00
2.044999999999999929e+01
1.159999999999999964e+01
-1.147000000000000064e+01
1.826999999999999957e+01
7.169999999999999929e+00
-1.308999999999999986e+01
1.119999999999999929e+01
1.096000000000000085e+01
5.750000000000000000e+00
2.399999999999999911e-01
-4.860000000000000320e+00
-1.533000000000000007e+01
-1.416000000000000014e+01
7.809999999999999609e+00
2.370000000000000107e+00
-1.314000000000000057e+01
6.490000000000000213e+00
4.089999999999999858e+00
-1.074000000000000021e+01
6.179999999999999716e+00
1.570000000000000062e+00
-8.500000000000000000e+00
-3.419999999999999929e+00
-9.480000000000000426e+00
-5.500000000000000000e+00
1.879999999999999893e+00
1.094999999999999929e+01
1.375999999999999979e+01
9.290000000000000568e+01
2.149999999999999911e+00
8.660999999999999943e+01
-2.979399999999999977e+02
1.482000000000000028e+01
4.610999999999999943e+01
3.007799999999999727e+02
-5.062799999999999727e+02
-3.691899999999999977e+02
3.340999999999999659e+01
3.599200000000000159e+02
2.971399999999999864e+02
8.792000000000000171e+01
3.817999999999999972e+01
-5.136999999999999744e+01
-2.049999999999999822e+00
-3.107999999999999829e+01
7.415999999999999659e+01
-8.662000000000000455e+01
-7.115999999999999659e+01
-1.110100000000000051e+02
4.765999999999999659e+01
-3.957999999999999829e+01
-6.589999999999999858e+00
6.519999999999999574e+00
-2.083999999999999986e+01
-1.937000000000000099e+01
-2.562999999999999901e+01
5.809999999999999609e+00
2.978000000000000114e+01
-2.410000000000000142e+00
-1.900000000000000022e-01
3.014000000000000057e+01
-4.332000000000000028e+01
1.140300000000000011e+02
2.700000000000000178e+00
-6.420000000000000284e+01
1.374099999999999966e+02
-2.401999999999999957e+01
9.640000000000000568e+00
4.303999999999999915e+01
-1.247300000000000040e+02
1.298799999999999955e+02
8.518000000000000682e+01
-1.483400000000000034e+02
-2.666000000000000014e+01
-4.219300000000000068e+02
-6.326200000000000045e+02
3.159300000000000068e+02
1.332299999999999898e+02
1.739099999999999966e+02
7.398999999999999773e+02
-3.995000000000000284e+01
-1.974900000000000091e+02
-9.100000000000000000e+01
-3.821000000000000085e+01
1.628999999999999915e+01
-2.611399999999999864e+02
-9.816499999999999773e+02
3.426200000000000045e+02
2.023300000000000125e+02
8.918999999999999773e+01
7.851000000000000512e+01
6.939000000000000057e+01
-2.201399999999999864e+02
-7.156999999999999318e+01
-4.032000000000000028e+01
2.780000000000000071e+01
-3.627000000000000313e+01
-5.361999999999999744e+01
6.053000000000000114e+01
1.544999999999999929e+01
-2.735000000000000142e+01
4.509000000000000341e+01
1.889999999999999902e+00
7.353000000000000114e+01
1.199200000000000017e+02
-1.078400000000000034e+02
-4.570000000000000284e+01
-8.335999999999999943e+01
7.107999999999999829e+01
2.278000000000000114e+01
7.570000000000000284e+00
-4.278000000000000114e+01
3.640000000000000124e+00
-3.306000000000000227e+01
-2.069000000000000128e+01
3.142999999999999972e+01
1.241000000000000014e+01
-1.790000000000000036e+00
4.117000000000000171e+01
2.384699999999999989e+02
-1.484399999999999977e+02
-1.771500000000000057e+02
-1.551899999999999977e+02
5.000000000000000278e-02
2.068000000000000114e+02
1.578100000000000023e+02
-8.970000000000000639e+00
-4.110999999999999943e+01
-2.214000000000000057e+01
-7.040000000000000036e+00
-1.490000000000000036e+01
4.150000000000000355e+00
4.469999999999999751e+00
-1.231000000000000050e+01
4.565999999999999659e+01
1.411899999999999977e+02
1.385999999999999943e+02
-8.587999999999999545e+01
-6.314400000000000546e+02
2.296999999999999886e+02
2.150000000000000000e+02
9.380000000000000782e+00
1.169000000000000057e+02
-7.904000000000000625e+01
-4.628000000000000114e+01
-2.658999999999999986e+01
5.778999999999999915e+01
-3.338000000000000256e+01
1.364000000000000057e+01
-5.502000000000000313e+01
-1.104399999999999977e+02
1.705300000000000011e+02
-9.751999999999999602e+01
1.259800000000000040e+02
-7.715999999999999659e+01
-5.107000000000000028e+01
7.371999999999999886e+01
-6.773000000000000398e+01
-6.889999999999999680e+00
2.182000000000000028e+01
7.670000000000000284e+01
-7.628000000000000114e+01
6.818000000000000682e+01
8.606999999999999318e+01
-2.864999999999999858e+01
4.209000000000000341e+01
-5.181000000000000227e+01
-6.152000000000000313e+01
1.558999999999999986e+01
4.642000000000000171e+01
-9.443999999999999773e+01
-2.026999999999999957e+01
8.473000000000000398e+01
4.790999999999999659e+01
-8.109999999999999432e+01
9.314000000000000057e+01
-3.946800000000000068e+02
1.333700000000000045e+02
-5.078000000000000114e+02
4.440400000000000205e+02
1.806800000000000068e+02
-1.354799999999999898e+02
-7.587999999999999545e+01
6.019999999999999574e+00
2.114000000000000057e+01
-5.142000000000000171e+01
4.919999999999999929e+00
1.065000000000000036e+01
-2.873000000000000043e+01
2.292000000000000171e+01
1.453999999999999915e+01
8.300000000000000711e+00
1.563000000000000078e+01
1.210999999999999943e+01
2.319999999999999840e+00
-1.100000000000000006e-01
-1.335999999999999943e+01
1.739999999999999858e+01
2.053000000000000114e+01
-2.439999999999999947e+00
1.322000000000000064e+01
9.070000000000000284e+00
-1.710999999999999943e+01
7.339999999999999858e+00
2.669999999999999929e+00
-1.333000000000000007e+01
1.081000000000000050e+01
-1.629999999999999893e+00
-1.215000000000000036e+01
2.839999999999999858e+00
-5.300000000000000266e-01
-9.330000000000000071e+00
4.919999999999999929e+00
3.959999999999999964e+00
-1.415000000000000036e+01
6.700000000000000178e+00
3.599999999999999867e-01
-1.185999999999999943e+01
8.130000000000000782e+00
3.080000000000000071e+00
-1.113000000000000078e+01
6.250000000000000000e+00
1.637999999999999901e+01
-1.499999999999999944e-01
-1.081000000000000050e+01
-2.669999999999999929e+01
-1.126999999999999957e+01
1.051999999999999957e+01
2.246000000000000085e+01
-2.582999999999999829e+01
3.370000000000000107e+00
2.583999999999999986e+01
-1.173000000000000043e+01
3.402000000000000313e+01
4.827000000000000313e+01
-1.150999999999999979e+01
-1.844000000000000128e+01
-8.939999999999999503e+00
1.157000000000000028e+01
2.142000000000000171e+01
-3.747999999999999687e+01
5.832000000000000028e+01
-1.909999999999999920e+00
-3.890999999999999659e+01
-3.378999999999999915e+01
-3.253000000000000114e+01
-6.139999999999999680e+00
8.554000000000000625e+01
4.517000000000000171e+01
6.415000000000000568e+01
7.465999999999999659e+01
9.080000000000000071e+00
1.654399999999999977e+02
-5.635999999999999943e+01
-3.992500000000000000e+02
-5.043999999999999773e+01
-1.463400000000000034e+02
-6.465999999999999659e+01
1.598899999999999864e+02
2.714700000000000273e+02
3.010099999999999909e+02
1.825699999999999932e+02
-8.729999999999999716e+01
2.175200000000000102e+02
-3.052799999999999727e+02
2.145099999999999909e+02
-1.267699999999999960e+02
-6.296000000000000085e+01
-6.745000000000000284e+01
2.250000000000000000e+00
5.093999999999999773e+01
-6.417000000000000171e+01
-3.289000000000000057e+01
4.203000000000000114e+01
2.010999999999999943e+01
3.690999999999999659e+01
1.942800000000000011e+02
2.252800000000000011e+02
-1.539499999999999886e+02
-7.090000000000000568e+01
-7.806999999999999318e+01
-7.204099999999999682e+02
1.762000000000000099e+01
3.021999999999999886e+02
1.115000000000000000e+02
-1.982000000000000028e+01
4.040000000000000036e+00
-8.330000000000000071e+00
-2.160000000000000142e+00
1.916000000000000014e+01
4.752000000000000313e+01
-3.257999999999999829e+01
-8.617000000000000171e+01
-4.389000000000000057e+01
1.357700000000000102e+02
1.873400000000000034e+02
-1.223000000000000043e+01
-2.462999999999999901e+01
-1.150999999999999979e+01
-1.005000000000000071e+01
-2.966000000000000014e+01
-1.585500000000000114e+02
1.061400000000000006e+02
8.223000000000000398e+01
-1.546599999999999966e+02
3.622999999999999687e+01
1.013900000000000006e+02
1.275999999999999979e+01
-1.891699999999999875e+02
-1.645600000000000023e+02
1.090499999999999972e+02
1.754000000000000057e+02
3.729999999999999982e+00
-9.914000000000000057e+01
3.350000000000000089e+00
-9.869999999999999218e+00
7.134999999999999432e+01
1.111999999999999922e+01
3.402000000000000313e+01
9.106000000000000227e+01
4.131700000000000159e+02
-3.999000000000000199e+01
-2.851000000000000156e+01
-5.345000000000000284e+01
-1.267099999999999937e+02
-7.144500000000000455e+02
-3.255699999999999932e+02
-4.209000000000000341e+01
5.978999999999999915e+01
1.617400000000000091e+02
4.122400000000000091e+02
1.193199999999999932e+02
4.436000000000000227e+02
1.693199999999999932e+02
-8.145700000000000500e+02
1.027500000000000000e+02
2.240000000000000213e+00
1.694999999999999929e+01
-9.740000000000000213e+00
-2.175000000000000000e+01
-6.153000000000000114e+01
1.122199999999999989e+02
1.571399999999999864e+02
2.789100000000000250e+02
-1.139999999999999902e+00
1.614600000000000080e+02
-3.999200000000000159e+02
-1.266400000000000091e+03
3.957599999999999909e+02
3.622200000000000273e+02
-6.879000000000000625e+01
-7.701999999999999602e+01
2.309300000000000068e+02
6.082899999999999636e+02
1.022800000000000011e+02
-7.409999999999999432e+01
-7.867000000000000171e+01
-2.583000000000000114e+02
-2.258999999999999986e+01
1.406500000000000057e+02
-5.690999999999999659e+01
-1.754499999999999886e+02
2.062999999999999901e+01
1.431000000000000050e+01
-7.029000000000000625e+01
1.068599999999999994e+02
9.684000000000000341e+01
8.156999999999999318e+01
-2.115200000000000102e+02
-4.878999999999999915e+01
-1.203199999999999932e+02
1.184800000000000040e+02
-9.169999999999999929e+00
6.165999999999999659e+01
2.511999999999999886e+02
-2.511999999999999886e+02
-1.000000000000000021e-02
2.955000000000000071e+01
1.339499999999999886e+02
1.632000000000000028e+01
-1.118400000000000034e+02
5.900000000000000355e+00
-4.510000000000000142e+01
-6.841100000000000136e+02
-2.457400000000000091e+02
2.208799999999999955e+02
1.420200000000000102e+02
2.175500000000000114e+02
-2.887999999999999901e+01
-2.583700000000000045e+02
-2.549000000000000057e+02
5.862699999999999818e+02
3.956700000000000159e+02
3.358700000000000045e+02
-2.301999999999999957e+01
-1.956599999999999966e+02
-2.028300000000000125e+02
-1.020000000000000000e+02
-1.397299999999999898e+02
-9.198000000000000398e+01
9.009999999999999787e+00
2.835000000000000142e+01
2.299999999999999822e+00
1.239000000000000057e+01
1.721000000000000085e+01
1.330000000000000071e+00
1.002999999999999936e+01
1.614999999999999858e+01
2.790000000000000036e+00
1.321000000000000085e+01
2.180000000000000071e+01
3.479999999999999982e+00
1.014000000000000057e+01
2.055999999999999872e+01
-4.660000000000000142e+00
-7.290000000000000036e+00
-3.029999999999999805e+00
6.199999999999999956e-01
1.350000000000000089e+00
1.347000000000000064e+01
-1.379999999999999893e+00
-4.200000000000000178e+00
1.764999999999999858e+01
-3.009999999999999787e+00
2.930000000000000160e+00
7.400000000000000355e+00
-1.199000000000000021e+01
6.700000000000000400e-01
7.099999999999999645e-01
-1.327999999999999936e+01
6.139999999999999680e+00
2.220000000000000195e+00
-1.500999999999999979e+01
1.099000000000000021e+01
5.330000000000000071e+00
-1.386999999999999922e+01
1.617000000000000171e+01
8.759999999999999787e+00
-7.740000000000000213e+00
-2.180000000000000160e+00
-3.178000000000000114e+01
-9.980000000000000426e+00
4.910999999999999943e+01
1.133499999999999943e+02
1.596899999999999977e+02
-1.211999999999999922e+01
-2.300800000000000125e+02
6.207999999999999829e+01
-2.074699999999999989e+02
3.790999999999999659e+01
-1.399999999999999911e+00
2.917000000000000171e+01
1.026500000000000057e+02
-1.680000000000000000e+02
2.010099999999999909e+02
1.079800000000000040e+02
1.820000000000000062e+00
1.172000000000000028e+02
-3.089800000000000182e+02
-1.895900000000000034e+02
2.539999999999999858e+01
-4.160999999999999943e+01
1.852299999999999898e+02
-6.200000000000000178e+00
-1.200600000000000023e+02
-2.901999999999999957e+01
5.443999999999999773e+01
6.027000000000000313e+01
-9.589999999999999858e+00
3.475999999999999801e+01
1.327999999999999936e+01
-3.988000000000000256e+01
1.165000000000000036e+01
7.742000000000000171e+01
2.560999999999999943e+01
7.160000000000000142e+00
-9.499999999999999556e-01
-3.770000000000000284e+01
-2.407000000000000028e+01
6.965999999999999659e+01
1.251999999999999957e+01
3.279999999999999805e+00
9.019999999999999574e+00
-5.400000000000000355e-01
7.500000000000000000e-01
3.534000000000000341e+01
9.812999999999999545e+01
1.940699999999999932e+02
9.642000000000000171e+01
-4.395500000000000114e+02
8.081000000000000227e+01
1.263400000000000034e+02
-8.306999999999999318e+01
-1.730600000000000023e+02
6.059999999999999609e+00
-9.029999999999999361e+00
5.215999999999999659e+01
-3.142999999999999972e+01
-3.464999999999999858e+01
-2.131299999999999955e+02
1.203999999999999915e+01
2.928000000000000114e+02
-1.383000000000000007e+01
1.205199999999999960e+02
-2.623700000000000045e+02
3.900999999999999801e+01
5.872999999999999687e+01
-1.707999999999999829e+01
-4.893999999999999773e+01
7.529999999999999716e+01
1.154800000000000040e+02
-2.604700000000000273e+02
-1.621999999999999886e+02
1.283300000000000125e+02
9.689999999999999503e+00
4.496999999999999886e+01
-1.795399999999999920e+02
7.782999999999999829e+01
1.787800000000000011e+02
2.583600000000000136e+02
5.540999999999999659e+01
-1.701500000000000057e+02
-1.507199999999999989e+02
1.289300000000000068e+02
1.661100000000000136e+02
-5.768999999999999773e+01
6.385999999999999943e+01
2.994000000000000128e+01
1.270900000000000034e+02
-2.408799999999999955e+02
9.537000000000000455e+01
-1.377100000000000080e+02
-7.025000000000000000e+01
-9.120000000000000284e+01
-7.862000000000000455e+01
2.407000000000000028e+01
4.964999999999999858e+01
-4.615999999999999659e+01
1.351100000000000136e+02
5.160000000000000142e+00
8.704999999999999716e+01
9.399999999999999467e-01
7.870000000000000284e+01
6.700000000000000000e+01
-9.957999999999999829e+01
-1.689199999999999875e+02
-5.056000000000000227e+01
3.242099999999999795e+02
-9.980000000000000426e+00
-9.631000000000000227e+01
-7.410999999999999943e+01
1.002900000000000063e+02
4.096000000000000085e+01
2.195099999999999909e+02
-6.092999999999999972e+01
-1.951000000000000156e+01
-7.334000000000000341e+01
5.692000000000000171e+01
2.299999999999999822e+00
-1.413000000000000078e+01
7.009999999999999432e+01
4.632000000000000028e+01
-1.212900000000000063e+02
-1.662000000000000099e+01
-7.843999999999999773e+01
1.564000000000000057e+01
4.529999999999999716e+01
-8.950000000000000000e+01
1.098100000000000023e+02
-1.085000000000000000e+02
-6.010000000000000142e+01
7.998000000000000398e+01
-6.900000000000000355e+00
3.082000000000000028e+01
8.300000000000000711e+00
-8.339999999999999858e+00
7.106000000000000227e+01
1.752599999999999909e+02
-7.151999999999999602e+01
1.934099999999999966e+02
1.363000000000000078e+01
2.068100000000000023e+02
-3.397999999999999687e+01
3.439999999999999947e+00
-4.599999999999999645e+00
-1.231000000000000050e+01
-3.491999999999999886e+02
-5.649900000000000091e+02
-5.852500000000000000e+02
3.946100000000000136e+02
-7.146999999999999886e+01
-3.503000000000000114e+01
4.806100000000000136e+02
-2.069600000000000080e+02
-6.450000000000000178e+00
7.065000000000000568e+01
1.083999999999999986e+01
1.178999999999999915e+01
1.082900000000000063e+02
3.397300000000000182e+02
1.470699999999999932e+02
3.628999999999999915e+01
-1.207000000000000028e+01
-1.268999999999999950e+01
9.000000000000000000e+00
-3.120000000000000107e+00
-1.770000000000000018e+00
-1.235999999999999943e+01
-2.573000000000000043e+01
-3.669999999999999929e+00
1.129999999999999893e+00
-6.320000000000000284e+00
1.398000000000000043e+01
-5.000000000000000000e-01
-1.989000000000000057e+01
-6.899999999999999467e-01
-8.460000000000000853e+00
-1.086999999999999922e+01
7.309999999999999609e+00
7.830000000000000071e+00
-1.439999999999999947e+00
9.189999999999999503e+00
9.300000000000000488e-01
-1.767999999999999972e+01
4.450000000000000178e+00
5.299999999999999822e+00
-1.792000000000000171e+01
8.599999999999999867e-01
-1.429999999999999938e+00
-1.687999999999999901e+01
4.709999999999999964e+00
5.400000000000000355e-01
-1.735999999999999943e+01
7.190000000000000391e+00
-1.020000000000000018e+00
-1.855999999999999872e+01
8.960000000000000853e+00
-4.639999999999999680e+00
-1.619999999999999929e+01
7.830000000000000071e+00
-4.570000000000000284e+00
-1.099000000000000021e+01
1.088000000000000078e+01
-1.283000000000000007e+01
-3.720000000000000195e+00
1.466000000000000014e+01
6.250000000000000000e+00
-1.909999999999999920e+00
-1.653999999999999915e+01
-2.367999999999999972e+01
1.409999999999999920e+00
7.440000000000000391e+00
1.080199999999999960e+02
3.917999999999999972e+01
-2.276999999999999957e+01
-9.879000000000000625e+01
-2.560999999999999943e+01
6.250000000000000000e+01
4.338000000000000256e+01
-8.540999999999999659e+01
8.639000000000000057e+01
-3.224000000000000199e+01
2.681000000000000227e+02
1.900000000000000022e-01
-4.399100000000000250e+02
-5.692599999999999909e+02
2.394000000000000057e+02
3.138299999999999841e+02
1.821200000000000045e+02
3.295699999999999932e+02
-4.732400000000000091e+02
-2.087000000000000099e+01
7.120000000000000284e+01
-3.602699999999999818e+02
2.032700000000000102e+02
7.656999999999999318e+01
-1.687800000000000011e+02
3.304100000000000250e+02
-1.282199999999999989e+02
-8.671999999999999886e+01
4.304999999999999716e+01
1.511800000000000068e+02
-1.544999999999999929e+01
-3.527000000000000313e+01
9.753000000000000114e+01
1.452800000000000011e+02
-4.396000000000000085e+01
-1.921000000000000085e+01
-7.980000000000000426e+00
-1.785500000000000114e+02
-1.740699999999999932e+02
2.874599999999999795e+02
-3.801999999999999886e+02
2.201800000000000068e+02
2.253999999999999915e+01
-5.135900000000000318e+02
2.120999999999999943e+02
-1.880999999999999872e+01
-3.424000000000000199e+01
2.457000000000000028e+01
1.492400000000000091e+02
9.132999999999999545e+02
-2.563100000000000023e+02
-5.672999999999999545e+02
-9.723000000000000398e+01
6.002000000000000313e+01
1.056500000000000057e+02
8.225000000000000000e+01
-7.982999999999999829e+01
-1.489099999999999966e+02
-5.632000000000000028e+01
8.851999999999999602e+01
5.986999999999999744e+01
-1.713499999999999943e+02
-6.764000000000000057e+01
9.482999999999999829e+01
-8.509999999999999432e+01
4.779999999999999716e+01
-1.469999999999999973e+00
1.261899999999999977e+02
1.218799999999999955e+02
-1.578100000000000023e+02
1.117999999999999972e+01
6.568000000000000682e+01
-8.965000000000000568e+01
-4.849999999999999645e+00
1.502400000000000091e+02
1.825600000000000023e+02
2.289799999999999898e+02
-2.156200000000000045e+02
1.626599999999999966e+02
-1.279599999999999937e+02
2.382100000000000080e+02
-2.844900000000000091e+02
-2.795000000000000000e+02
-6.203500000000000227e+02
-1.982100000000000080e+02
9.018999999999999773e+01
9.403000000000000114e+01
5.810800000000000409e+02
-4.485999999999999943e+01
5.682000000000000028e+01
5.449000000000000199e+01
-7.787500000000000000e+02
5.996299999999999955e+02
2.190200000000000102e+02
1.660999999999999943e+01
-1.137699999999999960e+02
-3.518999999999999773e+01
-1.014399999999999977e+02
6.067000000000000171e+01
2.037599999999999909e+02
2.112899999999999920e+02
-8.104000000000000625e+01
-4.010000000000000142e+01
8.359999999999999432e+01
5.269999999999999574e+00
-3.549599999999999795e+02
8.556999999999999318e+01
2.434399999999999977e+02
-1.675800000000000125e+02
-1.197300000000000040e+02
4.335999999999999943e+01
2.516000000000000014e+01
-1.930399999999999920e+02
-7.196999999999999886e+01
4.489000000000000057e+01
3.203899999999999864e+02
-5.803000000000000114e+01
-6.878000000000000114e+01
-2.072199999999999989e+02
6.459000000000000341e+01
4.557999999999999829e+01
-3.210000000000000142e+01
2.244699999999999989e+02
3.620099999999999909e+02
-4.732999999999999829e+01
-5.503999999999999915e+01
-2.263400000000000034e+02
-4.345000000000000284e+01
1.021000000000000085e+01
-1.615900000000000034e+02
1.881599999999999966e+02
-7.887999999999999545e+01
-5.705399999999999636e+02
-2.164199999999999875e+02
2.778999999999999773e+02
3.444900000000000091e+02
1.584199999999999875e+02
-3.058999999999999986e+01
4.953000000000000114e+01
2.355000000000000071e+01
8.300000000000000711e+00
5.057000000000000028e+01
-3.600999999999999801e+01
-1.350000000000000089e+00
2.883999999999999986e+01
-1.848999999999999844e+01
4.503999999999999915e+01
3.650000000000000000e+01
-5.596999999999999886e+01
-4.192999999999999972e+01
4.389000000000000057e+01
-1.187099999999999937e+02
5.964000000000000057e+01
2.153799999999999955e+02
-6.570000000000000284e+00
-9.528000000000000114e+01
-2.553000000000000114e+01
-2.048000000000000043e+01
-3.684000000000000341e+01
1.501999999999999957e+01
1.530000000000000071e+01
-3.098000000000000043e+01
2.926999999999999957e+01
-1.163000000000000078e+01
-3.620000000000000284e+01
2.192999999999999972e+01
1.060999999999999943e+01
-2.437000000000000099e+01
2.287999999999999901e+01
1.317999999999999972e+01
-2.553999999999999915e+01
9.820000000000000284e+00
5.849999999999999645e+00
4.099999999999999645e+00
4.435000000000000142e+01
2.828000000000000114e+01
-1.539000000000000057e+01
-1.642999999999999972e+01
-4.169999999999999929e+00
-3.055999999999999872e+01
2.832000000000000028e+01
-5.179999999999999716e+00
-3.479999999999999716e+01
1.835000000000000142e+01
5.999999999999999778e-02
-3.567000000000000171e+01
2.610000000000000142e+01
-1.540000000000000036e+00
-2.185999999999999943e+01
2.373000000000000043e+01
-1.053999999999999915e+01
5.799999999999999600e-01
2.369000000000000128e+01
9.740000000000000213e+00
7.500000000000000000e+00
-1.481000000000000050e+01
-3.814000000000000057e+01
1.880999999999999872e+01
2.001000000000000156e+01
-2.357000000000000028e+01
6.384000000000000341e+01
2.682000000000000028e+01
-1.206000000000000050e+01
4.707000000000000028e+01
-7.799999999999999822e+00
-7.760999999999999943e+01
2.073000000000000043e+01
-1.122399999999999949e+02
4.709999999999999964e+00
-5.535000000000000142e+01
-1.596100000000000136e+02
2.028999999999999915e+01
1.010400000000000063e+02
1.116299999999999955e+02
5.853999999999999915e+01
-1.181800000000000068e+02
-7.045999999999999375e+01
2.033700000000000045e+02
8.745000000000000284e+01
7.059000000000000341e+01
-2.226999999999999886e+02
1.608899999999999864e+02
-2.367899999999999920e+02
-4.830000000000000071e+00
-2.392000000000000171e+01
3.094000000000000128e+01
1.954799999999999898e+02
-9.419999999999999929e+00
-1.817299999999999898e+02
1.037300000000000040e+02
4.041600000000000250e+02
1.072300000000000040e+02
1.021500000000000057e+02
3.389000000000000057e+01
-1.085100000000000051e+02
-1.039699999999999989e+02
-1.881500000000000057e+02
-8.270299999999999727e+02
-2.029699999999999989e+02
-6.876000000000000512e+01
6.125999999999999801e+01
8.731999999999999318e+01
5.296000000000000085e+01
2.523999999999999844e+01
5.345000000000000284e+01
1.463600000000000136e+02
4.497900000000000205e+02
1.512599999999999909e+02
3.000000000000000000e+01
-1.231000000000000050e+01
1.730999999999999872e+01
6.959999999999999432e+01
-1.103199999999999932e+02
-1.139000000000000057e+02
-2.687000000000000099e+01
-5.780000000000000249e+00
-9.869999999999999218e+00
6.153999999999999915e+01
1.012000000000000028e+02
-2.635999999999999943e+01
2.646999999999999886e+01
-4.553999999999999915e+01
8.775000000000000000e+01
2.059600000000000080e+02
6.074000000000000199e+01
-7.287999999999999545e+01
-1.349900000000000091e+02
-4.809800000000000182e+02
1.408000000000000007e+01
-2.985199999999999818e+02
6.549999999999999822e+00
3.553899999999999864e+02
3.354700000000000273e+02
-3.912400000000000091e+02
-3.939100000000000250e+02
2.814100000000000250e+02
4.440500000000000114e+02
3.625000000000000000e+01
3.260999999999999943e+01
-3.831000000000000227e+02
2.071999999999999886e+02
-2.737000000000000099e+01
-4.509999999999999787e+00
5.814000000000000057e+01
9.449999999999999289e+00
-2.344000000000000128e+01
-3.543999999999999773e+01
-7.599999999999999645e+00
1.027999999999999972e+02
-2.167000000000000171e+01
-5.495000000000000284e+01
-1.083999999999999986e+01
-1.035999999999999943e+02
7.684000000000000341e+01
6.498000000000000398e+01
-1.817999999999999972e+01
-5.707999999999999829e+01
1.200000000000000000e+01
1.710999999999999943e+01
-2.454300000000000068e+02
-1.116999999999999993e+01
9.170000000000000284e+01
2.680000000000000071e+01
1.432000000000000028e+01
5.230000000000000426e+00
-3.517000000000000171e+01
7.678000000000000114e+01
7.628000000000000114e+01
-2.842900000000000205e+02
1.303700000000000045e+02
1.107900000000000063e+02
1.101999999999999957e+01
-9.912999999999999545e+01
1.001099999999999994e+02
1.250999999999999979e+01
3.877000000000000313e+01
1.475000000000000000e+01
-8.026999999999999602e+01
9.300000000000000488e-01
-2.267000000000000171e+01
-2.326000000000000156e+01
-1.516999999999999993e+01
-5.160000000000000142e+00
-7.169999999999999929e+00
1.841000000000000014e+01
6.460999999999999943e+01
5.750000000000000000e+01
-2.985999999999999943e+01
7.689000000000000057e+01
-2.457000000000000028e+01
-6.406999999999999318e+01
-6.400000000000000133e-01
6.332999999999999829e+01
-6.385999999999999943e+01
-1.302400000000000091e+02
1.258000000000000007e+01
9.112999999999999545e+01
-6.299000000000000199e+01
-1.096000000000000085e+01
-7.730000000000000426e+00
-1.433999999999999986e+01
-2.883999999999999986e+01
3.479999999999999716e+01
4.253999999999999915e+01
2.149000000000000057e+02
-8.110999999999999943e+01
-5.662799999999999727e+02
1.278400000000000034e+02
-3.754200000000000159e+02
9.551000000000000512e+01
1.946999999999999886e+02
4.065799999999999841e+02
5.846000000000000085e+01
-7.780000000000000249e+00
-3.008999999999999986e+01
-1.167999999999999972e+01
-2.162999999999999901e+01
-3.112000000000000099e+01
2.001999999999999957e+01
-1.522000000000000064e+01
6.289999999999999858e+01
3.664000000000000057e+01
-2.746000000000000085e+01
2.198999999999999844e+01
-4.209000000000000341e+01
-1.164000000000000057e+01
-8.910000000000000142e+00
-2.540000000000000036e+00
-2.982999999999999829e+01
-1.131000000000000050e+01
6.921999999999999886e+01
8.296999999999999886e+01
2.360200000000000102e+02
-2.980000000000000071e+01
5.903999999999999915e+01
-4.534300000000000068e+02
-4.259999999999999787e+00
3.010299999999999727e+02
-2.262999999999999901e+01
-1.156500000000000057e+02
-1.703000000000000114e+01
6.731000000000000227e+01
-2.853000000000000114e+01
1.919999999999999929e+01
-1.125000000000000000e+01
7.437999999999999545e+01
1.504000000000000057e+02
2.683999999999999773e+02
9.810000000000000497e+00
-6.453700000000000045e+02
3.186600000000000250e+02
1.075999999999999979e+01
-2.640000000000000124e+00
5.339999999999999858e+01
-2.576000000000000156e+01
7.418999999999999773e+01
1.836299999999999955e+02
3.582000000000000028e+01
-1.151899999999999977e+02
-7.532999999999999829e+01
1.842599999999999909e+02
-1.567599999999999909e+02
-2.950899999999999750e+02
-1.463700000000000045e+02
4.098100000000000023e+02
-1.169000000000000057e+02
-7.401000000000000512e+01
1.568799999999999955e+02
-1.776200000000000045e+02
-8.187000000000000455e+01
6.709999999999999432e+01
2.668399999999999750e+02
6.224000000000000199e+01
-2.432500000000000000e+02
-3.317300000000000182e+02
4.713000000000000256e+01
3.164700000000000273e+02
-4.390999999999999659e+01
-4.031000000000000227e+01
-6.072999999999999687e+01
1.151200000000000045e+02
1.064000000000000057e+01
2.232999999999999829e+01
1.694999999999999929e+01
2.229999999999999982e+00
-3.041000000000000014e+01
4.009000000000000341e+01
-1.976999999999999957e+01
-3.300999999999999801e+01
2.957999999999999829e+01
-5.780000000000000249e+00
-5.528000000000000114e+01
1.887999999999999901e+01
-8.750000000000000000e+00
-2.489999999999999858e+01
1.505000000000000071e+01
-3.810000000000000053e+00
2.919999999999999929e+00
1.912999999999999901e+01
-7.230000000000000426e+00
7.467000000000000171e+01
5.871999999999999886e+01
9.419999999999999929e+00
-4.328999999999999773e+02
6.692000000000000171e+01
1.517599999999999909e+02
3.569999999999999840e+00
-1.300999999999999943e+02
2.065500000000000114e+02
4.770000000000000284e+01
-2.410500000000000114e+02
2.751999999999999957e+01
1.268599999999999994e+02
-1.616999999999999886e+02
-1.544499999999999886e+02
-1.894999999999999929e+01
4.421999999999999886e+01
2.019600000000000080e+02
1.404499999999999886e+02
2.459999999999999964e+00
-1.217399999999999949e+02
1.668300000000000125e+02
-1.162399999999999949e+02
-2.799999999999999822e+00
5.259999999999999787e+00
-2.726000000000000156e+01
4.603000000000000114e+01
-1.935000000000000142e+01
9.250000000000000000e+00
-8.740000000000000213e+00
-5.154999999999999716e+01
1.642000000000000171e+01
5.736999999999999744e+01
-1.040000000000000036e+00
1.609699999999999989e+02
-6.907000000000000455e+02
4.945099999999999909e+02
-3.985099999999999909e+02
-2.336500000000000057e+02
6.156000000000000227e+01
4.059300000000000068e+02
-2.197400000000000091e+02
4.907999999999999829e+01
-1.683300000000000125e+02
6.556000000000000227e+01
8.262999999999999545e+01
1.369499999999999886e+02
-9.709000000000000341e+01
9.519999999999999574e+00
1.577599999999999909e+02
1.042399999999999949e+02
-7.060999999999999943e+01
-3.292000000000000171e+01
-4.160999999999999943e+01
7.973999999999999488e+01
2.564999999999999858e+01
2.869000000000000128e+01
-2.712500000000000000e+02
1.463100000000000023e+02
1.536599999999999966e+02
5.703999999999999915e+01
-8.909000000000000341e+01
7.979999999999999716e+01
-4.967000000000000171e+01
-1.987000000000000099e+01
3.418999999999999773e+01
2.153000000000000114e+01
5.425000000000000000e+01
1.862000000000000099e+01
-5.209000000000000341e+01
4.542999999999999972e+01
8.949999999999999289e+00
-6.554000000000000625e+01
1.275100000000000051e+02
6.113700000000000045e+02
-4.400400000000000205e+02
2.509999999999999787e+00
-4.309999999999999609e+00
4.056000000000000227e+01
-1.257500000000000000e+02
-4.824000000000000199e+01
3.553000000000000114e+01
8.275000000000000000e+01
3.010999999999999943e+01
-4.543999999999999773e+01
-1.301999999999999957e+01
-1.107000000000000028e+01
6.539000000000000057e+01
8.940000000000000568e+01
5.179999999999999716e+01
2.617300000000000182e+02
-1.557599999999999909e+02
-2.143100000000000023e+02
7.017000000000000171e+01
3.242999999999999972e+01
-2.666100000000000136e+02
1.235300000000000011e+02
-1.519999999999999929e+01
8.540000000000000568e+01
-8.539999999999999147e+00
-3.990999999999999659e+01
-4.088000000000000256e+01
5.010999999999999943e+01
-5.460000000000000142e+01
1.979000000000000057e+02
-1.359099999999999966e+02
3.892000000000000171e+01
1.608199999999999932e+02
-3.055000000000000071e+01
-3.682699999999999818e+02
2.486100000000000136e+02
5.692999999999999972e+01
-8.381000000000000227e+01
-1.373300000000000125e+02
8.146999999999999886e+01
1.598499999999999943e+02
-3.442999999999999972e+01
-2.806700000000000159e+02
3.076499999999999773e+02
2.105300000000000011e+02
-1.980699999999999932e+02
-4.965500000000000114e+02
4.739000000000000057e+01
1.680000000000000000e+02
5.181000000000000227e+01
2.205999999999999872e+01
1.286999999999999922e+01
-1.474399999999999977e+02
3.064000000000000057e+01
-1.460999999999999943e+01
-9.390000000000000568e+01
4.054999999999999716e+01
3.365999999999999659e+01
-6.000000000000000000e+00
6.768000000000000682e+01
3.166000000000000014e+01
-2.350000000000000089e+00
3.638000000000000256e+01
-7.299999999999999822e+00
-1.135400000000000063e+02
-7.987999999999999545e+01
6.242999999999999972e+01
7.809999999999999432e+01
9.354000000000000625e+01
-3.253100000000000023e+02
1.189699999999999989e+02
1.351899999999999977e+02
1.097399999999999949e+02
-2.099699999999999989e+02
-1.035900000000000034e+02
-1.119599999999999937e+02
-1.322599999999999909e+02
3.062900000000000205e+02
-1.496000000000000085e+01
-5.100999999999999801e+01
3.545000000000000284e+01
3.510000000000000142e+01
-9.746999999999999886e+01
2.071999999999999886e+01
3.899999999999999911e+00
-3.347999999999999687e+01
1.010999999999999943e+02
-1.080000000000000071e+01
-5.459000000000000341e+01
-1.023000000000000043e+01
1.855999999999999872e+01
-2.964999999999999858e+01
-6.120000000000000107e+00
2.432000000000000028e+01
-2.746999999999999886e+01
-4.528000000000000114e+01
5.028999999999999915e+01
1.119999999999999929e+01
1.276999999999999957e+01
5.730000000000000426e+00
-3.978000000000000114e+01
-2.879999999999999893e+00
4.160000000000000142e+01
-2.314000000000000057e+01
9.900000000000000355e+00
4.000999999999999801e+01
-2.108999999999999986e+01
1.869000000000000128e+01
3.239000000000000057e+01
-3.267999999999999972e+01
3.399000000000000199e+01
2.551999999999999957e+01
-4.153999999999999915e+01
4.079999999999999716e+01
2.016000000000000014e+01
-5.077000000000000313e+01
4.499000000000000199e+01
1.244999999999999929e+01
-5.661999999999999744e+01
4.611999999999999744e+01
7.740000000000000213e+00
-5.685999999999999943e+01
3.447999999999999687e+01
-4.129999999999999893e+00
-5.592000000000000171e+01
3.607000000000000028e+01
-6.469999999999999751e+00
-3.556000000000000227e+01
4.672999999999999687e+01
-1.612999999999999901e+01
-2.348000000000000043e+01
2.525000000000000000e+01
-2.557999999999999829e+01
1.503999999999999915e+01
3.885999999999999943e+01
1.192999999999999972e+01
5.299999999999999822e+00
-2.348999999999999844e+01
-9.237000000000000455e+01
4.170000000000000284e+01
1.340000000000000036e+01
-3.847999999999999687e+01
1.567999999999999972e+01
-4.060999999999999943e+01
8.830000000000000071e+00
-8.160000000000000142e+00
-5.302000000000000313e+01
1.145300000000000011e+02
-1.066000000000000014e+01
-6.773999999999999488e+01
2.762000000000000099e+01
-3.359000000000000341e+01
5.468999999999999773e+01
3.896999999999999886e+01
-7.026000000000000512e+01
7.537000000000000455e+01
8.237999999999999545e+01
-4.497999999999999687e+01
-6.146000000000000085e+01
4.238000000000000256e+01
-2.510000000000000142e+01
-6.687000000000000455e+01
4.500999999999999801e+01
3.332999999999999829e+01
5.160000000000000142e+00
-6.940000000000000391e+00
-2.660000000000000142e+01
-5.839999999999999858e+01
1.466000000000000014e+01
2.682000000000000028e+01
-1.349000000000000021e+01
-9.619999999999999218e+00
1.939000000000000057e+01
6.089999999999999858e+00
-7.700000000000000178e+00
3.678999999999999915e+01
1.808400000000000034e+02
-2.228799999999999955e+02
-3.801000000000000227e+02
-1.372400000000000091e+02
-2.337299999999999898e+02
4.510000000000000142e+01
1.895699999999999932e+02
7.620999999999999375e+01
-9.876999999999999602e+01
1.505600000000000023e+02
-5.790999999999999659e+01
-2.307000000000000028e+01
-9.214000000000000057e+01
7.612999999999999545e+01
3.365999999999999659e+01
6.128999999999999915e+01
4.230000000000000426e+00
-8.379999999999999716e+01
-4.293999999999999773e+01
5.095000000000000284e+01
-4.169999999999999929e+00
1.973999999999999844e+01
2.480999999999999872e+01
-4.825000000000000000e+01
4.140999999999999659e+01
-2.899999999999999800e-01
-7.095999999999999375e+01
4.197999999999999687e+01
-6.910000000000000142e+00
-2.471000000000000085e+01
1.955000000000000071e+01
-2.557000000000000028e+01
-2.069999999999999840e+00
3.528000000000000114e+01
-5.164999999999999858e+01
2.119999999999999929e+01
1.937000000000000099e+01
-7.025000000000000000e+01
6.831000000000000227e+01
1.048000000000000043e+01
-7.292000000000000171e+01
5.275999999999999801e+01
8.080000000000000071e+00
-5.453999999999999915e+01
4.442000000000000171e+01
2.946999999999999886e+01
2.630999999999999872e+01
-3.339000000000000057e+01
-2.902799999999999727e+02
8.540000000000000568e+01
4.498500000000000227e+02
-4.639800000000000182e+02
-4.620000000000000107e+00
2.236299999999999955e+02
7.387999999999999545e+01
-1.603700000000000045e+02
8.804999999999999716e+01
3.620000000000000107e+00
-2.053000000000000114e+01
3.779999999999999716e+01
-2.539999999999999858e+01
-7.204000000000000625e+01
-1.166999999999999993e+01
-1.941000000000000014e+01
-4.189999999999999858e+01
3.067000000000000171e+01
-1.390000000000000036e+01
3.217000000000000171e+01
1.406000000000000050e+01
-6.296000000000000085e+01
7.567000000000000171e+01
-6.254999999999999716e+01
4.506000000000000227e+01
-9.476999999999999602e+01
-1.136599999999999966e+02
-7.818999999999999773e+01
-8.687999999999999545e+01
2.349399999999999977e+02
1.952500000000000000e+02
9.257999999999999829e+01
-4.221000000000000085e+01
4.379999999999999893e+00
2.229999999999999982e+00
-3.345000000000000284e+01
2.492000000000000171e+01
1.176999999999999957e+01
1.415000000000000036e+01
-4.340999999999999659e+01
-8.071999999999999886e+01
2.546000000000000085e+01
1.101999999999999957e+01
-3.867999999999999972e+01
3.799000000000000199e+01
-1.546000000000000085e+01
-7.295000000000000284e+01
2.914999999999999858e+01
1.042999999999999972e+01
-8.949999999999999289e+00
-8.830000000000000071e+00
-1.655000000000000071e+01
1.283000000000000007e+01
5.000000000000000000e+01
1.513499999999999943e+02
8.693000000000000682e+01
-4.337900000000000205e+02
1.632000000000000028e+01
3.270000000000000018e+00
-9.604000000000000625e+01
-5.557000000000000028e+01
9.887000000000000455e+01
1.078700000000000045e+02
5.147999999999999687e+01
3.289599999999999795e+02
-3.606899999999999977e+02
-1.995900000000000034e+02
3.259100000000000250e+02
1.480000000000000000e+02
1.135300000000000011e+02
2.748999999999999844e+01
3.685999999999999943e+01
-2.141500000000000057e+02
-1.197300000000000040e+02
2.250099999999999909e+02
-5.375000000000000000e+01
6.382000000000000028e+01
-1.039099999999999966e+02
-1.027000000000000028e+02
-1.555900000000000034e+02
2.336100000000000136e+02
3.114000000000000057e+01
-2.737699999999999818e+02
-1.363199999999999932e+02
2.049999999999999822e+00
4.911999999999999744e+01
5.263000000000000256e+01
-9.579000000000000625e+01
6.096999999999999886e+01
-1.790000000000000036e+00
1.158400000000000034e+02
2.112000000000000099e+01
6.818000000000000682e+01
1.343700000000000045e+02
6.429999999999999716e+00
-4.972999999999999687e+01
-8.150000000000000355e+00
-2.142999999999999972e+01
-4.192000000000000171e+01
6.692000000000000171e+01
-3.364000000000000057e+01
-5.019999999999999574e+00
-2.508999999999999986e+01
-9.184000000000000341e+01
-2.700000000000000178e-01
9.126000000000000512e+01
3.788000000000000256e+01
3.593999999999999773e+01
-5.799999999999999600e-01
4.335999999999999943e+01
1.381399999999999864e+02
-4.288000000000000256e+01
2.446999999999999886e+01
-1.119500000000000028e+02
-1.274300000000000068e+02
-9.150000000000000355e+00
2.160000000000000142e+00
-1.707999999999999829e+01
4.738000000000000256e+01
1.175999999999999979e+01
-5.459999999999999964e+00
4.171999999999999886e+01
3.702000000000000313e+01
-4.160000000000000142e+00
-9.300000000000000488e-01
-4.250000000000000000e+01
-1.850000000000000000e+01
2.455000000000000071e+01
-4.730000000000000426e+00
-1.484999999999999964e+01
-2.942000000000000171e+01
-6.899999999999999467e-01
4.365999999999999659e+01
8.919999999999999929e+00
8.109999999999999432e+00
5.696000000000000085e+01
2.392999999999999972e+01
-1.782000000000000028e+01
8.189999999999999503e+00
3.813000000000000256e+01
1.093599999999999994e+02
-1.170000000000000000e+02
-7.673999999999999488e+01
-8.570999999999999375e+01
4.669999999999999929e+00
-3.470000000000000195e+00
3.982000000000000028e+01
4.261999999999999744e+01
-2.323999999999999844e+01
1.094999999999999929e+01
-1.985999999999999943e+01
-2.189999999999999858e+01
5.407999999999999829e+01
2.442999999999999972e+01
1.391000000000000014e+01
-9.810000000000000497e+00
-5.965999999999999659e+01
1.637000000000000099e+01
-1.000000000000000021e-02
-3.981000000000000227e+01
1.867999999999999972e+01
-1.383000000000000007e+01
3.629999999999999893e+00
4.538000000000000256e+01
2.839000000000000057e+01
-1.379999999999999893e+00
-2.521999999999999886e+01
-7.848000000000000398e+01
3.953999999999999915e+01
2.241000000000000014e+01
-3.534000000000000341e+01
4.831000000000000227e+01
9.660000000000000142e+00
-4.310999999999999943e+01
3.071999999999999886e+01
6.530000000000000249e+00
-3.897999999999999687e+01
2.830000000000000071e+01
2.051000000000000156e+01
-4.314999999999999858e+01
-1.570000000000000062e+00
1.158000000000000007e+01
-2.669999999999999929e+01
2.837000000000000099e+01
4.497999999999999687e+01
1.694000000000000128e+01
2.971999999999999886e+01
-1.733999999999999986e+01
-3.634000000000000341e+01
-1.958999999999999986e+01
2.278999999999999915e+01
1.819000000000000128e+01
-2.480000000000000071e+01
-8.793000000000000682e+01
5.411999999999999744e+01
1.387400000000000091e+02
-1.350600000000000023e+02
-2.435999999999999943e+01
2.107000000000000028e+01
2.810000000000000142e+01
3.643999999999999773e+01
1.080400000000000063e+02
2.373999999999999844e+01
-7.417000000000000171e+01
1.186999999999999922e+01
-3.497999999999999687e+01
-7.631000000000000227e+01
-2.539000000000000057e+01
5.268999999999999773e+01
-3.950000000000000178e+00
7.104999999999999716e+01
3.871999999999999886e+01
-5.439000000000000057e+01
-3.400999999999999801e+01
-9.669999999999999929e+00
-2.548999999999999844e+01
1.199999999999999956e+00
-1.635999999999999943e+01
-1.401299999999999955e+02
-1.635999999999999943e+01
1.778000000000000114e+01
2.712999999999999901e+01
2.908999999999999986e+01
2.792000000000000171e+01
-1.414000000000000057e+01
-2.879399999999999977e+02
3.024100000000000250e+02
1.083999999999999986e+01
4.979200000000000159e+02
-2.263400000000000034e+02
-7.956999999999999318e+01
-4.032999999999999829e+01
-5.714999999999999858e+01
1.244999999999999929e+01
2.776999999999999957e+01
-3.528000000000000114e+01
-2.928000000000000114e+01
-3.044999999999999929e+01
3.192000000000000171e+01
2.446000000000000085e+01
-1.017999999999999972e+01
3.367999999999999972e+01
1.651999999999999957e+01
-1.086999999999999922e+01
4.559000000000000341e+01
-1.060999999999999943e+01
3.436999999999999744e+01
-7.080000000000000071e+00
-6.889000000000000057e+01
-1.232000000000000028e+01
6.956999999999999318e+01
5.129999999999999716e+01
-7.240000000000000213e+00
3.968999999999999773e+01
1.020000000000000000e+02
-4.684000000000000341e+01
-1.776800000000000068e+02
5.597999999999999687e+01
1.814099999999999966e+02
6.225000000000000000e+01
-7.615000000000000568e+01
-7.870000000000000107e+00
4.035000000000000142e+01
2.050000000000000000e+01
-7.595000000000000284e+01
-2.020600000000000023e+02
9.937999999999999545e+01
-4.568100000000000023e+02
3.137799999999999727e+02
-1.151999999999999957e+01
-1.445099999999999909e+02
-2.963600000000000136e+02
-9.619999999999999218e+00
5.729999999999999716e+01
9.517000000000000171e+01
-3.965999999999999659e+01
-2.662999999999999901e+01
-2.037999999999999901e+01
-1.862999999999999901e+01
4.321999999999999886e+01
7.771999999999999886e+01
1.932800000000000011e+02
4.951800000000000068e+02
8.081999999999999318e+01
-6.840000000000000568e+01
-1.191500000000000057e+02
-1.726999999999999957e+01
-2.216000000000000014e+01
6.210000000000000142e+01
8.848999999999999488e+01
1.521000000000000085e+01
-3.617000000000000171e+01
2.237999999999999901e+01
-1.452999999999999936e+01
-2.667000000000000171e+01
2.512999999999999901e+01
-1.789000000000000057e+01
-3.171000000000000085e+01
3.763000000000000256e+01
8.500000000000000000e+00
-1.967999999999999972e+01
-4.179999999999999716e+00
4.849999999999999645e+00
-3.339999999999999858e+00
-1.757999999999999829e+01
-9.619999999999999218e+00
-2.751000000000000156e+01
-3.153000000000000114e+01
1.250999999999999979e+01
-2.376000000000000156e+01
-1.623000000000000043e+01
1.823000000000000043e+01
1.475000000000000000e+01
-2.078000000000000114e+01
3.345000000000000284e+01
7.299999999999999822e-01
-2.290000000000000036e+00
1.085499999999999972e+02
1.420200000000000102e+02
-1.572899999999999920e+02
-1.176299999999999955e+02
-1.970200000000000102e+02
-2.202800000000000011e+02
5.310499999999999545e+02
-1.710699999999999932e+02
6.329999999999999716e+01
3.187799999999999727e+02
1.000199999999999960e+02
7.829999999999999716e+01
-1.213700000000000045e+02
-1.692899999999999920e+02
-2.853999999999999915e+01
5.210399999999999636e+02
-1.163900000000000006e+02
-6.299000000000000199e+01
1.802899999999999920e+02
-1.149599999999999937e+02
-5.098000000000000114e+02
-4.856000000000000227e+01
4.953700000000000045e+02
2.838999999999999773e+02
1.962999999999999901e+01
-2.469499999999999886e+02
-2.939800000000000182e+02
-1.021500000000000057e+02
1.419300000000000068e+02
2.594000000000000128e+01
-6.400000000000000133e-01
-1.604699999999999989e+02
-1.152399999999999949e+02
-3.073000000000000043e+01
5.447999999999999687e+01
2.035600000000000023e+02
4.233199999999999932e+02
1.043599999999999994e+02
2.342999999999999972e+01
-1.399000000000000021e+01
-2.037999999999999901e+01
-1.398000000000000043e+01
-1.585999999999999943e+01
-1.207000000000000028e+01
-6.410000000000000142e+00
-6.339999999999999858e+00
4.809999999999999609e+00
-7.580000000000000071e+00
3.459999999999999964e+00
8.845000000000000284e+01
2.162000000000000099e+01
-8.270999999999999375e+01
-3.585000000000000142e+01
-2.958999999999999986e+01
-4.832000000000000028e+01
1.267600000000000051e+02
2.564000000000000057e+01
-1.154399999999999977e+02
1.066000000000000014e+01
-1.159999999999999964e+01
-5.595000000000000284e+01
-1.292999999999999972e+01
9.951999999999999602e+01
-2.100000000000000000e+01
-7.832999999999999829e+01
3.567999999999999972e+01
7.679999999999999716e+01
-8.907999999999999829e+01
-5.999999999999999778e-02
1.265699999999999932e+02
-7.885999999999999943e+01
-9.181000000000000227e+01
1.065900000000000034e+02
-9.693999999999999773e+01
-3.436999999999999744e+01
8.709999999999999432e+01
2.323999999999999844e+01
-8.059000000000000341e+01
-2.132999999999999829e+01
6.800000000000000488e-01
1.121800000000000068e+02
6.509999999999999432e+01
-6.864000000000000057e+01
-7.370999999999999375e+01
-1.168999999999999950e+01
2.960999999999999943e+01
-6.425000000000000000e+01
-1.199999999999999956e-01
2.000000000000000042e-02
5.372999999999999687e+01
1.778000000000000114e+02
5.120000000000000107e+00
-1.510800000000000125e+02
1.108599999999999994e+02
2.830999999999999872e+01
-1.410699999999999932e+02
-3.346999999999999886e+01
-2.620000000000000107e+00
7.910000000000000142e+00
2.912999999999999901e+01
7.690000000000000391e+00
3.890000000000000124e+00
-3.189999999999999947e+00
-2.999999999999999889e-01
8.449999999999999289e+00
5.292999999999999972e+01
1.091700000000000017e+02
-8.551999999999999602e+01
-7.618999999999999773e+01
-2.528999999999999915e+01
-3.347999999999999687e+01
7.589999999999999858e+00
-2.880000000000000071e+01
3.192000000000000171e+01
2.042000000000000171e+01
-4.910000000000000142e+00
5.922999999999999687e+01
8.342000000000000171e+01
-1.552199999999999989e+02
4.740999999999999659e+01
-1.776999999999999957e+01
-7.168000000000000682e+01
3.160000000000000142e+00
-3.445000000000000284e+01
8.750000000000000000e+00
3.807000000000000028e+01
1.998999999999999844e+01
8.993000000000000682e+01
2.294000000000000128e+01
-3.270000000000000284e+01
-5.020000000000000284e+01
1.928000000000000114e+01
-3.295000000000000284e+01
1.601999999999999957e+01
7.230000000000000426e+00
7.990000000000000213e+00
-2.085999999999999943e+01
-1.000999999999999979e+01
4.780000000000000249e+00
1.505000000000000071e+01
7.349999999999999645e+00
-1.958999999999999986e+01
6.809999999999999609e+00
-1.400000000000000000e+01
-1.111999999999999922e+01
3.400999999999999801e+01
-2.778000000000000114e+01
2.137000000000000099e+01
1.178999999999999915e+01
2.808999999999999986e+01
1.719000000000000128e+01
3.075000000000000000e+01
-3.740000000000000213e+00
-2.307000000000000028e+01
2.351999999999999957e+01
-2.189000000000000057e+01
1.483000000000000007e+01
9.043000000000000682e+01
-1.862199999999999989e+02
-4.318999999999999773e+01
-2.051999999999999886e+02
6.776999999999999602e+01
-1.899999999999999911e+00
-1.751000000000000156e+01
6.690000000000000391e+00
-7.120000000000000107e+00
2.835000000000000142e+01
1.250999999999999979e+01
-4.310000000000000142e+01
2.126999999999999957e+01
4.411999999999999744e+01
2.971000000000000085e+01
7.900000000000000355e+00
-1.639999999999999858e+01
-2.994000000000000128e+01
-1.000999999999999979e+01
2.880000000000000071e+01
8.730000000000000426e+00
-7.120000000000000107e+00
-1.651000000000000156e+01
-1.817000000000000171e+01
6.600000000000000311e-01
-3.265999999999999659e+01
3.628000000000000114e+01
4.528999999999999915e+01
1.281000000000000050e+01
-2.130999999999999872e+01
-2.057999999999999829e+01
-4.228000000000000114e+01
7.339999999999999858e+00
3.470000000000000195e+00
-4.259999999999999787e+00
1.269999999999999929e+01
5.239000000000000057e+01
-3.309000000000000341e+01
-1.159999999999999964e+01
-4.356000000000000227e+01
3.080000000000000071e+00
-0.000000000000000000e+00
-2.376000000000000156e+01
2.355999999999999872e+01
7.849999999999999645e+00
-3.892999999999999972e+01
3.559000000000000341e+01
3.660999999999999943e+01
2.992999999999999972e+01
3.392999999999999972e+01
-3.182000000000000028e+01
-5.139999999999999680e+00
-3.247999999999999687e+01
-1.692000000000000171e+01
1.577999999999999936e+01
1.368999999999999950e+01
-1.094999999999999929e+01
1.576999999999999957e+01
1.263000000000000078e+01
-2.042000000000000171e+01
4.822999999999999687e+01
7.250000000000000000e+01
-9.520999999999999375e+01
-1.261999999999999922e+01
-5.100000000000000089e-01
-2.491000000000000014e+01
3.540000000000000036e+00
9.509999999999999787e+00
-2.264000000000000057e+01
2.966000000000000014e+01
1.510999999999999943e+01
1.429999999999999938e+00
-7.730000000000000426e+00
2.582999999999999829e+01
1.127999999999999936e+01
-1.596000000000000085e+01
3.596000000000000085e+01
-3.160999999999999943e+01
-3.096999999999999886e+01
-1.042999999999999972e+01
6.150000000000000355e+00
6.860000000000000320e+00
9.169999999999999929e+00
1.472000000000000064e+01
2.841000000000000014e+01
4.582999999999999829e+01
-1.207800000000000011e+02
-8.699999999999999956e-01
-1.041000000000000014e+01
-1.423000000000000043e+01
1.257000000000000028e+01
3.709999999999999964e+00
-1.424000000000000021e+01
1.277999999999999936e+01
-6.650000000000000355e+00
-3.295000000000000284e+01
6.756000000000000227e+01
4.511999999999999744e+01
-5.175000000000000000e+01
3.051999999999999957e+01
-4.257000000000000028e+01
-1.317999999999999972e+01
-2.405000000000000071e+01
-1.998999999999999844e+01
2.917999999999999972e+01
1.476999999999999957e+01
8.830000000000000071e+00
-1.469999999999999973e+00
-5.410000000000000142e+00
-1.046000000000000085e+01
3.117999999999999972e+01
1.088000000000000078e+01
-1.962999999999999901e+01
-1.500000000000000000e+00
-9.269999999999999574e+00
-2.196999999999999886e+01
-3.470000000000000195e+00
-2.101999999999999957e+01
-3.290000000000000036e+00
5.349999999999999645e+00
-2.239000000000000057e+01
2.135999999999999943e+01
7.759999999999999787e+00
-3.436999999999999744e+01
2.248000000000000043e+01
7.469999999999999751e+00
-2.589000000000000057e+01
2.300000000000000000e+01
-3.069999999999999840e+00
-3.520000000000000284e+01
-2.790199999999999818e+02
2.880299999999999727e+02
1.785000000000000142e+01
-3.087000000000000099e+01
5.618999999999999773e+01
7.240999999999999659e+01
-2.295200000000000102e+02
3.084300000000000068e+02
-2.443600000000000136e+02
-7.603000000000000114e+01
-1.083199999999999932e+02
1.285800000000000125e+02
-9.349999999999999645e+00
5.218999999999999773e+01
-4.418999999999999773e+01
-7.743000000000000682e+01
4.319100000000000250e+02
-6.695000000000000284e+01
2.017999999999999972e+01
-9.798999999999999488e+01
-1.811299999999999955e+02
2.353600000000000136e+02
-2.894000000000000128e+01
2.498300000000000125e+02
-2.757699999999999818e+02
-2.050600000000000023e+02
1.779399999999999977e+02
3.126499999999999773e+02
9.179000000000000625e+01
-1.429300000000000068e+02
-8.326000000000000512e+01
-7.015000000000000568e+01
2.386500000000000057e+02
5.999999999999999778e-01
-1.000499999999999972e+02
2.323000000000000043e+01
4.028999999999999915e+01
3.921000000000000085e+01
1.769999999999999929e+01
-4.875999999999999801e+01
1.600000000000000089e+00
4.303000000000000114e+01
2.014999999999999858e+01
1.231000000000000050e+01
-2.578000000000000114e+01
-1.394999999999999929e+01
9.380000000000000782e+00
-2.321999999999999886e+01
-8.900000000000000355e+00
8.240999999999999659e+01
-4.767000000000000171e+01
2.226000000000000156e+01
-1.551599999999999966e+02
7.745000000000000284e+01
-6.280000000000000249e+00
-2.991000000000000014e+01
7.198000000000000398e+01
6.751999999999999602e+01
-5.784000000000000341e+01
-4.432000000000000028e+01
5.590999999999999659e+01
-5.400000000000000355e-01
2.242000000000000171e+01
-1.016899999999999977e+02
-1.303999999999999915e+01
-1.322000000000000064e+01
1.056000000000000050e+01
-6.957999999999999829e+01
5.085999999999999943e+01
5.725000000000000000e+01
-7.423999999999999488e+01
4.190000000000000391e+00
-1.281000000000000050e+01
-2.626999999999999957e+01
3.128999999999999915e+01
5.980000000000000426e+00
-8.730000000000000426e+00
-4.922999999999999687e+01
2.359999999999999876e+00
-2.410000000000000142e+01
3.046000000000000085e+01
1.192999999999999972e+01
-1.363000000000000078e+01
1.180000000000000071e+01
-7.740000000000000213e+00
-7.509999999999999787e+00
8.710000000000000853e+00
-9.960000000000000853e+00
-3.699999999999999956e-01
2.667000000000000171e+01
-2.883999999999999986e+01
-5.078999999999999915e+01
-3.899000000000000199e+01
2.378000000000000114e+02
4.250000000000000000e+00
6.584999999999999432e+01
2.285900000000000034e+02
-1.836200000000000045e+02
-2.104499999999999886e+02
-1.277000000000000028e+02
-5.349800000000000182e+02
-1.905000000000000000e+02
3.863199999999999932e+02
1.822599999999999909e+02
8.751000000000000512e+01
-3.699999999999999956e-01
5.799000000000000199e+01
1.357500000000000000e+02
3.301999999999999886e+02
-5.871900000000000546e+02
-2.738199999999999932e+02
6.223999999999999773e+02
-1.979499999999999886e+02
-3.490400000000000205e+02
2.238300000000000125e+02
4.145099999999999909e+02
2.035000000000000000e+02
-3.253000000000000114e+01
8.907999999999999829e+01
-1.655200000000000102e+02
3.839999999999999858e+00
-1.935000000000000142e+01
-7.331000000000000227e+01
-4.567000000000000171e+01
4.807000000000000028e+01
7.050000000000000000e+01
2.800199999999999818e+02
-1.955300000000000011e+02
-2.015900000000000034e+02
-4.922999999999999687e+01
6.656000000000000227e+01
2.101699999999999875e+02
2.226800000000000068e+02
-8.140000000000000568e+00
1.910999999999999943e+01
-2.514000000000000057e+01
-8.325000000000000000e+01
-3.460999999999999943e+01
-1.101999999999999957e+01
5.200000000000000178e+00
6.199999999999999956e-01
-4.919999999999999929e+00
1.260000000000000009e+00
1.159999999999999920e+00
-5.150000000000000355e+00
3.439999999999999947e+00
6.410000000000000142e+00
-7.839999999999999858e+00
4.599999999999999645e+00
5.309999999999999609e+00
-1.080000000000000071e+01
-1.712000000000000099e+01
2.700000000000000000e+01
1.158000000000000007e+01
-7.690000000000000391e+00
1.808999999999999986e+01
3.892000000000000171e+01
5.565999999999999659e+01
1.341200000000000045e+02
-2.924200000000000159e+02
3.746999999999999886e+01
1.442100000000000080e+02
-8.742000000000000171e+01
2.823999999999999844e+01
1.400999999999999943e+02
-2.574700000000000273e+02
-1.010999999999999943e+02
-9.399999999999999467e-01
1.781500000000000057e+02
-7.549999999999999822e+00
-5.721999999999999886e+01
-1.182099999999999937e+02
-2.312999999999999901e+01
-3.144999999999999929e+01
1.643100000000000023e+02
1.262099999999999937e+02
-4.139499999999999886e+02
2.191999999999999886e+02
4.360000000000000320e+00
-1.678000000000000114e+01
-2.337700000000000102e+02
4.882999999999999829e+01
9.018000000000000682e+01
9.178000000000000114e+01
5.226699999999999591e+02
8.759000000000000341e+01
-6.692000000000000171e+01
-1.942500000000000000e+02
-2.286599999999999966e+02
2.090099999999999909e+02
-1.916399999999999864e+02
-3.157599999999999909e+02
-5.817000000000000171e+01
2.570199999999999818e+02
1.111200000000000045e+02
6.725000000000000000e+01
9.031000000000000227e+01
9.080000000000000071e+00
-4.807999999999999829e+01
6.352000000000000313e+01
1.535600000000000023e+02
3.880799999999999841e+02
-2.493199999999999932e+02
-1.076400000000000006e+02
-2.260999999999999943e+01
-7.187999999999999545e+01
-4.128000000000000114e+01
-1.296200000000000045e+02
-3.239000000000000057e+01
1.614099999999999966e+02
3.993600000000000136e+02
1.315500000000000114e+02
-1.915500000000000114e+02
-7.904000000000000625e+01
-6.612000000000000455e+01
4.521000000000000085e+01
-4.671000000000000085e+01
3.035000000000000142e+01
1.426599999999999966e+02
1.451299999999999955e+02
-4.254800000000000182e+02
1.399799999999999898e+02
-5.623500000000000227e+02
-1.664399999999999977e+02
3.642300000000000182e+02
2.703799999999999955e+02
-1.492999999999999972e+01
-1.499999999999999944e-01
1.814999999999999858e+01
-1.280999999999999943e+02
-6.075000000000000000e+01
7.181000000000000227e+01
-1.543999999999999950e+01
9.284999999999999432e+01
-9.869999999999999218e+00
-2.039000000000000057e+01
4.457999999999999829e+01
-2.328000000000000114e+01
-9.948999999999999488e+01
-1.281100000000000136e+02
3.096000000000000085e+01
1.086899999999999977e+02
9.839999999999999858e+00
-7.068000000000000682e+01
-9.428000000000000114e+01
1.541999999999999886e+02
-1.131299999999999955e+02
1.360000000000000098e+00
1.286299999999999955e+02
-7.664000000000000057e+01
3.771000000000000085e+01
5.671999999999999886e+01
-2.178000000000000114e+02
-2.869999999999999929e+01
6.687000000000000455e+01
-2.355000000000000071e+01
-2.435000000000000142e+01
1.846000000000000085e+01
1.309999999999999964e+01
8.560000000000000497e+00
4.500000000000000000e+00
1.360000000000000098e+00
-8.900000000000000133e-01
-2.250000000000000000e+00
9.629000000000000625e+01
2.308199999999999932e+02
3.426000000000000227e+02
-7.112000000000000455e+01
-2.883799999999999955e+02
-7.656799999999999500e+02
-2.569499999999999886e+02
3.484800000000000182e+02
2.245900000000000034e+02
8.048999999999999488e+01
2.312999999999999901e+01
-2.171000000000000085e+01
-7.339999999999999858e+00
2.289999999999999858e+01
2.000000000000000111e-01
1.268999999999999950e+01
-1.399999999999999911e+00
-7.309999999999999609e+00
2.207999999999999829e+01
5.910000000000000142e+00
-8.199999999999999289e+00
5.070000000000000284e+00
6.419999999999999929e+00
-6.906999999999999318e+01
3.046999999999999886e+01
1.344999999999999929e+01
3.729999999999999982e+00
-6.339999999999999858e+01
-8.550000000000000711e+00
3.320000000000000284e+01
1.159999999999999964e+01
-7.900000000000000355e-01
-1.330000000000000071e+00
2.200000000000000011e-01
-1.223000000000000043e+01
2.800000000000000266e-01
4.839999999999999858e+00
-1.222000000000000064e+01
1.024000000000000021e+01
4.000000000000000000e+00
-1.436999999999999922e+01
1.481000000000000050e+01
3.200000000000000000e+01
9.912999999999999545e+01
2.500399999999999920e+02
2.881600000000000250e+02
-1.879199999999999875e+02
-2.178600000000000136e+02
-8.547100000000000364e+02
-2.506200000000000045e+02
7.112999999999999545e+01
1.927500000000000000e+02
8.881000000000000227e+01
4.085899999999999750e+02
1.879499999999999886e+02
-3.180000000000000160e+00
-1.575000000000000000e+01
1.078999999999999915e+01
-1.005000000000000071e+01
-9.769999999999999574e+00
-1.419999999999999929e+00
-1.819999999999999929e+01
1.510000000000000009e+00
-4.509999999999999787e+00
-2.264999999999999858e+01
1.432000000000000028e+01
-3.069999999999999840e+00
-2.621999999999999886e+01
2.844000000000000128e+01
2.110999999999999943e+01
-3.628999999999999915e+01
7.030000000000000249e+00
2.094000000000000128e+01
-1.514000000000000057e+01
-1.641000000000000014e+01
-3.578000000000000114e+01
-1.371800000000000068e+02
1.124599999999999937e+02
2.042000000000000171e+01
1.410000000000000000e+02
3.278000000000000114e+01
-6.172999999999999687e+01
1.332700000000000102e+02
-4.578999999999999915e+01
-1.750000000000000000e+01
3.772999999999999687e+01
-5.047999999999999687e+01
-4.415299999999999727e+02
1.967299999999999898e+02
1.856399999999999864e+02
-2.283600000000000136e+02
2.678899999999999864e+02
-7.939000000000000057e+01
1.102399999999999949e+02
-2.641000000000000014e+01
2.259999999999999787e+00
-2.700000000000000000e+01
1.294999999999999929e+01
-1.117999999999999972e+01
2.301000000000000156e+01
1.475000000000000000e+01
-1.694999999999999929e+01
3.950000000000000178e+00
-3.979999999999999982e+00
7.030000000000000249e+00
9.470000000000000639e+00
-1.639999999999999902e+00
1.078999999999999915e+01
7.209999999999999964e+00
-6.730000000000000426e+00
9.509999999999999787e+00
2.620000000000000107e+00
-5.610000000000000320e+00
5.969999999999999751e+00
-7.800000000000000266e-01
3.020000000000000018e+00
1.000000000000000021e-02
-5.780000000000000249e+00
5.349999999999999645e+00
-2.950000000000000178e+00
-9.810000000000000497e+00
7.490000000000000213e+00
5.135000000000000142e+01
1.229999999999999982e+00
-1.899999999999999911e+00
-4.120000000000000107e+00
-2.271999999999999886e+01
1.568300000000000125e+02
-9.626999999999999602e+01
-7.389999999999999680e+00
1.163000000000000078e+01
-1.654600000000000080e+02
-6.660000000000000142e+00
1.084300000000000068e+02
-6.725000000000000000e+01
1.513000000000000078e+01
2.555000000000000071e+01
1.308999999999999986e+01
2.830000000000000071e+00
-1.817999999999999972e+01
1.810999999999999943e+01
2.576999999999999957e+01
-2.573999999999999844e+01
-5.019999999999999574e+00
1.000999999999999979e+01
1.110999999999999943e+01
6.712999999999999545e+01
-2.077299999999999898e+02
8.571999999999999886e+01
6.729000000000000625e+01
8.669999999999999929e+00
-1.554199999999999875e+02
3.368999999999999773e+01
-4.782000000000000028e+01
1.525000000000000000e+01
2.987000000000000099e+01
8.370999999999999375e+01
-5.549000000000000199e+01
-6.559000000000000341e+01
-3.532999999999999829e+01
-3.893999999999999773e+01
7.582999999999999829e+01
2.944999999999999929e+01
1.186999999999999922e+01
8.593000000000000682e+01
-2.065099999999999909e+02
-1.250799999999999983e+02
4.529999999999999716e+01
7.420000000000000284e+01
-1.899999999999999911e+00
7.335999999999999943e+01
1.192099999999999937e+02
-1.048299999999999983e+02
-1.743600000000000136e+02
3.147699999999999818e+02
-1.899900000000000091e+02
-8.821999999999999886e+01
3.557599999999999909e+02
-1.989499999999999886e+02
-1.715300000000000011e+02
1.119800000000000040e+02
3.252799999999999727e+02
-2.480399999999999920e+02
9.890000000000000568e+00
-4.200999999999999801e+01
-1.493999999999999950e+01
-3.407300000000000182e+02
2.989999999999999858e+01
2.517599999999999909e+02
4.208999999999999773e+02
5.896999999999999886e+01
-1.594999999999999929e+01
-4.928000000000000114e+01
-4.277000000000000313e+01
1.204300000000000068e+02
-1.923499999999999943e+02
1.882899999999999920e+02
-3.685999999999999943e+01
-1.848999999999999844e+01
-1.626999999999999957e+01
-1.732000000000000028e+01
-1.826000000000000156e+01
-4.280000000000000249e+00
2.123999999999999844e+01
7.190999999999999659e+01
2.218199999999999932e+02
-3.313000000000000114e+02
-8.526000000000000512e+01
6.190999999999999659e+01
-3.839999999999999858e+00
5.306000000000000227e+01
-1.550000000000000044e+00
-2.892000000000000171e+01
-2.137999999999999901e+01
-2.478999999999999915e+01
-1.669000000000000128e+01
-2.807300000000000182e+02
-6.381900000000000546e+02
4.251399999999999864e+02
2.048999999999999844e+01
1.615399999999999920e+02
-1.619499999999999886e+02
-1.404000000000000057e+02
1.508899999999999864e+02
-5.529999999999999716e+01
1.790300000000000011e+02
-1.081299999999999955e+02
-3.239000000000000057e+01
5.095000000000000284e+01
-1.579499999999999886e+02
7.896999999999999886e+01
1.546000000000000085e+01
-5.747999999999999687e+01
7.784999999999999432e+01
-5.678999999999999915e+01
8.050000000000000711e+00
-1.026500000000000057e+02
2.150800000000000125e+02
9.106000000000000227e+01
-1.633400000000000034e+02
8.412999999999999545e+01
-1.247199999999999989e+02
-1.385999999999999943e+01
3.407000000000000028e+01
9.948000000000000398e+01
-4.530000000000000249e+00
2.655999999999999872e+01
2.496000000000000085e+01
-2.291000000000000014e+01
-5.820000000000000284e+00
4.459999999999999964e+00
1.848999999999999844e+01
-3.609000000000000341e+01
-1.771000000000000085e+01
3.711999999999999744e+01
4.317999999999999972e+01
5.969999999999999751e+00
1.708999999999999986e+01
5.440999999999999659e+01
-2.063600000000000136e+02
1.730999999999999872e+01
2.037999999999999901e+01
1.039000000000000057e+01
-2.939999999999999947e+00
2.619999999999999929e+01
-6.628000000000000114e+01
8.384000000000000341e+01
-6.589000000000000057e+01
7.280000000000000249e+00
2.796000000000000085e+01
3.620000000000000284e+01
1.070600000000000023e+02
7.860999999999999943e+01
-1.277999999999999972e+02
-1.213599999999999994e+02
1.000000000000000056e-01
-1.164000000000000057e+01
1.566000000000000014e+01
1.973000000000000043e+01
4.115999999999999659e+01
8.650000000000000355e+00
3.385000000000000142e+01
-8.012000000000000455e+01
1.117399999999999949e+02
-5.040000000000000036e+00
-2.601999999999999957e+01
1.023000000000000043e+01
-9.890000000000000568e+00
2.062000000000000099e+01
-4.121999999999999886e+01
-6.940000000000000391e+00
-2.960999999999999943e+01
-2.025000000000000000e+01
8.890000000000000568e+00
-6.019999999999999574e+00
-1.867999999999999972e+01
6.629999999999999893e+00
-3.403999999999999915e+01
2.175000000000000000e+01
5.171999999999999886e+01
2.157000000000000028e+01
-1.708999999999999986e+01
5.929999999999999716e+00
1.352999999999999936e+01
-2.109999999999999876e+00
1.519999999999999929e+01
9.349999999999999645e+00
7.219999999999999751e+00
1.728000000000000114e+01
1.475999999999999979e+01
-7.706999999999999318e+01
-2.019999999999999929e+01
1.189999999999999947e+00
-1.171000000000000085e+01
2.919999999999999929e+00
1.785000000000000142e+01
-2.250000000000000000e+01
-9.839999999999999858e+00
4.352000000000000313e+01
1.614600000000000080e+02
-1.328999999999999915e+01
-3.464000000000000057e+01
-1.216400000000000006e+02
1.002999999999999936e+01
8.890000000000000568e+00
-2.587999999999999901e+01
5.200999999999999801e+01
-8.259999999999999787e+00
-6.437000000000000455e+01
1.816000000000000014e+01
4.843999999999999773e+01
2.709999999999999964e+00
-4.560000000000000142e+01
2.330999999999999872e+01
-6.648000000000000398e+01
-4.046999999999999886e+01
-8.050000000000000711e+00
-4.977000000000000313e+01
2.171000000000000085e+01
-1.259999999999999964e+01
-6.849999999999999645e+00
-6.199000000000000199e+01
1.685999999999999943e+01
1.059999999999999964e+01
-2.298999999999999844e+01
4.757000000000000028e+01
2.892999999999999972e+01
-5.124000000000000199e+01
7.457999999999999829e+01
1.696000000000000085e+01
-9.714000000000000057e+01
8.207999999999999829e+01
4.059000000000000341e+01
5.503000000000000114e+01
-2.282999999999999829e+01
-1.014500000000000028e+02
-8.326999999999999602e+01
2.308999999999999986e+01
4.202000000000000313e+01
-3.221999999999999886e+01
1.050000000000000044e+00
3.109999999999999876e+00
3.422999999999999687e+01
1.159999999999999964e+01
-1.163000000000000078e+01
2.028000000000000114e+01
1.041999999999999993e+01
-7.495000000000000284e+01
7.962000000000000455e+01
-1.121099999999999994e+02
1.342899999999999920e+02
-1.993700000000000045e+02
2.266800000000000068e+02
-1.498499999999999943e+02
-5.219999999999999751e+00
-5.238000000000000256e+01
1.310699999999999932e+02
2.128999999999999915e+01
8.554000000000000625e+01
-2.525999999999999943e+02
1.919699999999999989e+02
2.955999999999999872e+01
1.001500000000000057e+02
-2.014900000000000091e+02
-2.376100000000000136e+02
3.023100000000000023e+02
-2.082000000000000028e+01
-1.316100000000000136e+02
3.565500000000000114e+02
-2.382599999999999909e+02
-1.087800000000000011e+02
1.666399999999999864e+02
-6.485999999999999943e+01
7.734999999999999432e+01
-6.467000000000000171e+01
2.573999999999999844e+01
7.889000000000000057e+01
6.221999999999999886e+01
1.627599999999999909e+02
9.445000000000000284e+01
-1.116700000000000017e+02
-2.065200000000000102e+02
5.432999999999999829e+01
2.180600000000000023e+02
1.431200000000000045e+02
-2.112899999999999920e+02
-1.654900000000000091e+02
-5.289000000000000057e+01
-7.321999999999999886e+01
-1.289199999999999875e+02
1.345699999999999932e+02
-2.125000000000000000e+01
8.710999999999999943e+01
1.369900000000000091e+02
1.178499999999999943e+02
4.756000000000000227e+01
3.139000000000000057e+01
1.355000000000000071e+01
7.700000000000000178e+00
1.436899999999999977e+02
5.271999999999999886e+01
6.082000000000000028e+01
-3.941100000000000136e+02
2.051899999999999977e+02
-1.758000000000000114e+02
6.779000000000000625e+01
1.386999999999999922e+01
-3.278000000000000114e+01
-8.778000000000000114e+01
-2.116000000000000014e+01
5.325999999999999801e+01
-2.817000000000000171e+01
1.328199999999999932e+02
4.182000000000000028e+01
1.358199999999999932e+02
-1.552999999999999936e+01
-3.592000000000000171e+01
-1.640999999999999943e+02
6.996999999999999886e+01
-7.315999999999999659e+01
8.635999999999999943e+01
1.480600000000000023e+02
5.586999999999999744e+01
-1.009099999999999966e+02
-1.424399999999999977e+02
7.329999999999999716e+01
3.378999999999999915e+01
-3.576399999999999864e+02
-1.170900000000000034e+02
-3.675000000000000000e+01
2.652300000000000182e+02
2.742699999999999818e+02
-1.255400000000000063e+02
-1.089800000000000040e+02
1.176299999999999955e+02
-1.526299999999999955e+02
7.398000000000000398e+01
-5.650999999999999801e+01
4.810999999999999943e+01
6.106000000000000227e+01
-8.379000000000000625e+01
-2.827500000000000000e+02
1.234599999999999937e+02
8.070000000000000284e+01
7.153000000000000114e+01
-9.831999999999999318e+01
1.521599999999999966e+02
-2.128000000000000114e+01
-1.794999999999999929e+01
-4.968999999999999773e+01
1.106000000000000050e+01
8.634000000000000341e+01
-8.106999999999999318e+01
1.096299999999999955e+02
-1.101999999999999957e+01
-8.826000000000000512e+01
3.513000000000000256e+01
6.320000000000000284e+01
-1.082500000000000000e+02
1.435300000000000011e+02
1.961599999999999966e+02
2.255600000000000023e+02
-1.588899999999999864e+02
-4.087300000000000182e+02
-7.612999999999999545e+01
-1.124399999999999977e+02
4.621000000000000085e+01
2.185000000000000142e+01
8.867000000000000171e+01
-2.061100000000000136e+02
-2.026999999999999957e+01
3.032000000000000028e+01
-7.509999999999999787e+00
1.313000000000000078e+01
3.021999999999999886e+01
-5.280000000000000249e+00
3.400000000000000000e+01
-2.459999999999999964e+00
-4.440000000000000391e+00
-7.000000000000000666e-02
-1.851000000000000156e+01
5.896999999999999886e+01
1.290999999999999943e+02
-1.864699999999999989e+02
3.522999999999999687e+01
5.034000000000000341e+01
4.935000000000000142e+01
-1.275400000000000063e+02
1.783300000000000125e+02
2.022400000000000091e+02
-7.129400000000000546e+02
-3.346999999999999886e+01
-1.646100000000000136e+02
3.251999999999999886e+02
-6.324000000000000199e+01
-1.857000000000000028e+01
4.263000000000000256e+01
6.203999999999999915e+01
-2.090500000000000114e+02
1.785500000000000114e+02
-2.883999999999999986e+01
1.341699999999999875e+02
-9.915999999999999659e+01
6.784000000000000341e+01
1.494399999999999977e+02
-2.653600000000000136e+02
-1.368899999999999864e+02
2.251200000000000045e+02
-2.456800000000000068e+02
2.059099999999999966e+02
2.039699999999999989e+02
-2.102400000000000091e+02
9.550000000000000000e+01
-2.082400000000000091e+02
1.718899999999999864e+02
-5.660499999999999545e+02
2.695199999999999818e+02
1.784099999999999966e+02
-2.585000000000000142e+01
-6.751999999999999602e+01
1.463000000000000114e+02
-5.928000000000000114e+01
-1.863899999999999864e+02
9.401999999999999602e+01
1.499999999999999944e-01
2.487999999999999901e+01
8.959000000000000341e+01
7.495000000000000284e+01
-5.662999999999999545e+02
1.077699999999999960e+02
-2.087500000000000000e+02
1.666699999999999875e+02
-1.520900000000000034e+02
-1.406599999999999966e+02
-1.867599999999999909e+02
-1.076099999999999994e+02
4.004700000000000273e+02
9.884999999999999432e+01
-2.467700000000000102e+02
3.554700000000000273e+02
-1.922899999999999920e+02
1.406599999999999966e+02
3.507000000000000028e+01
3.819200000000000159e+02
1.565000000000000000e+02
-2.982300000000000182e+02
-5.180399999999999636e+02
3.595000000000000284e+01
-1.349699999999999989e+02
1.887100000000000080e+02
3.914200000000000159e+02
8.826000000000000512e+01
-2.002100000000000080e+02
4.889999999999999858e+01
5.164999999999999858e+01
-4.846600000000000250e+02
-4.081000000000000227e+01
3.908399999999999750e+02
-7.486499999999999773e+02
-1.305200000000000102e+02
-1.225900000000000034e+02
-1.837000000000000099e+01
1.381399999999999864e+02
1.398700000000000045e+02
2.200099999999999909e+02
9.526000000000000512e+01
-7.067000000000000171e+01
1.490900000000000034e+02
4.122500000000000000e+02
-1.879799999999999898e+02
-2.252700000000000102e+02
-5.161599999999999682e+02
-1.798100000000000023e+02
1.012099999999999937e+02
2.661700000000000159e+02
2.296800000000000068e+02
4.247999999999999687e+01
2.064999999999999858e+01
6.297999999999999687e+01
-9.309999999999999432e+01
2.542999999999999972e+01
2.380999999999999872e+01
-6.807999999999999829e+01
-6.437000000000000455e+01
1.014000000000000057e+01
-1.020000000000000018e+00
-2.460000000000000142e+01
-1.366999999999999993e+01
-2.775000000000000000e+01
-1.277800000000000011e+02
-7.745000000000000284e+01
2.683999999999999986e+01
2.394000000000000128e+01
8.839999999999999858e+00
2.301000000000000156e+01
1.651800000000000068e+02
2.969000000000000128e+01
-2.237500000000000000e+02
1.190999999999999943e+02
3.322400000000000091e+02
-2.470800000000000125e+02
-6.981000000000000227e+01
5.379999999999999893e+00
-2.308999999999999986e+01
-1.889199999999999875e+02
1.352299999999999898e+02
7.915000000000000568e+01
-1.515000000000000036e+01
-2.421999999999999886e+01
-5.065999999999999659e+01
4.385000000000000142e+01
1.154800000000000040e+02
-6.036999999999999744e+01
-1.421699999999999875e+02
3.719900000000000091e+02
-1.655200000000000102e+02
-1.171099999999999994e+02
2.650899999999999750e+02
-1.097000000000000064e+01
-2.653600000000000136e+02
7.073000000000000398e+01
-4.675000000000000000e+01
-6.700000000000000000e+01
-6.110999999999999943e+01
7.739000000000000057e+01
-2.273300000000000125e+02
2.337199999999999989e+02
-9.676999999999999602e+01
-8.743999999999999773e+01
-1.187099999999999937e+02
-1.659099999999999966e+02
1.067699999999999960e+02
7.145999999999999375e+01
-1.327599999999999909e+02
-2.810799999999999841e+02
2.468000000000000114e+02
4.408199999999999932e+02
-1.381599999999999966e+02
-7.589900000000000091e+02
2.499600000000000080e+02
7.379999999999999716e+01
6.021000000000000085e+01
1.541999999999999993e+01
3.439999999999999858e+01
-1.066800000000000068e+02
9.820000000000000284e+01
1.381200000000000045e+02
1.536599999999999966e+02
-2.708899999999999864e+02
-4.752799999999999727e+02
1.757599999999999909e+02
-1.255000000000000071e+01
2.442999999999999972e+01
3.472799999999999727e+02
-2.014499999999999886e+02
1.891200000000000045e+02
3.903600000000000136e+02
-1.254099999999999966e+02
9.193000000000000682e+01
-3.291499999999999773e+02
-1.549900000000000091e+02
-6.629000000000000625e+01
2.464999999999999858e+01
-3.253000000000000114e+01
1.699399999999999977e+02
1.781699999999999875e+02
-2.801999999999999957e+01
2.414000000000000057e+02
-3.886100000000000136e+02
-3.131600000000000250e+02
1.108000000000000007e+01
2.858399999999999750e+02
1.786500000000000057e+02
-3.437099999999999795e+02
1.232000000000000028e+01
-3.750999999999999801e+01
2.059300000000000068e+02
-8.029999999999999361e+00
-6.092999999999999972e+01
6.442000000000000171e+01
-3.123199999999999932e+02
2.035699999999999932e+02
1.746399999999999864e+02
-5.717999999999999972e+01
-7.457999999999999829e+01
-9.609999999999999432e+00
-1.989999999999999858e+01
1.937899999999999920e+02
-2.170099999999999909e+02
3.239000000000000057e+01
2.043199999999999932e+02
5.367999999999999972e+01
-7.306000000000000227e+01
4.810000000000000142e+01
-1.136700000000000017e+02
1.728999999999999915e+01
9.543000000000000682e+01
-1.266099999999999994e+02
-6.295000000000000284e+01
1.247600000000000051e+02
-9.239000000000000057e+01
-2.190300000000000011e+02
2.086699999999999875e+02
-1.250000000000000000e+01
-4.889999999999999680e+00
2.207500000000000000e+02
-2.091000000000000014e+01
9.120999999999999375e+01
6.857999999999999829e+01
2.340300000000000011e+02
-5.486900000000000546e+02
-2.327700000000000102e+02
3.491899999999999977e+02
1.625000000000000000e+02
3.810000000000000053e+00
-6.809999999999999609e+00
1.523000000000000043e+01
2.353999999999999915e+01
-1.406000000000000050e+01
-4.253999999999999915e+01
-7.135999999999999943e+01
2.545399999999999920e+02
-1.020000000000000000e+02
2.327400000000000091e+02
-4.164000000000000057e+01
-6.517000000000000171e+01
-1.997800000000000011e+02
1.663700000000000045e+02
4.081000000000000227e+01
5.034000000000000341e+01
1.050799999999999983e+02
-1.041400000000000006e+02
-1.757299999999999898e+02
-2.160800000000000125e+02
2.760799999999999841e+02
-5.875999999999999801e+01
5.561999999999999744e+01
-1.086299999999999955e+02
5.010000000000000142e+01
8.387999999999999545e+01
-2.423000000000000043e+01
-3.089000000000000057e+01
1.039000000000000057e+01
-5.440000000000000391e+00
-8.554000000000000625e+01
7.354999999999999716e+01
-1.500000000000000000e+02
-1.373899999999999864e+02
-5.914999999999999858e+01
2.099600000000000080e+02
-2.116399999999999864e+02
1.055699999999999932e+02
7.959000000000000341e+01
-5.668999999999999773e+01
-1.479999999999999982e+00
1.350000000000000089e+00
3.479999999999999982e+00
3.757999999999999829e+01
-4.049999999999999822e+00
1.273100000000000023e+02
4.514999999999999858e+01
-1.642400000000000091e+02
-1.359699999999999989e+02
1.792500000000000000e+02
-6.278000000000000114e+01
2.171299999999999955e+02
-5.592000000000000171e+01
-1.808300000000000125e+02
1.252999999999999972e+02
4.010999999999999943e+01
3.775000000000000000e+01
-7.648999999999999488e+01
1.736599999999999966e+02
1.095100000000000051e+02
1.367299999999999898e+02
-7.030000000000000249e+00
-2.602599999999999909e+02
2.512899999999999920e+02
6.167999999999999972e+01
-9.837000000000000455e+01
2.537899999999999920e+02
-7.956999999999999318e+01
-4.578000000000000114e+01
8.148000000000000398e+01
8.359999999999999432e+00
-5.657999999999999829e+01
2.251000000000000156e+01
-1.521000000000000085e+01
-8.893999999999999773e+01
-3.021000000000000085e+01
1.925099999999999909e+02
8.215999999999999659e+01
4.525000000000000000e+01
-1.591399999999999864e+02
-2.591700000000000159e+02
2.123600000000000136e+02
9.559999999999999432e+01
-2.201800000000000068e+02
2.363300000000000125e+02
1.805300000000000011e+02
-1.692599999999999909e+02
-1.328000000000000114e+02
6.556999999999999318e+01
1.388799999999999955e+02
-1.967800000000000011e+02
-1.916500000000000057e+02
2.789100000000000250e+02
-8.946999999999999886e+01
4.769999999999999574e+00
2.436999999999999886e+02
1.021200000000000045e+02
-2.468400000000000034e+02
-2.702300000000000182e+02
1.104000000000000057e+02
2.887400000000000091e+02
4.389499999999999886e+02
-1.328400000000000034e+02
-1.594099999999999966e+02
-8.232999999999999829e+01
-1.794799999999999898e+02
-6.920000000000000284e+01
1.523100000000000023e+02
1.472100000000000080e+02
2.196000000000000085e+01
-5.921999999999999886e+01
-3.259499999999999886e+02
-5.356000000000000227e+01
2.732999999999999829e+01
1.934300000000000068e+02
-1.580000000000000071e+01
-1.118100000000000023e+02
-1.255400000000000063e+02
1.065999999999999943e+02
5.136399999999999864e+02
3.578799999999999955e+02
-3.496200000000000045e+02
-3.365099999999999909e+02
1.762700000000000102e+02
4.785999999999999943e+01
-4.514900000000000091e+02
1.309199999999999875e+02
2.858999999999999773e+02
2.506100000000000136e+02
7.926999999999999602e+01
-1.755900000000000034e+02
2.454199999999999875e+02
1.691899999999999977e+02
-3.222699999999999818e+02
-8.270999999999999375e+01
5.033299999999999841e+02
5.240900000000000318e+02
-3.425299999999999727e+02
-9.392000000000000171e+01
-2.500800000000000125e+02
-6.167999999999999972e+01
9.079000000000000625e+01
-3.736999999999999744e+01
1.207800000000000011e+02
4.920000000000000284e+01
-1.883100000000000023e+02
-5.124700000000000273e+02
2.973600000000000136e+02
3.899999999999999911e+00
1.450800000000000125e+02
2.117000000000000171e+01
7.980000000000000426e+00
-1.282400000000000091e+02
2.192800000000000011e+02
-8.842000000000000171e+01
1.461699999999999875e+02
2.360699999999999932e+02
-1.124800000000000040e+02
1.950000000000000000e+02
-1.593199999999999932e+02
-5.375099999999999909e+02
-2.982099999999999795e+02
1.035100000000000051e+02
4.864800000000000182e+02
2.979499999999999886e+02
7.129999999999999716e+01
-2.416100000000000136e+02
-7.651399999999999864e+02
1.855699999999999932e+02
3.231600000000000250e+02
1.664399999999999977e+02
3.005999999999999872e+01
4.565999999999999659e+01
-4.157000000000000028e+01
-7.679000000000000625e+01
3.481000000000000227e+01
-2.698000000000000043e+01
2.317000000000000171e+01
-9.620999999999999375e+01
-2.146999999999999886e+01
9.090999999999999659e+01
7.048999999999999488e+01
-4.483399999999999750e+02
1.570500000000000114e+02
6.135599999999999454e+02
-1.538600000000000136e+02
-1.719699999999999989e+02
-5.587899999999999636e+02
3.827000000000000313e+01
4.643899999999999864e+02
-5.492000000000000171e+01
9.881999999999999318e+01
4.620000000000000284e+01
-1.433000000000000007e+01
-7.440000000000000391e+00
-9.869999999999999218e+00
3.200000000000000178e+00
2.759999999999999787e+00
-3.759999999999999787e+00
2.862999999999999901e+01
1.784900000000000091e+02
4.702799999999999727e+02
-4.564900000000000091e+02
-4.067200000000000273e+02
9.584000000000000341e+01
2.707400000000000091e+02
-5.699999999999999512e-01
-2.433100000000000023e+02
-2.682999999999999829e+01
-1.076899999999999977e+02
2.233899999999999864e+02
4.220000000000000284e+01
1.078499999999999943e+02
-4.635799999999999841e+02
2.601999999999999957e+01
3.064599999999999795e+02
7.130299999999999727e+02
-3.338799999999999955e+02
-1.895000000000000000e+02
-2.110000000000000142e+01
-1.954699999999999989e+02
3.160999999999999943e+01
-2.576999999999999957e+01
3.205000000000000000e+02
-2.516299999999999955e+02
-1.575900000000000034e+02
2.634599999999999795e+02
2.839399999999999977e+02
-2.873199999999999932e+02
2.495500000000000114e+02
-2.429399999999999977e+02
1.057699999999999960e+02
1.448300000000000125e+02
-1.333700000000000045e+02
1.007000000000000028e+02
1.507000000000000028e+01
8.762000000000000455e+01
-3.123500000000000227e+02
1.137500000000000000e+02
-3.447999999999999687e+01
-1.700699999999999932e+02
-1.062800000000000011e+02
4.037599999999999909e+02
-3.705600000000000023e+02
-2.061100000000000136e+02
1.442899999999999920e+02
4.660000000000000000e+02
-1.150900000000000034e+02
-1.897100000000000080e+02
-1.164000000000000057e+02
8.618999999999999773e+01
-1.675800000000000125e+02
2.473000000000000043e+01
-7.846999999999999886e+01
-5.982000000000000028e+01
5.650000000000000355e+00
-9.529000000000000625e+01
9.932999999999999829e+01
1.378199999999999932e+02
7.660000000000000142e+00
-3.649599999999999795e+02
2.057700000000000102e+02
1.242000000000000028e+02
-9.080000000000000071e+00
-2.941000000000000014e+01
6.834999999999999432e+01
-1.309999999999999964e+01
-5.157999999999999829e+01
-5.425999999999999801e+01
-1.914000000000000057e+01
1.150499999999999972e+02
-1.159999999999999920e+00
-7.250000000000000000e+00
-2.207000000000000028e+01
9.320000000000000284e+00
4.422999999999999687e+01
-1.382000000000000028e+01
1.729999999999999982e+00
1.268999999999999950e+01
1.252699999999999960e+02
2.223600000000000136e+02
-2.129099999999999966e+02
-1.333000000000000114e+02
6.771999999999999886e+01
-8.309999999999999432e+01
-1.491999999999999886e+02
-6.968000000000000682e+01
1.701200000000000045e+02
-1.504900000000000091e+02
3.112699999999999818e+02
-6.790999999999999659e+01
-1.380000000000000071e+01
-1.010199999999999960e+02
4.040000000000000036e+00
6.009999999999999787e+00
2.544999999999999929e+01
-5.696000000000000085e+01
-4.402000000000000313e+01
1.792999999999999972e+01
3.259000000000000341e+01
-9.369999999999999218e+00
-1.630999999999999872e+01
8.310000000000000497e+00
-1.397000000000000064e+01
-5.935000000000000142e+01
3.132999999999999829e+01
6.804000000000000625e+01
4.771000000000000085e+01
-2.535999999999999943e+01
-7.068999999999999773e+01
1.110999999999999943e+01
-1.114000000000000057e+01
-3.010000000000000142e+01
-2.376999999999999957e+01
6.257999999999999829e+01
-2.251000000000000156e+01
-5.307999999999999829e+01
4.849999999999999645e+00
3.750000000000000000e+01
-5.275999999999999801e+01
4.165999999999999659e+01
4.400000000000000000e+01
-5.400999999999999801e+01
1.748000000000000043e+01
-2.307999999999999829e+01
2.091000000000000014e+01
9.029999999999999361e+00
-3.292999999999999972e+01
4.307000000000000028e+01
-1.547000000000000064e+01
-2.083999999999999986e+01
2.585000000000000142e+01
2.298999999999999844e+01
1.105000000000000071e+01
-1.003900000000000006e+02
1.860000000000000142e+01
-2.082999999999999829e+01
5.379999999999999893e+00
2.058999999999999986e+01
2.635999999999999943e+01
-7.118999999999999773e+01
4.280000000000000249e+00
3.021999999999999886e+01
9.084999999999999432e+01
3.621800000000000068e+02
3.696999999999999886e+01
-3.075799999999999841e+02
-1.552100000000000080e+02
-6.080000000000000071e+00
2.926000000000000156e+01
-1.160000000000000000e+02
1.492999999999999972e+01
-8.803000000000000114e+01
1.910300000000000011e+02
-7.584000000000000341e+01
4.825000000000000000e+01
7.287999999999999545e+01
8.701000000000000512e+01
9.420000000000000284e+01
-8.954999999999999716e+01
-7.379999999999999716e+01
2.635000000000000142e+01
-4.817999999999999972e+01
-1.157000000000000028e+02
7.115999999999999659e+01
5.609700000000000273e+02
-2.208400000000000034e+02
-3.133799999999999955e+02
-6.057000000000000028e+01
9.970000000000000639e+00
-5.067999999999999972e+01
3.474000000000000199e+01
6.770999999999999375e+01
2.819000000000000128e+01
2.551999999999999957e+01
-1.685999999999999943e+01
2.575000000000000000e+01
1.882999999999999829e+01
-3.754999999999999716e+01
4.786999999999999744e+01
3.496000000000000085e+01
-5.167999999999999972e+01
1.449000000000000021e+01
1.342999999999999972e+01
5.290000000000000036e+00
1.384999999999999964e+01
-2.701000000000000156e+01
2.216000000000000014e+01
6.206000000000000227e+01
9.189999999999999503e+00
-4.025999999999999801e+01
9.810000000000000497e+00
9.890000000000000568e+00
-1.326999999999999957e+01
1.481000000000000050e+01
3.620000000000000107e+00
-1.193999999999999950e+01
-1.810000000000000053e+00
-3.609999999999999876e+00
-3.709999999999999964e+00
3.549999999999999822e+00
-9.919999999999999929e+00
3.180000000000000160e+00
1.416999999999999993e+01
1.714999999999999858e+01
2.616000000000000014e+01
2.530999999999999872e+01
-1.061899999999999977e+02
1.562700000000000102e+02
8.262999999999999545e+01
3.171000000000000085e+01
-3.616700000000000159e+02
-2.493000000000000114e+02
2.846100000000000136e+02
-1.099000000000000021e+01
5.250000000000000000e+00
1.887000000000000099e+01
2.307999999999999829e+01
1.088000000000000078e+01
7.870000000000000107e+00
-1.782999999999999829e+01
-2.864999999999999858e+01
-2.514000000000000057e+01
4.540000000000000036e+00
7.730000000000000426e+00
-6.400000000000000133e-01
-7.599999999999999645e+00
-4.950000000000000178e+00
-1.919000000000000128e+01
9.830000000000000071e+00
2.330999999999999872e+01
1.907000000000000028e+01
2.208999999999999986e+01
-4.540999999999999659e+01
-2.358600000000000136e+02
3.757999999999999829e+01
9.390999999999999659e+01
1.067999999999999972e+02
-4.803000000000000114e+01
3.103999999999999915e+01
7.837000000000000455e+01
-2.167000000000000171e+01
-9.495000000000000284e+01
-5.729999999999999716e+01
-3.492000000000000171e+01
4.820000000000000284e+00
1.122000000000000064e+01
-5.500000000000000000e+00
-3.720000000000000195e+00
2.230000000000000071e+01
1.600000000000000089e+00
2.153999999999999915e+01
5.856000000000000227e+01
2.300000000000000000e+01
-5.250999999999999801e+01
-2.546999999999999886e+01
-4.549999999999999822e+00
-8.990000000000000213e+00
1.135999999999999943e+01
1.085999999999999943e+01
8.009999999999999787e+00
7.049999999999999822e+00
-1.194999999999999929e+01
-1.807999999999999829e+01
1.577999999999999936e+01
-2.055999999999999872e+01
-1.558999999999999986e+01
2.737999999999999901e+01
-4.600000000000000200e-01
6.642000000000000171e+01
-2.075000000000000000e+01
-4.182000000000000028e+01
1.629999999999999893e+00
-1.973999999999999844e+01
8.734000000000000341e+01
-1.425999999999999979e+01
-6.501999999999999602e+01
-1.946999999999999886e+01
-7.370000000000000107e+00
1.675000000000000000e+01
-3.389000000000000057e+01
2.217999999999999972e+01
-1.269999999999999929e+01
-1.558000000000000007e+01
3.092999999999999972e+01
-2.850000000000000000e+01
-9.529999999999999361e+00
9.080000000000000071e+00
1.050000000000000044e+00
1.522000000000000064e+01
2.064999999999999858e+01
-3.164999999999999858e+01
7.889999999999999680e+00
2.957000000000000028e+01
-2.169000000000000128e+01
-4.240000000000000213e+00
8.609999999999999432e+00
-1.015000000000000036e+01
3.129999999999999893e+00
1.400000000000000000e+01
9.899999999999999911e-01
7.000000000000000000e+00
2.600000000000000089e-01
-3.275999999999999801e+01
8.980000000000000426e+00
-1.530000000000000027e+00
-4.207000000000000028e+01
9.369999999999999218e+00
-2.189999999999999947e+00
-1.133000000000000007e+01
3.189999999999999858e+01
-1.318999999999999950e+01
-8.769999999999999574e+00
2.687999999999999901e+01
-2.517999999999999972e+01
-5.960000000000000142e+01
3.989000000000000057e+01
3.379999999999999893e+00
-1.324000000000000021e+01
7.700000000000000178e+00
2.073000000000000043e+01
-8.779999999999999361e+00
1.892000000000000171e+01
4.269999999999999574e+00
-2.401999999999999957e+01
1.848999999999999844e+01
-4.820000000000000284e+00
-3.087000000000000099e+01
-2.798000000000000043e+01
3.925999999999999801e+01
1.242999999999999972e+01
-9.029999999999999361e+00
6.750000000000000000e+00
1.265000000000000036e+01
5.685999999999999943e+01
2.148000000000000043e+01
-1.719000000000000128e+01
1.086999999999999922e+01
-1.928999999999999915e+01
-1.083000000000000007e+01
3.317999999999999972e+01
3.753000000000000114e+01
-1.657999999999999829e+01
1.532000000000000028e+01
1.113000000000000078e+01
-2.487999999999999901e+01
1.989999999999999991e+00
-3.620000000000000107e+00
-2.601999999999999957e+01
5.759999999999999787e+00
-7.400000000000000355e+00
-5.719999999999999751e+00
1.452999999999999936e+01
-6.179999999999999716e+00
7.299999999999999822e-01
8.890000000000000568e+00
-1.107000000000000028e+01
6.459999999999999964e+00
1.353999999999999915e+01
8.630000000000000782e+00
1.379999999999999893e+00
-1.225999999999999979e+01
-3.200999999999999801e+01
7.690000000000000391e+00
7.200000000000000178e+00
-1.764000000000000057e+01
1.434999999999999964e+01
8.099999999999999645e+00
-3.763000000000000256e+01
-1.290000000000000036e+01
-1.526999999999999957e+01
-3.049999999999999822e+00
2.646000000000000085e+01
-4.519999999999999574e+00
8.560000000000000497e+00
1.568999999999999950e+01
-1.941000000000000014e+01
3.629999999999999716e+01
1.878999999999999915e+01
-1.499000000000000021e+01
1.508000000000000007e+01
1.625000000000000000e+01
-1.172000000000000064e+01
3.970000000000000195e+00
1.281000000000000050e+01
-7.940000000000000391e+00
-1.378999999999999915e+01
1.708999999999999986e+01
6.400000000000000133e-01
-2.110000000000000142e+01
8.779999999999999361e+00
3.229999999999999982e+00
-9.589999999999999858e+00
6.629999999999999893e+00
6.400000000000000133e-01
-6.370000000000000107e+00
-2.120000000000000107e+00
1.149999999999999911e+00
-5.919999999999999929e+00
-4.719999999999999751e+00
1.935999999999999943e+01
7.950000000000000178e+00
-6.459999999999999964e+00
2.330000000000000071e+00
-1.364000000000000057e+01
-3.950000000000000178e+00
6.049999999999999822e+00
-1.707000000000000028e+01
5.360000000000000320e+00
1.064000000000000057e+01
-1.989000000000000057e+01
1.742000000000000171e+01
7.959999999999999964e+00
-2.162000000000000099e+01
1.389000000000000057e+01
3.870000000000000107e+00
-2.248999999999999844e+01
1.635000000000000142e+01
5.540000000000000036e+00
-2.075000000000000000e+01
1.231000000000000050e+01
-5.570000000000000284e+00
-1.450000000000000000e+01
1.249000000000000021e+01
-8.890000000000000568e+00
-4.349999999999999645e+00
1.773000000000000043e+01
-7.790000000000000036e+00
7.399999999999999911e-01
1.571000000000000085e+01
-9.130000000000000782e+00
1.629999999999999893e+00
1.653999999999999915e+01
-2.399999999999999911e+00
-2.060000000000000053e+00
5.610000000000000320e+00
-7.940000000000000391e+00
-3.640000000000000124e+00
1.142999999999999972e+01
-1.053999999999999915e+01
-1.540000000000000036e+00
1.369999999999999929e+01
-1.130000000000000071e+01
4.269999999999999574e+00
1.033999999999999986e+01
-1.008999999999999986e+01
1.194999999999999929e+01
1.914000000000000057e+01
1.108999999999999986e+01
4.799999999999999822e-01
-1.242999999999999972e+01
-3.365999999999999659e+01
2.582999999999999829e+01
1.335999999999999943e+01
-2.330999999999999872e+01
7.620000000000000107e+00
-3.040000000000000036e+00
-2.112000000000000099e+01
1.885999999999999943e+01
-3.810000000000000053e+00
-1.141999999999999993e+01
1.340000000000000036e+01
-1.558999999999999986e+01
1.446000000000000085e+01
2.187999999999999901e+01
-1.944999999999999929e+01
6.218999999999999773e+01
-4.917999999999999972e+01
-3.450000000000000178e+00
2.532000000000000028e+01
1.641000000000000014e+01
-1.664999999999999858e+01
-6.690000000000000391e+00
2.144000000000000128e+01
2.000000000000000111e-01
-3.500999999999999801e+01
2.378999999999999915e+01
8.490000000000000213e+00
-2.762999999999999901e+01
6.320000000000000284e+00
1.360000000000000098e+00
-1.516999999999999993e+01
3.242000000000000171e+01
1.090199999999999960e+02
-1.404499999999999886e+02
-6.395000000000000284e+01
-6.000000000000000000e+00
1.828999999999999915e+01
-3.729999999999999716e+01
1.701000000000000156e+01
-2.035000000000000142e+01
3.520000000000000018e+00
-9.080000000000000071e+00
-3.560000000000000053e+00
-5.480000000000000426e+00
4.200000000000000178e+00
1.800000000000000044e+00
-5.306000000000000227e+01
-2.200000000000000178e+00
3.098000000000000043e+01
2.269000000000000128e+01
2.351999999999999957e+01
-3.067000000000000171e+01
-6.950000000000000000e+01
5.209999999999999964e+00
-1.917999999999999972e+01
4.996000000000000085e+01
4.184000000000000341e+01
-2.441000000000000014e+01
1.557000000000000028e+01
6.439000000000000057e+01
-3.763000000000000256e+01
8.330000000000000071e+00
-2.037000000000000099e+01
-6.920999999999999375e+01
7.782999999999999829e+01
-2.042999999999999972e+01
5.959000000000000341e+01
-2.132999999999999829e+01
-2.466000000000000014e+01
-2.539999999999999858e+01
-1.570000000000000062e+00
5.292000000000000171e+01
-9.820000000000000284e+00
1.803000000000000114e+01
-8.490000000000000213e+00
-1.352999999999999936e+01
1.717000000000000171e+01
-2.862999999999999901e+01
-2.796999999999999886e+01
9.199999999999999289e+00
-7.059999999999999609e+00
3.656000000000000227e+01
7.209999999999999964e+00
-1.785999999999999943e+01
-9.609999999999999432e+00
7.660000000000000142e+00
-4.469999999999999751e+00
-2.289999999999999858e+01
2.142999999999999972e+01
-4.360000000000000320e+00
-1.742999999999999972e+01
1.381000000000000050e+01
4.200000000000000178e+00
-1.201999999999999957e+01
2.819999999999999840e+00
-1.059999999999999964e+01
-6.879999999999999893e+00
-6.160000000000000142e+00
-2.279999999999999805e+00
2.753000000000000114e+01
1.614000000000000057e+01
-2.237000000000000099e+01
7.849999999999999645e+00
7.089999999999999858e+00
-3.825999999999999801e+01
1.883999999999999986e+01
7.540000000000000036e+00
-2.096000000000000085e+01
2.423000000000000043e+01
-1.685999999999999943e+01
3.830000000000000071e+00
2.823999999999999844e+01
-1.605000000000000071e+01
1.500000000000000000e+00
1.567999999999999972e+01
-2.076000000000000156e+01
-1.729999999999999982e+00
5.559000000000000341e+01
-6.743000000000000682e+01
4.179999999999999716e+00
1.185999999999999943e+01
4.740000000000000213e+00
1.996000000000000085e+01
-5.900000000000000355e+00
-1.546000000000000085e+01
2.473999999999999844e+01
-4.438000000000000256e+01
-2.430000000000000071e+01
2.239999999999999858e+01
1.199999999999999956e+00
1.366999999999999993e+01
1.017999999999999972e+01
-1.787999999999999901e+01
3.970000000000000195e+00
1.762999999999999901e+01
7.950000000000000178e+00
-2.799999999999999822e+00
-1.586999999999999922e+01
-3.974000000000000199e+01
1.375000000000000000e+01
9.320000000000000284e+00
-1.506000000000000050e+01
1.244999999999999929e+01
-8.299999999999999600e-01
-9.490000000000000213e+00
1.564000000000000057e+01
1.135999999999999943e+01
1.429999999999999938e+00
-1.000999999999999979e+01
-3.740999999999999659e+01
1.001999999999999957e+01
9.300000000000000711e+00
-1.599000000000000021e+01
1.696999999999999886e+01
6.999999999999999556e-01
-2.157999999999999829e+01
1.048000000000000043e+01
-1.234999999999999964e+01
5.190000000000000391e+00
7.809999999999999609e+00
-2.514000000000000057e+01
2.142999999999999972e+01
1.639000000000000057e+01
-2.926000000000000156e+01
2.717000000000000171e+01
9.119999999999999218e+00
-1.703000000000000114e+01
1.669999999999999929e+01
1.580000000000000071e+00
-1.549000000000000021e+01
1.250000000000000000e+01
4.000000000000000083e-02
-1.817999999999999972e+01
1.194999999999999929e+01
3.270000000000000018e+00
-1.796999999999999886e+01
5.120000000000000107e+00
4.699999999999999734e-01
-1.792000000000000171e+01
5.980000000000000426e+00
-5.099999999999999645e+00
-1.450999999999999979e+01
4.515999999999999659e+01
-4.232000000000000028e+01
-4.410999999999999943e+01
2.130000000000000071e+01
-1.310999999999999943e+01
7.459999999999999964e+00
3.259999999999999787e+00
-1.728000000000000114e+01
1.259999999999999964e+01
4.410000000000000142e+00
-3.215999999999999659e+01
2.348999999999999844e+01
7.669999999999999929e+00
-2.078999999999999915e+01
