1592941276.00
64.000000
-0.00
-0.00
-0.00
-0.00
-0.00
-0.00
-0.00
-0.00
-0.00
-0.00
0.00
0.01
0.01
-0.00
-0.03
-0.05
-0.05
0.00
0.13
0.36
0.66
1.01
1.37
1.72
2.06
2.40
2.79
3.24
3.80
4.42
5.06
5.66
6.20
6.68
7.15
7.68
8.31
9.14
10.09
11.04
11.88
12.56
13.14
13.76
14.65
15.96
17.91
20.32
22.90
25.38
27.58
29.57
31.68
34.32
37.81
42.54
48.15
54.10
59.83
64.97
69.58
74.14
79.34
85.71
93.76
103.00
112.62
121.73
129.77
136.75
143.30
150.75
157.77
166.64
177.95
191.79
206.97
220.57
228.25
225.36
208.53
176.87
132.76
80.05
23.07
-34.94
-92.44
-149.16
-205.23
-260.37
-313.74
-363.87
-409.83
-450.91
-486.50
-515.74
-537.23
-549.22
-549.97
-538.37
-514.20
-478.65
-433.83
-382.40
-327.00
-269.90
-212.83
-157.01
-103.46
-53.00
-6.59
34.89
70.76
100.71
124.85
143.67
157.87
168.20
175.32
179.66
181.50
181.03
178.46
174.08
168.26
161.44
154.05
146.45
138.86
131.34
123.80
116.10
108.16
99.96
91.68
83.56
75.92
68.95
62.65
56.80
51.08
45.16
38.89
32.40
26.06
20.37
15.69
12.08
9.21
6.50
3.33
-0.66
-5.38
-10.36
-14.86
-18.23
-20.14
-20.70
-20.47
-20.38
-21.59
-25.13
-31.34
-39.19
-46.03
-48.13
-42.07
-26.43
-2.60
25.19
51.43
71.29
82.11
83.75
78.01
67.60
55.32
43.58
34.20
28.16
25.28
24.34
23.59
21.66
18.45
15.08
13.17
13.69
16.03
18.09
17.43
12.57
3.91
-6.56
-16.17
-22.56
-24.13
-20.10
-10.46
3.68
20.01
35.01
44.89
46.98
41.00
29.21
15.43
3.28
-5.27
-10.24
-12.87
-14.30
-14.95
-14.45
-12.47
-9.22
-5.41
-1.81
1.29
4.17
7.41
11.26
15.31
18.49
19.64
18.21
14.84
11.10
8.84
9.11
11.58
14.60
15.99
14.15
8.82
1.24
-6.44
-11.97
-13.77
-11.42
-5.60
2.12
9.60
14.58
15.19
10.47
0.72
-12.41
-26.30
-37.91
-44.74
-45.51
-40.72
-32.48
-23.84
-17.51
-14.85
-15.30
-16.81
-17.06
-14.60
-9.58
-3.49
1.64
4.22
3.47
-0.49
-6.95
-14.82
-22.60
-28.55
-31.10
-29.44
-23.97
-16.37
-8.93
-3.63
-1.34
-1.76
-3.85
-6.56
-9.24
-11.72
-13.95
-15.72
-16.50
-15.60
-12.51
-7.18
-0.15
7.49
14.25
18.57
19.23
15.90
9.49
2.15
-3.43
-5.10
-2.23
3.80
10.16
13.37
10.82
2.00
-11.17
-25.15
-36.21
-41.83
-41.29
-35.48
-26.18
-15.28
-4.45
4.92
11.60
14.70
13.92
9.86
4.00
-1.71
-5.46
-6.14
-3.67
1.02
6.46
11.13
14.01
14.82
13.90
11.92
9.64
7.68
6.59
6.97
9.33
13.82
19.84
25.95
30.26
31.08
27.67
20.55
11.25
1.56
-7.16
-14.45
-20.66
-26.52
-32.78
-39.95
-48.31
-57.86
-68.39
-79.25
-89.34
-97.26
-101.57
-101.21
-95.78
-85.63
-71.69
-55.12
-36.98
-18.00
1.49
21.41
41.69
62.02
81.51
98.59
111.07
116.65
113.66
101.73
82.18
57.84
32.37
9.42
-8.13
-18.44
-20.80
-15.49
-3.81
11.94
28.55
42.41
50.24
50.00
41.58
26.85
9.18
-7.59
-20.21
-26.98
-28.03
-25.09
-20.71
-17.30
-16.42
-18.48
-22.80
-27.96
-32.09
-33.07
-28.85
-18.05
-0.60
21.72
45.45
66.37
80.97
87.78
87.85
84.13
80.06
78.04
78.61
80.61
82.00
80.98
76.65
69.11
59.09
47.51
35.26
23.23
12.48
4.39
0.47
1.93
9.17
21.34
36.33
51.16
62.89
69.58
70.96
68.63
65.49
64.59
67.89
75.24
84.33
91.40
92.63
85.56
69.95
47.76
22.55
-1.69
-21.56
-34.90
-41.02
-40.57
-35.22
-27.33
-19.56
-14.45
-13.86
-18.59
-28.08
-40.51
-53.24
-63.62
-69.77
-71.16
-68.81
-64.86
-61.80
-61.57
-64.95
-71.39
-79.24
-86.48
-91.31
-92.69
-90.49
-85.40
-78.64
-71.58
-65.39
-60.82
-57.96
-56.26
-54.63
-51.95
-47.53
-41.61
-35.33
-30.30
-27.88
-28.57
-31.93
-36.90
-42.44
-47.92
-53.14
-57.97
-61.96
-64.18
-63.42
-58.73
-49.91
-37.66
-23.57
-9.79
1.47
8.46
10.45
8.26
4.13
1.17
2.04
7.81
17.35
27.71
35.50
38.37
36.05
30.29
24.03
20.18
20.74
26.48
37.13
51.66
68.30
84.59
97.48
103.90
101.68
90.46
72.09
50.28
29.51
13.65
4.81
2.79
5.44
9.55
12.03
10.77
5.15
-4.14
-15.53
-27.08
-36.69
-42.29
-42.02
-34.87
-21.26
-3.47
14.75
29.39
37.87
40.21
39.05
38.52
42.12
51.23
64.60
79.15
91.44
99.02
101.08
97.98
90.67
79.76
65.79
49.56
32.48
16.43
3.09
-6.56
-12.97
-17.60
-22.80
-30.41
-40.96
-53.58
-66.56
-78.28
-87.53
-94.37
-99.42
-104.46
-111.09
-119.98
-130.45
-140.54
-147.75
-149.46
-144.65
-133.47
-118.32
-102.09
-87.20
-75.16
-66.76
-62.87
-64.06
-71.66
-78.03
-76.26
-62.49
-38.44
-9.69
18.59
39.29
53.68
62.96
67.98
68.20
63.19
55.08
46.11
38.83
35.18
36.64
42.81
52.48
62.96
71.23
74.78
72.38
64.94
55.21
47.46
44.85
48.78
57.49
67.10
73.37
73.52
67.48
57.44
46.83
38.04
31.94
27.71
23.85
19.27
13.74
7.94
2.74
-1.24
-4.12
-6.39
-8.50
-10.54
-12.10
-12.63
-11.58
-8.73
-4.32
0.82
5.41
7.93
7.12
2.50
-5.19
-13.98
-21.26
-24.74
-23.38
-17.73
-9.56
-0.86
7.02
13.87
20.27
26.91
33.84
40.24
44.76
46.14
43.78
37.91
29.39
19.24
8.28
-3.01
-14.29
-25.17
-35.03
-43.18
-49.11
-52.76
-54.57
-55.34
-55.69
-55.68
-54.67
-51.77
-46.43
-39.02
-30.81
-23.37
-17.77
-13.99
-11.13
-8.14
-4.65
-1.28
0.89
1.31
0.62
0.62
3.27
9.46
18.34
27.46
33.90
35.52
31.83
24.04
14.41
5.40
-1.17
-4.47
-4.64
-2.48
0.97
4.86
8.75
12.68
16.72
20.59
23.35
23.67
20.54
14.06
5.77
-1.78
-6.18
-6.28
-2.78
2.20
6.18
7.60
6.44
4.08
2.44
3.03
6.19
11.04
15.90
18.82
18.37
14.03
6.37
-3.16
-12.70
-20.55
-25.73
-28.12
-28.39
-27.67
-27.08
-27.49
-29.25
-32.15
-35.36
-37.61
-37.49
-34.04
-27.34
-18.74
-10.49
-4.84
-2.98
-4.45
-7.42
-9.68
-9.79
-7.81
-5.18
-3.77
-4.90
-8.62
-13.87
-19.13
-23.20
-25.72
-27.03
-27.87
-28.87
-30.21
-31.66
-32.61
-32.44
-30.76
-27.52
-22.93
-17.29
-10.70
-3.00
5.93
15.83
25.60
33.47
37.60
37.01
32.26
25.49
19.59
17.05
18.87
24.31
31.37
37.83
42.12
43.84
43.54
42.27
40.91
39.90
39.08
37.88
35.60
31.70
26.02
18.87
10.89
2.85
-4.63
-11.14
-16.54
-20.81
-23.96
-25.94
-26.73
-26.34
-24.86
-22.28
-18.38
-12.76
-5.19
3.93
13.25
20.82
24.87
24.75
21.43
17.10
14.07
13.48
14.65
15.38
13.12
6.26
-5.09
-19.21
-33.74
-46.61
-56.74
-64.09
-69.29
-73.06
-75.82
-77.47
-77.57
-75.54
-71.01
-64.06
-55.27
-45.66
-36.35
-28.24
-21.67
-16.35
-11.56
-6.55
-1.08
4.39
8.83
11.11
10.60
7.48
2.75
-2.24
-6.39
-9.31
-11.42
-13.43
-15.75
-18.08
-19.42
-18.67
-15.36
-10.26
-5.27
-2.75
-4.55
-11.13
-21.51
-33.77
-46.07
-57.46
-68.10
-78.78
-90.07
-101.60
-111.97
-119.28
-121.83
-118.67
-109.49
-94.21
-72.79
-45.56
-13.88
19.26
49.61
73.07
87.35
93.20
94.06
94.38
97.48
104.05
112.26
119.21
122.60
121.72
117.19
109.96
100.50
88.75
74.76
59.54
45.25
34.62
29.99
32.33
40.87
53.24
66.23
76.53
81.84
81.65
77.79
73.78
73.30
78.10
86.56
93.93
94.21
83.11
60.22
29.44
-2.83
-30.54
-50.21
-61.54
-66.38
-67.01
-64.94
-60.91
-55.64
-50.51
-47.55
-48.58
-54.09
-62.77
-71.90
-78.58
-81.00
-79.23
-74.92
-70.40
-67.65
-67.57
-69.85
-73.13
-75.58
-75.41
-71.40
-63.03
-50.61
-35.26
-18.72
-3.04
9.99
19.41
25.39
29.13
32.31
36.16
40.79
44.93
46.45
43.35
34.79
21.55
5.83
-9.53
-22.06
-30.12
-32.93
-30.33
-22.57
-10.36
4.90
21.01
35.36
45.89
52.09
55.43
58.58
63.71
70.89
77.57
79.62
73.46
58.13
36.02
12.04
-8.34
-20.82
-23.31
-15.83
-0.03
21.25
44.28
64.68
78.19
81.83
75.04
60.12
41.61
24.78
13.87
10.81
14.88
23.19
31.90
37.38
37.21
30.69
18.89
4.46
-9.02
-17.81
-19.10
-12.02
1.76
18.24
32.24
39.28
37.35
27.77
14.73
3.50
-1.75
0.36
8.04
17.27
23.51
23.44
15.85
1.52
-17.60
-39.34
-61.92
-83.98
-104.06
-120.19
-129.79
-130.12
-119.26
-97.04
-65.72
-29.86
4.64
32.22
49.36
55.84
54.65
50.67
48.41
49.88
53.64
55.71
51.63
38.95
18.69
-4.97
-26.49
-41.37
-47.77
-46.83
-41.62
-35.43
-30.47
-27.35
-25.51
-24.11
-22.79
-21.95
-22.34
-24.43
-27.94
-31.76
-34.42
-34.90
-33.18
-30.33
-27.98
-27.51
-29.41
-33.12
-37.41
-41.00
-42.98
-42.89
-40.52
-35.74
-28.53
-19.30
-9.04
0.82
8.88
14.34
17.30
18.52
18.88
18.80
18.07
16.10
12.50
7.45
1.65
-4.12
-9.50
-14.77
-20.62
-27.52
-35.08
-41.80
-45.45
-43.97
-36.43
-23.77
-8.73
4.97
13.90
16.09
11.70
2.91
-6.95
-14.74
-18.83
-19.83
-20.42
-24.30
-34.53
-51.95
-74.27
-96.37
-111.77
-114.89
-103.13
-78.03
-44.88
-10.87
17.28
35.44
42.91
41.99
36.43
29.90
24.95
22.86
24.25
29.56
39.05
52.40
68.15
83.76
96.29
103.57
105.22
103.00
100.10
99.85
104.19
112.84
123.42
132.49
137.10
136.11
130.58
123.27
117.34
114.97
116.50
120.46
124.42
126.14
124.41
119.23
111.41
101.80
90.86
78.63
65.14
50.84
36.79
24.52
15.52
10.73
10.21
13.21
18.42
24.61
30.99
37.51
44.81
53.74
64.76
77.32
89.58
98.63
101.17
94.65
78.23
53.46
24.02
-5.13
-29.13
-44.58
-50.36
-47.66
-39.45
-29.60
-21.83
-19.06
-22.90
-33.54
-49.76
-69.26
-89.17
-106.88
-120.70
-130.30
-136.62
-141.24
-145.62
-150.37
-155.01
-158.08
-157.48
-150.96
-136.53
-113.09
-80.94
-42.24
-0.89
38.15
70.31
92.91
106.06
112.47
116.05
120.24
126.52
134.05
140.34
142.65
139.26
130.21
117.23
103.00
90.11
80.15
73.30
68.47
64.07
58.98
53.37
48.84
47.71
51.77
60.99
73.02
83.90
89.57
87.70
78.39
63.93
47.40
31.05
15.57
0.60
-14.11
-27.67
-38.09
-43.50
-43.35
-39.06
-33.52
-29.81
-29.74
-33.15
-38.35
-43.19
-46.52
-48.37
-49.75
-52.11
-56.72
-64.22
-74.38
-86.29
-98.67
-110.97
-122.62
-132.95
-141.43
-147.97
-152.99
-157.07
-160.68
-163.91
-167.68
-171.78
-174.74
-174.91
-171.87
-166.83
-161.79
-158.35
-156.82
-158.24
-161.65
-164.49
-164.34
-160.71
-155.08
-149.68
-146.18
-145.45
-150.52
-162.41
-179.10
-196.14
-208.58
-212.23
-204.29
-183.94
-136.19
-61.05
26.90
107.37
167.41
204.79
223.29
228.05
223.66
215.12
202.35
185.65
166.59
146.78
126.35
104.21
79.61
53.38
29.06
9.02
-3.66
-6.15
2.60
20.86
44.58
69.11
90.55
106.34
113.49
110.71
98.66
79.67
56.87
33.71
13.58
-0.76
-7.89
-9.08
-6.74
-3.48
-1.33
-1.32
-3.40
-6.55
-9.19
-9.53
-6.27
1.62
14.64
32.39
53.15
74.00
91.62
103.33
108.17
107.11
102.67
97.62
93.79
91.20
88.15
82.05
70.53
52.41
27.86
-1.80
-34.57
-68.15
-100.07
-127.78
-148.80
-161.15
-163.91
-157.55
-143.99
-126.07
-106.97
-89.41
-75.17
-64.76
-57.41
-51.10
-43.09
-30.90
-13.57
7.54
29.01
46.86
58.41
63.70
65.25
66.52
69.81
74.99
79.72
80.98
76.93
67.93
56.28
44.90
35.86
29.46
24.47
18.92
11.20
0.78
-11.52
-23.88
-34.32
-41.51
-45.33
-46.82
-47.65
-49.33
-52.57
-57.14
-62.05
-66.05
-67.82
-66.23
-60.41
-50.06
-35.73
-18.98
-2.21
12.05
21.99
27.17
28.57
27.92
26.67
25.17
22.58
17.42
8.59
-3.92
-18.98
-34.78
-49.66
-62.53
-73.01
-80.95
-85.96
-87.15
-83.46
-74.18
-59.76
-42.09
-24.29
-9.84
-1.45
-0.06
-4.30
-10.92
-16.05
-16.77
-12.54
-5.30
1.44
4.41
2.24
-3.96
-11.30
-16.76
-18.65
-17.34
-14.68
-12.81
-12.89
-14.68
-16.86
-17.98
-17.24
-14.90
-11.98
-9.70
-8.85
-9.32
-10.17
-10.10
-8.17
-4.37
0.29
4.24
6.20
5.92
4.37
3.32
4.56
9.22
17.40
28.35
40.60
52.41
61.92
67.56
68.48
64.96
58.61
51.97
47.72
47.63
51.82
58.76
65.83
70.43
70.81
66.55
58.39
47.69
35.83
23.86
12.49
2.39
-5.62
-10.53
-11.40
-7.80
-0.14
10.24
21.39
31.29
38.50
42.70
44.82
46.62
49.91
55.63
63.16
70.50
74.92
74.11
67.09
54.53
38.35
21.04
4.88
-8.42
-17.89
-23.21
-24.74
-23.47
-20.96
-18.95
-18.89
-21.38
-26.05
-31.68
-36.72
-39.85
-40.31
-38.15
-34.01
-28.95
-24.08
-20.34
-18.25
-17.78
-18.26
-18.44
-16.75
-11.74
-2.67
10.11
24.93
39.20
50.07
55.40
54.50
48.40
39.54
30.95
25.20
23.61
25.90
30.40
34.79
36.92
35.43
30.06
21.47
10.94
-0.12
-10.38
-18.74
-24.34
-26.52
-25.02
-20.03
-12.33
-3.14
6.09
14.08
20.06
24.00
26.66
29.42
33.82
40.93
50.64
61.48
70.80
75.66
73.84
64.77
49.75
31.44
12.94
-3.16
-15.30
-23.02
-26.58
-26.69
-24.37
-21.03
-18.30
-17.82
-20.65
-26.74
-34.87
-43.06
-49.30
-52.47
-52.62
-50.90
-48.84
-47.73
-48.14
-49.83
-51.96
-53.39
-53.01
-50.01
-44.14
-35.93
-26.68
-18.17
-12.07
-9.29
-9.61
-11.74
-13.80
-14.19
-12.12
-7.92
-2.73
2.05
5.40
6.98
7.13
6.47
5.54
4.57
3.57
2.63
2.17
3.00
6.07
12.05
21.01
32.19
44.10
54.93
63.07
67.70
69.19
68.98
69.01
70.65
73.88
76.99
77.22
71.98
60.13
42.61
22.09
1.94
-14.97
-27.01
-33.84
-36.06
-34.68
-30.89
-26.00
-21.51
-18.90
-19.29
-22.99
-29.31
-36.69
-43.25
-47.40
-48.42
-46.60
-43.10
-39.37
-36.78
-36.06
-37.16
-39.10
-40.20
-38.55
-32.72
-22.50
-9.27
4.21
14.62
19.36
17.51
10.29
0.52
-8.51
-14.25
-15.77
-13.85
-10.45
-7.78
-7.45
-10.02
-15.01
-21.29
-27.54
-32.66
-35.89
-36.74
-34.78
-29.53
-20.56
-7.74
8.35
26.22
43.65
58.21
68.09
72.85
73.56
72.46
71.90
73.15
75.69
77.30
75.00
66.40
50.83
29.75
6.29
-15.79
-33.22
-44.04
-47.84
-45.51
-38.70
-29.40
-19.59
-11.15
-5.78
-4.70
-8.42
-16.39
-27.02
-37.95
-46.71
-51.39
-51.20
-46.60
-39.09
-30.72
-23.46
-18.71
-16.93
-17.59
-19.26
-20.07
-18.38
-13.51
-6.20
1.60
7.40
9.23
6.54
0.48
-6.60
-12.14
-14.48
-13.41
-10.02
-6.03
-2.87
-1.19
-0.78
-1.06
-1.59
-2.37
-3.70
-5.76
-8.23
-10.08
-9.82
-6.06
1.91
13.74
27.93
42.15
53.72
60.39
61.08
56.51
49.27
43.08
41.33
45.47
53.99
62.84
67.02
62.81
49.50
29.78
8.60
-8.82
-18.92
-20.80
-16.11
-8.03
-0.02
5.08
5.65
1.22
-7.63
-19.63
-33.09
-46.22
-57.49
-65.78
-70.63
-72.22
-71.36
-69.28
-67.28
-66.49
-67.41
-69.81
-72.67
-74.54
-73.90
-69.76
-61.78
-50.30
-36.04
-19.89
-2.82
13.86
28.45
39.03
44.17
43.75
39.44
34.45
32.30
35.35
43.64
54.70
64.59
69.51
67.34
58.30
44.61
29.29
14.87
2.70
-7.15
-15.28
-22.26
-28.22
-32.84
-35.73
-36.86
-36.85
-36.98
-38.90
-43.98
-52.76
-64.30
-76.22
-85.19
-87.87
-81.95
-66.85
-43.78
-15.37
15.03
44.08
68.98
87.97
100.74
108.47
113.30
117.33
121.50
125.08
126.27
123.40
116.38
107.09
98.66
93.89
93.88
97.69
102.95
107.25
109.06
107.93
103.91
96.90
86.34
71.56
52.45
29.92
5.94
-17.06
-36.82
-51.98
-62.27
-68.36
-71.45
-72.76
-73.25
-73.40
-73.25
-72.56
-71.09
-68.74
-65.65
-62.14
-58.60
-55.41
-52.86
-51.24
-50.84
-51.86
-54.40
-58.27
-63.04
-68.06
-72.56
-75.68
-76.67
-74.96
-70.36
-63.20
-54.36
-45.13
-36.82
-30.40
-26.17
-23.74
-22.26
-20.81
-18.77
-15.93
-12.44
-8.55
-4.43
-0.06
4.63
9.67
14.84
19.75
23.87
26.77
28.20
28.09
26.45
23.37
19.05
13.96
8.91
4.96
3.07
3.71
6.53
10.45
13.92
15.35
13.64
8.58
1.07
-6.97
-13.06
-15.05
-11.87
-4.09
6.31
16.74
25.13
30.72
34.08
36.45
38.79
41.24
43.29
44.47
45.01
46.04
48.99
54.79
63.17
72.59
80.85
85.89
86.53
82.84
75.97
67.74
60.08
54.54
51.77
51.39
51.96
51.44
47.68
39.11
25.19
6.78
-13.70
-32.48
-45.37
-49.14
-43.09
-29.91
-15.20
-5.48
-5.50
-15.99
-32.92
-48.91
-56.26
-50.07
-30.19
-1.26
29.36
54.47
69.41
73.06
67.23
55.12
39.73
22.97
5.43
-13.32
-34.38
-59.25
-89.12
-123.92
-161.47
-197.39
-225.94
-241.84
-242.49
-229.02
-206.32
-180.60
-156.92
-137.75
-122.92
-110.73
-99.17
-86.90
-73.59
-60.39
-48.60
-39.20
-33.09
-31.15
-33.73
-39.71
-46.17
-49.19
-46.62
-38.13
-25.39
-11.73
-0.83
4.78
4.78
0.64
-5.67
-14.14
-24.84
-36.55
-46.95
-53.28
-53.64
-47.69
-37.09
-16.61
12.39
43.08
68.34
85.59
96.87
104.67
109.12
108.20
100.06
83.94
63.55
46.61
39.78
46.92
66.71
93.69
121.10
143.81
158.61
162.19
155.96
142.55
123.79
100.61
74.54
48.45
25.73
7.59
-6.54
-17.59
-25.77
-29.51
-25.89
-12.74
8.73
35.23
60.47
78.46
86.49
85.77
80.33
74.48
70.54
68.56
66.97
63.51
56.89
47.22
35.63
23.37
11.04
-2.29
-17.84
-36.74
-60.20
-86.10
-112.13
-135.69
-154.45
-166.95
-173.42
-174.04
-168.64
-156.90
-138.66
-114.85
-87.62
-60.30
-32.58
-8.49
7.86
14.85
14.07
8.78
2.02
-3.61
-6.35
-5.18
-1.10
4.41
9.48
12.23
11.12
4.95
-6.26
-20.76
-34.47
-43.43
-42.58
-29.12
-4.21
26.95
56.97
79.49
90.16
89.72
82.53
73.76
66.33
60.39
54.38
47.04
38.93
32.06
28.90
30.72
37.37
47.26
57.67
65.84
68.22
62.32
47.57
26.09
2.19
-18.85
-32.79
-37.95
-35.72
-29.52
-22.80
-17.76
-14.73
-13.01
-11.92
-11.57
-12.49
-15.42
-20.21
-25.84
-30.96
-34.45
-36.08
-36.54
-37.08
-38.78
-42.37
-47.63
-53.66
-59.36
-63.66
-65.61
-64.23
-58.46
-47.14
-30.68
-10.75
9.03
23.87
29.29
23.14
6.86
-16.51
-37.26
-49.68
-50.09
-37.82
-14.84
15.22
48.24
80.37
108.49
131.03
147.61
159.76
169.90
180.02
190.28
198.76
202.02
196.25
179.00
149.70
110.16
63.86
15.38
-30.53
-69.19
-96.69
-110.97
-112.33
-103.69
-89.85
-76.14
-64.82
-57.84
-55.22
-55.16
-55.80
-58.25
-62.19
-66.40
-68.66
-66.18
-55.17
-34.41
-5.78
25.81
54.10
73.93
82.47
80.05
69.51
54.48
38.10
22.33
7.87
-5.37
-17.45
-28.73
-39.65
-50.54
-61.58
-72.70
-83.34
-92.70
-99.90
-104.16
-105.28
-103.66
-100.08
-95.43
-90.38
-85.05
-79.19
-72.42
-64.63
-56.27
-48.32
-41.84
-37.60
-35.72
-35.58
-35.98
-35.49
-32.74
-26.72
-17.06
-4.21
10.45
24.90
37.04
45.64
50.90
54.43
58.43
64.44
72.47
80.99
87.86
91.50
91.66
89.27
85.73
82.18
79.10
76.60
74.56
72.33
68.36
60.67
47.89
30.54
11.55
-4.75
-14.79
-17.82
-16.87
-17.51
-24.97
-41.54
-65.48
-92.08
-116.12
-134.04
-144.54
-148.34
-147.05
-141.70
-132.21
-117.59
-96.67
-69.38
-36.94
-0.97
36.12
71.47
102.95
129.59
151.38
168.91
182.03
190.28
194.78
196.66
196.14
193.53
189.04
182.96
176.52
170.85
168.04
172.36
185.77
204.88
222.96
232.02
225.82
202.49
162.45
108.57
47.11
-16.90
-81.89
-146.72
-209.82
-269.13
-311.36
-324.59
-325.15
-325.03
-321.61
-314.77
-304.51
-291.23
-276.03
-259.83
-246.13
-229.26
-205.30
-175.06
-144.10
-116.73
-94.13
-79.03
-67.23
-57.31
-50.03
-45.92
-45.59
-49.09
-55.09
-60.54
-61.71
-54.72
-38.52
-13.49
19.79
59.75
102.11
140.21
165.43
169.37
147.98
103.24
44.72
-12.88
-54.84
-71.82
-61.79
-28.96
19.01
74.27
129.33
177.76
214.20
235.17
240.10
231.92
215.95
197.42
179.59
162.53
144.35
123.10
98.49
71.97
45.75
21.62
0.47
-17.25
-31.14
-40.64
-45.49
-46.29
-44.50
-41.94
-39.95
-39.11
-39.02
-38.65
-36.59
-31.49
-22.53
-10.06
4.02
16.73
24.94
26.88
23.11
16.43
10.65
8.86
12.07
19.06
27.32
34.34
38.63
39.85
38.27
34.28
28.27
20.90
13.38
7.45
4.74
5.93
10.19
15.42
19.03
19.18
15.60
9.60
3.29
-1.50
-4.09
-5.12
-6.04
-8.43
-13.33
-21.02
-30.77
-40.91
-48.96
-52.24
-48.97
-39.50
-27.12
-17.70
-17.86
-32.14
-60.68
-98.16
-134.83
-159.58
-163.83
-144.64
-105.77
-56.24
-6.93
32.74
57.24
65.46
59.78
44.43
24.10
3.24
-14.22
-24.92
-27.38
-22.72
-14.41
-6.73
-3.07
-4.31
-9.14
-14.72
-17.86
-17.09
-13.24
-8.16
-3.01
2.44
10.13
21.93
39.33
63.36
92.52
122.38
147.03
161.38
162.61
151.82
132.45
110.30
92.76
84.66
85.79
91.43
94.74
88.52
67.76
28.62
-33.85
-112.43
-189.80
-248.97
-281.98
-288.69
-279.25
-254.49
-214.77
-163.03
-104.93
-49.46
-6.39
15.57
14.95
-1.80
-22.24
-35.41
-35.14
-20.87
2.30
26.63
45.89
58.09
64.48
68.38
71.89
76.48
83.99
95.53
110.24
124.75
134.06
132.99
119.06
93.19
60.61
29.36
6.75
-3.57
-2.56
5.50
14.82
20.19
17.47
4.33
-19.62
-52.97
-92.32
-132.33
-166.12
-186.98
-190.51
-176.48
-149.00
-115.04
-81.83
-54.49
-34.80
-21.56
-12.12
-3.99
4.21
12.73
21.22
29.28
36.81
44.02
51.37
59.45
68.83
79.82
92.20
105.09
117.09
126.50
131.80
131.92
126.46
115.85
101.47
85.51
70.77
60.21
56.30
60.54
73.01
92.24
115.25
137.91
155.53
164.00
160.99
146.90
125.15
101.31
81.38
69.90
68.60
76.21
89.29
103.43
114.26
118.06
112.21
95.94
71.00
41.78
14.22
-6.28
-17.46
-21.40
-23.79
-31.23
-48.03
-74.32
-106.48
-139.43
-169.24
-194.34
-214.95
-231.49
-243.42
-249.38
-248.55
-242.11
-233.53
-227.18
-226.17
-230.61
-237.45
-241.99
-240.35
-231.35
-216.80
-200.40
-185.75
-174.72
-166.81
-159.67
-150.17
-135.59
-114.51
-87.27
-55.94
-23.98
4.61
26.39
39.59
44.81
44.80
43.49
44.31
48.88
56.39
64.25
69.56
70.69
68.18
64.53
62.97
65.91
73.81
85.13
97.04
106.75
112.63
114.46
112.97
108.86
102.39
93.44
82.30
70.41
60.12
53.66
51.92
53.97
57.60
60.68
62.38
63.48
65.72
70.37
77.38
85.34
92.38
97.41
100.59
103.14
106.28
110.36
114.42
116.51
114.39
106.48
92.55
73.78
52.26
30.14
8.75
-11.58
-31.05
-49.56
-66.30
-79.95
-89.39
-94.45
-96.29
-96.86
-98.01
-100.71
-104.85
-109.56
-113.86
-116.96
-118.27
-117.09
-112.66
-104.36
-92.26
-77.39
-61.49
-46.41
-33.35
-22.49
-13.28
-5.02
2.58
9.14
13.88
16.13
15.86
13.87
11.63
10.80
12.69
17.84
25.69
34.74
42.86
48.09
49.38
47.06
42.73
38.61
36.60
37.38
40.18
43.11
44.03
41.63
36.03
28.81
22.20
17.98
16.68
17.40
18.40
18.17
16.41
14.41
14.75
20.36
33.16
52.92
76.57
98.26
110.35
105.38
78.93
32.12
-27.31
-86.51
-131.56
-152.36
-146.28
-118.67
-80.22
-42.41
-13.47
3.51
9.70
8.15
1.55
-8.57
-21.19
-34.61
-46.00
-52.05
-50.49
-41.35
-27.19
-12.25
-0.87
4.17
2.49
-4.11
-12.64
-20.23
-25.10
-26.93
-26.56
-25.45
-25.06
-26.30
-29.24
-32.98
-35.94
-36.38
-33.26
-26.71
-18.13
-9.62
-2.96
1.01
2.61
2.78
2.54
2.66
3.83
6.94
13.00
22.60
35.01
47.94
58.15
62.73
60.45
52.33
41.17
30.12
21.49
15.94
12.63
9.91
6.11
0.06
-8.75
-20.34
-34.27
-49.75
-65.59
-80.22
-92.06
-100.08
-104.22
-105.57
-105.95
-106.89
-108.56
-109.29
-106.14
-96.42
-79.41
-57.58
-36.27
-22.13
-20.79
-34.75
-62.18
-97.28
-131.80
-157.67
-169.59
-166.95
-153.96
-137.83
-125.44
-120.24
-120.77
-121.44
-115.09
-96.18
-62.89
-17.50
34.78
87.50
134.76
172.36
198.24
212.69
217.83
216.79
212.67
207.84
203.69
200.99
200.29
202.07
206.53
213.26
221.39
230.01
238.60
247.04
255.28
262.80
268.31
269.99
266.20
256.04
239.59
217.58
191.05
161.03
128.45
94.19
59.10
23.99
-10.11
-41.64
-68.59
-89.01
-101.96
-108.38
-111.04
-113.52
-118.55
-126.70
-136.27
-144.32
-148.27
-146.91
-140.47
-129.80
-115.73
-99.01
-80.90
-63.64
-50.32
-43.72
-45.05
-53.24
-65.22
-77.20
-85.94
-89.67
-88.17
-82.32
-73.59
-63.62
-54.07
-46.49
-42.06
-41.31
-43.81
-48.31
-53.05
-56.42
-57.58
-56.69
-54.76
-53.23
-53.31
-55.59
-59.92
-65.58
-71.60
-77.17
-81.82
-85.48
-88.39
-90.85
-93.01
-94.78
-95.81
-95.75
-94.44
-92.06
-89.10
-86.18
-83.77
-82.02
-80.68
-79.18
-76.85
-73.21
-68.13
-61.84
-54.73
-47.16
-39.30
-31.09
-22.17
-11.97
0.25
15.11
32.81
52.89
74.10
94.73
112.90
127.04
136.14
140.01
139.47
136.29
132.82
131.15
132.20
135.15
137.64
136.94
131.52
122.06
111.37
103.11
100.11
103.32
111.67
122.89
134.38
143.83
149.19
148.66
140.96
125.93
105.01
81.21
58.29
39.55
26.69
19.50
16.38
15.30
14.74
14.11
13.54
13.43
14.01
15.25
16.95
18.92
21.09
23.37
25.45
26.68
26.28
23.60
18.48
11.46
3.57
-4.09
-10.78
-16.19
-20.23
-22.58
-22.54
-19.33
-12.75
-3.83
5.23
11.88
14.34
12.59
8.32
4.00
1.47
0.99
1.29
0.41
-3.08
-9.37
-17.49
-26.03
-33.97
-41.01
-47.42
-53.54
-59.31
-64.18
-67.50
-68.93
-68.75
-67.80
-67.09
-67.38
-68.90
-71.26
-73.73
-75.52
-76.07
-75.18
-73.03
-70.00
-66.50
-62.79
-58.88
-54.55
-49.50
-43.49
-36.61
-29.25
-22.02
-15.61
-10.54
-6.99
-4.77
-3.45
-2.48
-1.46
-0.26
0.96
1.82
1.96
1.18
-0.41
-2.38
-4.17
-5.27
-5.38
-4.59
-3.33
-2.21
-1.90
-2.98
-5.89
-10.81
-17.66
-26.01
-35.09
-43.99
-51.91
-58.43
-63.59
-67.63
-70.66
-72.28
-71.55
-67.27
-58.65
-45.85
-30.07
-13.22
2.81
16.77
28.26
37.57
45.22
51.55
56.60
60.28
62.63
63.97
64.78
65.53
66.35
67.03
67.15
66.30
64.32
61.31
57.58
53.50
49.37
45.35
41.48
37.71
33.99
30.26
26.39
22.29
17.86
13.14
8.36
3.91
0.29
-2.13
-3.25
-3.30
-2.69
-1.84
-0.97
-0.03
1.20
2.95
5.37
8.39
11.84
15.48
19.08
22.50
25.61
28.26
30.30
31.61
32.23
32.39
32.53
33.08
34.28
36.03
37.79
38.85
38.53
36.48
32.66
27.34
21.03
14.45
8.51
4.14
1.85
1.29
1.19
-0.26
-4.52
-12.13
-22.57
-35.06
-49.35
-66.07
-86.16
-109.52
-134.18
-156.47
-172.55
-180.26
-180.48
-176.87
-174.19
-176.12
-183.74
-195.34
-207.47
-216.58
-220.32
-218.04
-210.32
-197.90
-181.05
-159.65
-133.92
-105.09
-75.57
-47.91
-23.50
-1.94
18.16
37.28
53.48
62.62
60.77
47.25
26.33
6.09
-5.23
-3.30
10.11
28.46
44.08
52.06
52.13
47.85
44.00
43.87
48.15
55.60
64.66
74.82
86.87
102.14
121.23
143.18
165.43
184.78
198.75
206.62
209.63
210.27
211.01
213.34
217.26
221.75
225.53
227.81
228.65
228.74
228.86
229.45
230.54
231.81
232.89
233.57
233.80
233.67
233.23
232.49
231.13
228.33
222.77
212.96
197.74
176.83
150.94
121.53
90.25
58.27
26.06
-6.40
-39.12
-71.56
-102.54
-130.57
-154.50
-173.95
-189.54
-202.48
-213.86
-224.02
-232.20
-236.90
-236.74
-231.52
-222.76
-213.44
-206.68
-204.38
-206.14
-209.29
-209.91
-204.34
-190.49
-168.19
-138.99
-105.72
-72.35
-43.81
-25.35
-21.03
-31.72
-53.78
-79.42
-99.44
-107.00
-100.68
-85.09
-68.45
-58.39
-58.34
-66.29
-76.55
-83.21
-83.31
-77.85
-70.53
-65.23
-63.67
-64.63
-65.05
-62.02
-54.57
-44.27
-34.31
-28.04
-27.46
-32.58
-41.66
-52.26
-62.28
-70.62
-77.16
-82.28
-86.16
-88.38
-88.09
-84.49
-77.31
-66.94
-54.00
-38.98
-22.01
-3.09
17.36
38.31
58.42
76.69
93.19
109.07
125.91
144.62
164.60
183.61
198.34
205.54
202.90
189.60
166.36
135.25
99.36
62.25
27.36
-2.67
-26.46
-43.87
-55.50
-61.83
-62.69
-57.12
-44.23
-24.39
-0.12
24.25
44.36
57.60
63.80
64.16
59.21
47.63
27.36
-1.74
-35.38
-64.89
-80.44
-76.17
-53.91
-23.05
3.87
17.48
15.68
3.67
-9.77
-17.78
-19.20
-18.68
-23.17
-37.46
-60.22
-84.57
-100.99
-101.50
-83.23
-49.60
-8.10
33.95
72.54
108.66
144.41
179.58
210.38
230.90
236.18
225.60
204.54
181.69
166.84
164.50
172.68
185.37
196.68
203.50
206.66
210.52
218.88
234.62
254.53
270.06
271.31
251.43
208.24
144.53
67.03
-29.08
-135.29
-236.23
-318.91
-377.66
-411.12
-419.53
-410.92
-389.49
-362.90
-339.42
-328.07
-334.47
-357.41
-384.51
-401.44
-396.25
-363.32
-306.79
-236.10
-163.50
-98.67
-44.91
1.21
46.01
95.25
151.87
213.52
274.73
327.10
361.71
371.77
354.50
311.05
246.67
170.14
92.11
24.48
-22.64
-43.43
-38.35
-14.35
17.10
45.45
66.22
82.56
102.86
134.39
177.77
225.73
266.52
289.15
288.64
266.73
228.60
178.84
119.68
52.34
-20.00
-90.54
-150.85
-193.49
-215.09
-217.63
-207.41
-192.03
-177.17
-164.25
-147.02
-119.04
-78.70
-32.84
6.13
27.40
27.64
12.87
-4.23
-10.53
-0.19
23.56
51.77
74.50
85.37
83.53
72.54
57.47
41.99
26.79
12.30
-0.03
-7.32
-6.11
5.58
26.17
50.01
68.93
75.19
65.27
41.53
11.32
-16.14
-33.74
-39.18
-35.17
-27.38
-21.52
-20.81
-25.48
-33.73
-43.35
-52.88
-61.95
-70.75
-79.48
-88.04
-96.07
-103.42
-110.39
-117.57
-125.48
-134.13
-142.79
-150.03
-154.22
-154.12
-149.56
-141.54
-131.99
-123.10
-116.64
-113.47
-113.51
-115.91
-119.46
-123.03
-125.78
-127.38
-128.04
-128.46
-129.58
-132.25
-136.79
-142.81
-149.39
-155.48
-160.36
-164.02
-167.08
-170.54
-175.25
-181.57
-189.05
-196.47
-202.05
-203.72
-199.45
-187.56
-167.01
-137.69
-100.54
-57.35
-10.36
38.60
88.74
140.51
194.82
251.58
308.40
360.16
400.26
423.00
426.01
411.46
385.43
355.89
330.38
314.39
310.67
319.25
337.50
360.42
381.19
392.52
388.49
366.36
327.30
275.51
216.54
155.24
94.35
34.31
-25.82
-86.89
-148.18
-206.81
-258.29
-297.97
-322.46
-330.30
-321.66
-297.64
-259.80
-210.57
-153.98
-96.02
-43.78
-3.49
21.60
32.35
33.15
29.96
28.08
30.69
38.63
50.86
65.10
78.70
89.66
97.48
103.62
110.77
121.18
134.97
149.40
159.75
161.46
152.35
133.44
108.19
80.67
53.88
29.07
5.99
-16.30
-38.59
-60.78
-82.18
-101.92
-119.11
-132.68
-141.23
-143.22
-137.43
-123.59
-102.20
-75.27
-46.48
-20.87
-3.65
1.53
-6.15
-24.22
-47.51
-68.39
-79.84
-77.71
-61.93
-35.99
-5.14
25.35
51.43
70.49
82.90
90.25
94.49
97.44
101.20
108.34
121.02
139.69
153.85
153.27
132.93
97.12
55.66
17.48
-12.38
-32.07
-40.58
-39.50
-29.21
-11.71
8.18
23.19
26.11
13.08
-16.05
-55.61
-96.64
-128.25
-141.43
-131.37
-98.88
-50.10
5.09
55.55
92.08
109.73
110.04
99.17
84.52
71.09
60.20
50.52
40.42
29.92
20.55
14.41
11.94
10.89
6.95
-3.85
-22.81
-47.91
-74.74
-98.88
-118.00
-132.46
-144.59
-157.34
-172.40
-189.59
-207.83
-226.65
-246.89
-270.16
-296.53
-322.58
-342.10
-347.49
-332.52
-295.18
-238.81
-170.05
-96.83
-24.58
44.99
111.47
174.23
231.17
278.24
310.27
324.03
318.32
295.28
259.40
213.95
161.05
102.82
41.93
-18.41
-73.35
-119.79
-156.47
-174.67
-170.74
-149.36
-120.56
-92.05
-72.19
-54.09
-31.11
0.01
38.97
83.05
126.49
165.13
197.20
217.30
219.83
200.42
160.26
105.84
45.02
-14.61
-66.72
-107.80
-137.78
-158.22
-171.62
-178.73
-178.72
-171.30
-157.66
-140.25
-124.01
-108.99
-93.53
-75.56
-53.28
-26.67
1.51
26.96
46.14
57.87
63.30
64.65
63.96
62.61
61.20
60.10
60.14
60.06
60.05
60.04
58.95
55.51
49.28
41.11
32.66
25.65
21.00
19.00
19.54
22.66
29.32
40.72
56.91
75.89
93.71
105.79
109.05
103.00
89.54
72.19
54.64
39.56
28.29
21.08
17.42
16.48
16.88
16.87
15.02
10.81
4.89
-1.29
-6.27
-9.31
-10.42
-10.02
-8.52
-5.85
-1.61
4.41
11.89
19.89
27.30
33.47
38.38
42.42
45.73
47.78
47.37
43.32
35.33
24.48
13.06
3.74
-1.64
-2.96
-2.12
-2.38
-7.24
-19.15
-38.43
-63.11
-89.55
-113.48
-131.23
-140.39
-139.96
-129.92
-110.96
-84.84
-55.00
-26.56
-5.15
5.52
5.95
1.55
0.87
11.61
36.57
71.72
107.76
134.48
145.49
140.65
125.16
106.02
88.08
72.48
57.51
41.02
22.29
2.14
-18.27
-38.74
-60.30
-83.97
-109.12
-132.54
-149.08
-153.33
-141.59
-113.04
-70.00
-17.35
38.45
90.60
133.23
162.57
177.60
179.86
172.52
159.15
142.78
125.69
109.71
96.21
86.06
79.23
74.45
69.62
62.49
51.68
37.13
19.96
1.66
-16.69
-34.84
-53.09
-71.54
-89.53
-105.58
-117.93
-125.38
-127.85
-126.36
-122.32
-116.85
-110.18
-101.82
-91.14
-78.09
-63.51
-49.09
-36.65
-27.48
-21.87
-19.03
-17.52
-15.85
-13.10
-9.21
-4.97
-1.56
-0.11
-1.15
-4.48
-9.19
-14.05
-17.97
-20.26
-20.93
-20.45
-19.52
-18.75
-18.42
-18.56
-19.03
-19.73
-20.61
-21.62
-22.64
-23.38
-23.55
-22.90
-21.42
-19.34
-17.05
-14.95
-13.37
-12.51
-12.37
-12.87
-13.71
-14.56
-15.11
-15.18
-14.82
-14.29
-13.93
-14.02
-14.63
-15.62
-16.69
-17.39
-17.17
-15.41
-11.59
-5.64
1.82
9.34
15.05
17.41
15.96
11.77
7.14
4.74
6.61
13.45
24.44
37.73
50.99
61.96
68.85
70.52
66.74
58.19
46.41
33.36
20.83
9.93
0.95
-6.48
-12.87
-18.52
-23.42
-27.42
-30.61
-33.52
-37.10
-42.32
-49.80
-59.41
-70.19
-80.54
-88.54
-92.67
-92.18
-87.47
-79.89
-71.21
-62.74
-54.71
-46.15
-35.51
-21.75
-5.22
11.91
26.31
34.68
35.03
27.56
14.66
0.18
-11.84
-18.47
-18.50
-12.55
-2.35
10.14
23.56
37.55
52.78
70.78
93.52
122.70
158.64
199.07
238.35
268.09
279.35
265.83
226.56
166.86
96.70
27.40
-31.86
-76.04
-104.34
-118.79
-122.60
-118.91
-110.52
-99.95
-89.51
-80.90
-74.83
-70.77
-67.22
-62.41
-55.05
-45.01
-33.26
-21.63
-12.07
-5.93
-3.52
-4.09
-6.29
-8.84
-11.04
-12.90
-14.95
-17.68
-21.13
-24.60
-26.85
-26.74
-23.91
-19.08
-13.83
-10.05
-9.02
-10.90
-14.40
-17.37
-18.17
-16.54
-13.80
-12.09
-13.35
-18.28
-26.03
-34.19
-39.96
-41.57
-39.03
-33.78
-27.77
-23.06
-21.74
-26.11
-37.22
-54.14
-73.81
-91.37
-101.30
-99.60
-86.10
-65.16
-44.10
-28.64
-19.84
-14.21
-5.89
10.21
35.73
67.81
101.99
128.24
137.34
128.20
108.14
86.30
68.05
54.06
42.37
31.27
20.57
12.37
9.41
12.43
19.08
24.86
25.21
17.35
1.61
-18.39
-36.38
-44.61
-37.90
-16.04
16.09
50.48
79.02
96.50
102.10
99.36
93.91
90.03
88.24
85.55
77.60
61.46
37.50
9.58
-16.26
-34.45
-40.37
-32.30
-11.58
18.76
55.23
93.97
130.77
161.95
183.14
190.59
182.39
159.64
126.29
87.64
48.30
11.16
-22.56
-52.58
-78.38
-99.00
-113.42
-121.26
-123.21
-120.84
-115.95
-109.90
-103.45
-96.66
-89.45
-81.91
-74.49
-67.77
-62.20
-57.81
-54.21
-50.82
-47.13
-43.01
-38.76
-34.86
-31.66
-29.16
-26.98
-24.59
-21.61
-17.95
-13.87
-9.84
-6.34
-3.67
-1.95
-1.02
-0.58
-0.26
0.31
1.40
3.03
4.97
6.80
8.13
8.79
8.84
8.53
8.09
7.65
7.21
6.71
6.19
5.70
5.32
5.03
4.65
4.03
3.12
2.09
1.28
1.01
1.42
2.36
3.52
4.51
5.10
5.20
4.90
4.37
3.86
3.59
3.77
4.44
5.54
6.80
7.92
8.62
8.76
8.35
7.49
6.32
4.97
3.51
2.02
0.50
-1.09
-2.87
-4.89
-7.15
-9.44
-11.50
-13.02
-13.87
-14.09
-13.89
-13.54
-13.24
-13.09
-13.09
-13.23
-13.45
-13.75
-14.13
-14.60
-15.15
-15.74
-16.33
-16.87
-17.30
-17.55
-17.58
-17.30
-16.61
-15.33
-13.34
-10.59
-7.22
-3.55
0.01
3.09
5.48
7.16
8.25
8.95
9.39
9.62
9.62
9.38
8.89
8.20
7.35
6.41
5.41
4.40
3.41
2.47
1.58
0.74
-0.10
-0.97
-1.89
-2.86
-3.90
-5.02
-6.21
-7.45
-8.69
-9.88
-11.02
-12.20
-13.52
-15.03
-16.60
-17.93
-18.64
-18.42
-17.18
-15.06
-12.35
-9.37
-6.31
-3.26
-0.22
2.74
5.51
7.93
9.88
11.39
12.58
13.58
14.45
15.09
15.29
14.85
13.72
12.03
10.12
8.36
7.04
6.24
5.87
5.66
5.35
4.72
3.68
2.30
0.71
-0.90
-2.36
-3.60
-4.65
-5.63
-6.68
-7.96
-9.57
-11.48
-13.53
-15.49
-17.05
-17.93
-17.93
-16.95
-15.04
-12.36
-9.15
-5.68
-2.24
0.96
3.82
6.32
8.53
10.50
12.25
13.72
14.79
15.37
15.41
15.00
14.27
13.40
12.50
11.66
10.91
10.25
9.64
9.02
8.32
7.43
6.34
5.10
3.82
2.59
1.49
0.45
-0.59
-1.72
-2.95
-4.28
-5.68
-7.19
-8.83
-10.60
-12.43
-14.13
-15.46
-16.21
-16.26
-15.60
-14.29
-12.40
-10.05
-7.32
-4.32
-1.17
2.03
5.17
8.17
10.94
13.40
15.44
16.99
18.03
18.56
18.62
18.23
17.46
16.42
15.35
14.50
14.11
14.21
14.66
15.12
15.31
15.05
14.40
13.59
12.84
12.24
11.71
11.06
10.11
8.80
7.22
5.53
3.91
2.45
1.10
-0.22
-1.65
-3.24
-4.96
-6.62
-7.98
-8.73
-8.64
-7.57
-5.52
-2.59
1.03
5.12
9.41
13.59
17.38
20.50
22.80
24.29
25.12
25.52
25.73
25.85
25.80
25.47
24.71
23.49
21.94
20.25
18.62
17.16
15.89
14.77
13.71
12.61
11.41
10.05
8.44
6.56
4.39
2.01
-0.43
-2.75
-4.81
-6.54
-8.06
-9.55
-11.21
-13.21
-15.61
-18.30
-21.02
-23.49
-25.35
-26.36
-26.43
-25.53
-23.78
-21.33
-18.35
-15.04
-11.67
-8.49
-5.83
-3.91
-2.86
-2.63
-3.03
-3.79
-4.68
-5.55
-6.42
-7.40
-8.67
-10.36
-12.49
-14.96
-17.56
-20.04
-22.25
-24.17
-25.90
-27.63
-29.49
-31.57
-33.87
-36.43
-39.35
-42.84
-46.99
-51.58
-55.99
-59.27
-60.52
-59.30
-55.70
-49.91
-41.49
-29.08
-10.91
13.98
44.49
77.14
106.91
128.91
140.06
139.70
129.21
111.17
88.61
64.87
43.75
29.21
24.41
30.55
46.22
67.70
90.03
108.48
119.55
121.61
115.08
102.15
86.09
70.09
56.04
43.95
32.23
18.97
3.45
-13.13
-28.16
-39.04
-44.55
-45.39
-43.52
-40.84
-38.15
-34.99
-30.48
-24.19
-16.77
-9.78
-5.06
-3.88
-6.41
-11.79
-18.49
-24.96
-30.18
-33.84
-36.30
-38.24
-40.22
-42.41
-44.51
-45.95
-46.18
-44.99
-42.61
-39.53
-36.25
-32.93
-29.40
-25.38
-20.88
-16.30
-12.46
-10.27
-10.35
-12.65
-16.50
-20.77
-24.28
-26.12
-25.85
-23.53
-19.57
-14.63
-9.42
-4.54
-0.33
3.14
5.96
8.25
9.99
11.02
11.20
10.58
9.57
8.75
8.68
9.55
11.03
12.50
13.36
13.38
12.78
12.00
11.47
11.39
11.65
12.05
12.44
12.80
13.20
13.67
14.20
14.66
15.00
15.17
15.15
14.91
14.38
13.50
12.29
10.86
9.43
8.20
7.27
6.59
6.00
5.30
4.39
3.33
2.30
1.51
1.05
0.87
0.77
0.53
-0.07
-1.10
-2.48
-4.05
-5.61
-7.04
-8.34
-9.61
-11.01
-12.71
-14.78
-17.15
-19.67
-22.10
-24.21
-25.79
-26.64
-26.60
-25.55
-23.44
-20.32
-16.35
-11.73
-6.64
-1.23
4.36
9.98
15.37
20.27
24.46
27.86
30.50
32.54
34.11
35.27
36.05
36.38
36.25
35.68
34.76
33.61
32.34
31.01
29.57
27.88
25.76
23.10
19.89
16.31
12.62
9.12
5.99
3.28
0.90
-1.26
-3.30
-5.24
-7.06
-8.72
-10.20
-11.50
-12.66
-13.73
-14.83
-16.09
-17.61
-19.44
-21.52
-23.71
-25.81
-27.64
-29.05
-29.94
-30.18
-29.65
-28.23
-25.89
-22.71
-18.93
-14.84
-10.76
-6.94
-3.57
-0.73
1.52
3.15
4.16
4.66
4.81
4.85
4.96
5.26
5.73
6.24
6.65
6.82
6.71
6.32
5.72
5.01
4.27
3.60
3.05
2.65
2.39
2.18
1.93
1.54
0.92
0.02
-1.16
-2.57
-4.13
-5.73
-7.24
-8.61
-9.81
-10.88
-11.87
-12.86
-13.89
-15.01
-16.21
-17.45
-18.64
-19.64
-20.30
-20.51
-20.23
-19.54
-18.50
-17.14
-15.43
-13.32
-10.79
-7.97
-5.09
-2.36
0.04
2.04
3.64
4.85
5.62
5.92
5.74
5.12
4.18
3.03
1.75
0.41
-0.96
-2.24
-3.31
-4.03
-4.33
-4.26
-3.94
-3.56
-3.24
-3.05
-2.97
-2.94
-2.87
-2.75
-2.59
-2.47
-2.45
-2.55
-2.74
-2.94
-3.10
-3.22
-3.40
-3.75
-4.41
-5.46
-6.93
-8.76
-10.76
-12.67
-14.15
-14.88
-14.63
-13.37
-11.27
-8.62
-5.75
-2.92
-0.26
2.18
4.33
6.16
7.58
8.60
9.27
9.71
10.07
10.42
10.71
10.86
10.77
10.37
9.65
8.65
7.44
6.10
4.74
3.48
2.43
1.65
1.16
0.91
0.79
0.68
0.44
0.01
-0.62
-1.36
-2.12
-2.80
-3.36
-3.91
-4.59
-5.57
-6.88
-8.46
-10.10
-11.54
-12.50
-12.81
-12.39
-11.27
-9.57
-7.45
-5.09
-2.65
-0.28
1.87
3.64
4.94
5.79
6.31
6.70
7.14
7.66
8.19
8.53
8.56
8.22
7.60
6.85
6.13
5.56
5.19
5.00
4.87
4.69
4.35
3.78
3.02
2.15
1.25
0.39
-0.44
-1.27
-2.12
-3.01
-3.93
-4.87
-5.91
-7.15
-8.66
-10.48
-12.50
-14.56
-16.40
-17.81
-18.62
-18.78
-18.32
-17.27
-15.68
-13.56
-10.96
-8.01
-4.98
-2.20
0.05
1.62
2.56
3.07
3.42
3.78
4.22
4.70
5.14
5.48
5.69
5.78
5.80
5.77
5.73
5.62
5.45
5.19
4.84
4.47
4.07
3.63
3.02
2.05
0.60
-1.35
-3.62
-5.88
-7.81
-9.27
-10.30
-11.14
-12.09
-13.37
-15.01
-16.90
-18.81
-20.50
-21.74
-22.33
-22.12
-21.02
-19.07
-16.35
-13.06
-9.40
-5.55
-1.71
1.96
5.29
8.15
10.53
12.44
13.95
15.08
15.83
16.11
15.89
15.19
14.11
12.82
11.50
10.32
9.37
8.65
8.06
7.49
6.86
6.14
5.40
4.66
3.90
3.06
2.00
0.67
-0.92
-2.70
-4.59
-6.60
-8.76
-11.12
-13.61
-16.08
-18.32
-20.11
-21.32
-21.81
-21.51
-20.32
-18.21
-15.23
-11.55
-7.43
-3.18
0.92
4.64
7.86
10.58
12.80
14.61
16.07
17.17
17.90
18.23
18.10
17.49
16.40
14.86
13.00
10.98
8.95
7.00
5.15
3.33
1.51
-0.30
-2.00
-3.51
-4.80
-5.94
-7.09
-8.39
-9.90
-11.58
-13.35
-15.11
-16.91
-18.84
-21.04
-23.57
-26.39
-29.35
-32.21
-34.69
-36.47
-37.18
-36.40
-33.69
-28.79
-21.91
-13.84
-5.93
0.29
3.64
3.67
0.81
-3.93
-9.39
-14.66
-19.16
-22.58
-24.66
-25.10
-23.66
-20.41
-15.81
-10.71
-6.04
-2.55
-0.60
-0.25
-1.40
-3.98
-7.93
-13.16
-19.43
-26.33
-33.28
-39.66
-44.79
-47.95
-48.46
-45.86
-40.15
-31.97
-22.48
-13.04
-4.78
1.61
5.85
7.84
7.50
4.84
0.35
-4.81
-8.85
-9.92
-6.79
0.36
9.64
17.64
20.47
15.19
1.37
-17.86
-36.12
-45.33
-38.31
-11.32
34.49
93.37
156.75
215.81
263.52
295.74
311.05
310.12
294.97
268.63
234.87
197.87
161.47
128.49
100.27
76.57
56.01
36.60
16.43
-5.70
-29.88
-54.83
-78.22
-97.46
-110.90
-118.58
-122.39
-125.17
-129.31
-135.48
-142.43
-147.79
-149.48
-146.89
-141.12
-134.24
-128.08
-123.35
-119.42
-114.98
-108.79
-100.30
-89.71
-77.61
-64.54
-50.80
-36.50
-21.77
-6.90
7.70
21.92
35.72
48.81
60.35
69.15
74.15
75.39
74.17
72.86
74.43
80.76
91.79
105.29
117.82
125.96
127.64
122.30
110.90
96.23
81.79
71.05
66.45
68.64
75.89
84.70
90.15
87.64
75.72
56.09
33.26
12.55
-1.82
-8.18
-7.05
-1.07
1.72
-4.91
-23.08
-49.50
-79.14
-107.28
-134.56
-160.59
-183.62
-201.50
-209.26
-204.74
-189.13
-166.43
-141.47
-118.17
-98.09
-81.50
-68.22
-57.54
-49.12
-42.46
-36.76
-30.90
-24.03
-15.64
-6.56
1.41
7.04
10.00
11.62
14.46
21.28
33.81
52.07
73.86
95.53
113.63
125.81
131.78
132.86
131.13
128.20
124.56
119.60
112.46
103.19
92.88
83.30
75.79
70.56
66.40
61.38
53.91
43.63
31.54
19.27
8.05
-1.88
-10.93
-19.78
-28.89
-38.21
-47.24
-55.37
-62.30
-68.16
-73.40
-77.91
-81.49
-84.32
-86.74
-88.78
-89.81
-88.83
-85.04
-78.30
-67.94
-54.22
-38.86
-24.74
-14.62
-10.12
-11.66
-18.70
-30.15
-42.44
-52.26
-58.08
-60.31
-59.52
-55.36
-46.64
-32.25
-11.84
16.78
54.67
100.31
149.83
199.18
245.49
287.05
322.84
334.39
309.88
252.69
179.78
107.90
45.52
-5.55
-45.44
-74.00
-91.18
-95.91
-89.27
-75.21
-59.85
-48.29
-42.99
-42.87
-44.52
-44.39
-38.45
-25.47
-8.00
8.62
19.31
20.37
11.67
-3.72
-21.47
-36.86
-47.32
-52.88
-55.56
-57.87
-63.63
-75.56
-94.15
-117.90
-142.98
-164.25
-176.45
-175.69
-151.44
-103.95
-46.71
2.92
35.59
52.71
61.17
67.75
76.30
87.10
96.21
99.45
96.28
87.66
75.98
64.11
54.19
46.87
40.86
32.40
18.51
-0.87
-23.40
-46.23
-65.79
-80.50
-90.28
-95.86
-98.74
-99.51
-97.59
-92.25
-83.14
-70.40
-54.33
-34.91
-12.04
13.42
39.62
63.69
81.93
90.71
87.87
73.95
52.81
30.69
13.90
6.39
8.41
16.72
26.47
33.36
35.05
31.47
23.87
13.86
2.97
-7.44
-16.37
-23.59
-30.01
-37.47
-47.56
-60.41
-74.08
-85.01
-89.32
-84.06
-67.66
-39.81
-1.29
45.63
96.39
143.97
180.06
197.65
193.83
171.12
136.54
98.82
65.19
39.57
22.50
12.51
7.73
6.89
9.21
14.00
20.24
26.74
32.66
37.92
43.20
49.36
56.82
64.88
71.77
75.18
73.16
64.94
51.22
33.84
15.09
-3.12
-19.73
-34.60
-48.16
-61.00
-73.45
-85.52
-96.90
-107.13
-115.58
-121.58
-124.43
-123.68
-119.33
-112.22
-104.03
-96.92
-92.83
-92.67
-95.89
-100.64
-104.58
-105.83
-103.69
-98.67
-91.89
-84.34
-76.37
-67.78
-58.29
-48.06
-37.92
-28.98
-22.13
-17.60
-14.86
-13.06
-11.46
-9.82
-8.41
-7.75
-8.31
-10.22
-13.17
-16.55
-19.52
-21.23
-20.92
-18.09
-12.65
-4.98
4.06
13.42
22.04
29.23
34.73
38.69
41.49
43.51
45.03
46.17
46.99
47.49
47.73
47.77
47.58
47.05
45.99
44.21
41.58
38.17
34.24
30.16
26.40
23.28
21.02
19.62
18.97
18.84
18.99
19.13
19.02
18.57
17.91
17.39
17.48
18.65
21.21
25.31
30.91
37.87
45.91
54.64
63.52
71.97
79.42
85.42
89.64
91.84
91.74
89.16
84.12
77.10
69.06
61.16
54.30
48.75
43.94
38.83
32.33
23.87
13.55
2.07
-9.67
-20.86
-31.05
-40.06
-47.97
-54.99
-61.37
-67.36
-73.01
-78.14
-82.22
-84.56
-84.56
-81.91
-76.83
-69.95
-62.18
-54.41
-47.45
-41.83
-37.84
-35.50
-34.52
-34.38
-34.44
-34.07
-32.91
-30.87
-28.15
-25.08
-22.06
-19.44
-17.53
-16.50
-16.42
-17.12
-18.26
-19.40
-20.14
-20.23
-19.64
-18.48
-16.90
-14.99
-12.70
-9.96
-6.69
-2.87
1.41
6.02
10.74
15.37
19.62
23.23
25.95
27.64
28.33
28.13
27.26
25.88
24.12
22.01
19.62
17.06
14.55
12.36
10.74
9.85
9.64
9.95
10.51
11.06
11.43
11.53
11.40
11.05
10.47
9.63
8.51
7.16
5.70
4.20
2.69
1.11
-0.64
-2.61
-4.71
-6.80
-8.77
-10.63
-12.49
-14.49
-16.62
-18.72
-20.51
-21.66
-21.95
-21.30
-19.70
-17.24
-14.05
-10.28
-6.16
-1.92
2.22
6.09
9.56
12.53
14.97
16.87
18.28
19.29
19.93
20.23
20.12
19.57
18.65
17.49
16.32
15.30
14.52
13.95
13.48
13.01
12.47
11.82
11.05
10.20
9.29
8.40
7.59
6.88
6.21
5.51
4.68
3.69
2.54
1.26
-0.12
-1.61
-3.22
-4.93
-6.67
-8.33
-9.82
-11.07
-12.08
-12.87
-13.42
-13.67
-13.52
-12.83
-11.54
-9.65
-7.29
-4.66
-1.99
0.55
2.80
4.73
6.29
7.49
8.34
8.88
9.20
9.43
9.68
9.99
10.31
10.50
10.44
10.07
9.48
8.81
8.19
7.69
7.25
6.77
6.15
5.40
4.58
3.78
3.05
2.34
1.57
0.68
-0.29
-1.25
-2.07
-2.72
-3.31
-4.01
-4.98
-6.28
-7.81
-9.35
-10.71
-11.81
-12.67
-13.44
-14.24
-15.12
-15.99
-16.74
-17.21
-17.29
-16.92
-16.10
-14.85
-13.21
-11.27
-9.13
-6.96
-4.89
-2.96
-1.11
0.80
2.88
5.11
7.32
9.22
10.59
11.30
11.42
11.16
10.76
10.40
10.15
9.99
9.84
9.60
9.20
8.59
7.77
6.83
5.92
5.23
4.90
4.90
5.12
5.35
5.42
5.23
4.82
4.22
3.48
2.58
1.53
0.35
-0.87
-1.98
-2.85
-3.40
-3.68
-3.85
-4.12
-4.68
-5.63
-6.93
-8.40
-9.81
-10.97
-11.82
-12.44
-12.95
-13.44
-13.89
-14.18
-14.19
-13.78
-12.92
-11.62
-9.93
-7.93
-5.74
-3.50
-1.34
0.66
2.52
4.29
6.03
7.69
9.13
10.17
10.67
10.63
10.18
9.55
8.94
8.53
8.33
8.28
8.25
8.11
7.79
7.25
6.58
5.90
5.35
4.99
4.84
4.79
4.71
4.47
3.97
3.20
2.22
1.14
0.03
-1.01
-1.94
-2.75
-3.39
-3.85
-4.16
-4.45
-4.91
-5.74
-7.03
-8.67
-10.40
-11.90
-12.91
-13.30
-13.09
-12.37
-11.23
-9.73
-7.96
-5.98
-3.89
-1.78
0.28
2.23
4.08
5.77
7.22
8.35
9.06
9.33
9.17
8.68
7.95
7.07
6.17
5.30
4.57
4.01
3.63
3.36
3.07
2.54
1.57
0.08
-1.88
-4.03
-5.97
-7.33
-7.94
-7.94
-7.77
-8.04
-9.26
-11.63
-14.89
-18.42
-21.54
-23.80
-25.25
-26.45
-28.21
-31.16
-35.48
-40.76
-46.16
-50.81
-54.18
-56.22
-57.28
-57.96
-59.05
-61.34
-65.45
-71.31
-77.73
-82.25
-81.68
-73.19
-55.63
-30.30
-0.86
27.78
51.03
65.92
71.61
69.11
60.43
47.84
33.41
19.01
6.29
-3.29
-8.79
-10.01
-7.67
-3.37
0.90
3.23
2.37
-2.03
-9.51
-19.09
-29.73
-40.68
-51.57
-62.41
-73.41
-84.79
-96.59
-108.74
-121.03
-133.24
-145.26
-157.08
-168.62
-179.58
-189.23
-196.53
-200.48
-200.61
-197.31
-191.74
-185.21
-178.31
-170.30
-159.11
-142.13
-117.45
-84.75
-45.69
-3.29
39.13
78.94
114.60
145.48
171.23
191.36
205.21
212.28
212.75
207.79
199.46
190.12
181.79
175.60
171.70
169.48
168.14
167.13
166.41
166.36
167.46
169.86
173.17
176.40
178.34
177.94
174.63
168.53
160.33
151.09
141.98
134.05
128.13
124.64
123.46
123.78
124.08
122.34
116.62
105.74
89.87
70.55
50.25
31.46
15.87
3.81
-5.54
-13.62
-21.64
-30.17
-38.94
-47.10
-53.58
-57.41
-57.88
-54.73
-48.13
-38.71
-27.42
-15.37
-3.64
6.91
15.73
22.62
27.82
32.05
36.44
42.26
50.46
61.13
73.24
84.89
94.03
99.30
100.73
99.72
98.52
99.28
103.16
109.72
116.82
120.83
117.23
101.62
71.20
26.20
-29.28
-87.81
-140.55
-180.16
-203.11
-210.64
-207.52
-199.69
-191.71
-185.54
-180.87
-176.36
-171.02
-164.59
-157.19
-148.67
-138.43
-125.74
-110.40
-93.05
-75.01
-57.79
-42.60
-30.27
-21.35
-16.24
-15.07
-17.37
-21.80
-26.38
-29.08
-28.54
-24.50
-17.63
-8.92
0.85
11.45
22.93
35.20
47.71
59.49
69.46
76.92
81.83
84.69
86.16
86.64
85.94
83.30
77.81
68.84
56.49
41.67
25.90
10.83
-2.22
-12.61
-20.36
-25.99
-30.12
-33.17
-35.31
-36.43
-36.40
-35.23
-33.16
-30.58
-27.94
-25.51
-23.42
-21.61
-19.99
-18.56
-17.35
-16.41
-15.71
-15.15
-14.56
-13.85
-13.04
-12.20
-11.45
-10.87
-10.44
-10.10
-9.78
-9.43
-9.03
-8.61
-8.19
-7.82
-7.57
-7.56
-7.86
-8.51
-9.41
-10.43
-11.41
-12.33
-13.26
-14.35
-15.68
-17.21
-18.66
-19.67
-19.90
-19.12
-17.34
-14.75
-11.65
-8.36
-5.10
-2.04
0.77
3.25
5.39
7.15
8.50
9.45
10.02
10.27
10.27
10.09
9.82
9.54
9.32
9.17
9.07
8.97
8.80
8.49
8.02
7.39
6.62
5.80
5.01
4.33
3.80
3.38
3.00
2.55
1.95
1.18
0.26
-0.79
-1.95
-3.23
-4.67
-6.25
-7.95
-9.68
-11.31
-12.71
-13.72
-14.19
-14.02
-13.16
-11.68
-9.73
-7.51
-5.22
-2.99
-0.92
0.98
2.72
4.31
5.73
6.92
7.80
8.27
8.34
8.07
7.64
7.21
6.90
6.75
6.69
6.64
6.49
6.18
5.68
4.96
4.05
3.00
1.94
1.04
0.45
0.19
0.19
0.25
0.11
-0.37
-1.25
-2.50
-4.00
-5.67
-7.46
-9.38
-11.43
-13.54
-15.54
-17.13
-18.00
-17.93
-16.86
-14.94
-12.44
-9.67
-6.83
-3.98
-1.08
1.87
4.82
7.63
10.11
12.14
13.67
14.77
15.51
16.00
16.29
16.44
16.50
16.53
16.58
16.67
16.76
16.82
16.78
16.64
16.41
16.14
15.88
15.67
15.50
15.29
14.96
14.43
13.67
12.69
11.56
10.38
9.21
8.11
7.08
6.06
4.96
3.69
2.16
0.34
-1.76
-4.10
-6.59
-9.12
-11.47
-13.41
-14.70
-15.13
-14.67
-13.43
-11.64
-9.53
-7.30
-5.02
-2.72
-0.45
1.71
3.59
5.03
5.90
6.15
5.83
4.97
3.64
1.88
-0.22
-2.49
-4.69
-6.60
-8.11
-9.20
-9.97
-10.52
-10.92
-11.14
-11.13
-10.86
-10.37
-9.75
-9.11
-8.52
-8.01
-7.61
-7.31
-7.12
-7.02
-6.96
-6.89
-6.78
-6.67
-6.68
-6.95
-7.62
-8.76
-10.37
-12.37
-14.57
-16.77
-18.72
-20.14
-20.80
-20.51
-19.21
-16.94
-13.91
-10.44
-6.86
-3.44
-0.32
2.49
5.07
7.49
9.76
11.83
13.60
14.99
15.99
16.65
17.07
17.40
17.74
18.15
18.63
19.12
19.56
19.89
20.13
20.36
20.65
21.01
21.37
21.63
21.65
21.37
20.80
20.06
19.28
18.60
18.09
17.75
17.50
17.17
16.60
15.61
14.10
12.07
9.62
6.99
4.43
2.16
0.35
-0.95
-1.75
-2.09
-1.98
-1.44
-0.50
0.73
2.01
3.08
3.74
3.90
3.63
3.06
2.30
1.35
0.15
-1.33
-3.07
-4.93
-6.75
-8.40
-9.85
-11.15
-12.32
-13.32
-14.07
-14.46
-14.44
-14.08
-13.50
-12.86
-12.28
-11.81
-11.45
-11.16
-10.92
-10.79
-10.86
-11.20
-11.84
-12.71
-13.67
-14.52
-15.17
-15.63
-16.02
-16.51
-17.21
-18.20
-19.46
-20.91
-22.42
-23.77
-24.64
-24.67
-23.59
-21.36
-18.18
-14.43
-10.48
-6.54
-2.61
1.47
5.76
10.13
14.24
17.58
19.82
20.88
21.03
20.73
20.42
20.31
20.35
20.29
19.87
19.02
17.84
16.57
15.43
14.54
13.84
13.18
12.44
11.58
10.64
9.72
8.89
8.17
7.49
6.74
5.82
4.72
3.51
2.34
1.31
0.43
-0.40
-1.40
-2.72
-4.45
-6.48
-8.68
-10.90
-13.11
-15.29
-17.42
-19.32
-20.73
-21.35
-20.99
-19.67
-17.54
-14.87
-11.90
-8.85
-5.85
-3.04
-0.51
1.69
3.54
5.06
6.28
7.23
7.93
8.41
8.72
8.93
9.11
9.28
9.42
9.48
9.41
9.22
8.97
8.72
8.45
8.13
7.64
6.86
5.79
4.48
3.08
1.74
0.54
-0.56
-1.65
-2.87
-4.30
-5.90
-7.57
-9.20
-10.71
-12.11
-13.48
-14.90
-16.40
-17.94
-19.37
-20.49
-21.10
-20.99
-20.00
-18.06
-15.19
-11.61
-7.66
-3.77
-0.35
2.37
4.36
5.80
6.90
7.87
8.76
9.61
10.42
11.26
12.17
13.14
14.03
14.66
14.85
14.55
13.90
13.10
12.34
11.69
11.08
10.39
9.52
8.48
7.36
6.29
5.34
4.51
3.72
2.88
1.91
0.77
-0.56
-2.05
-3.67
-5.39
-7.15
-8.93
-10.70
-12.45
-14.20
-16.00
-17.87
-19.76
-21.52
-22.89
-23.58
-23.36
-22.16
-20.05
-17.22
-13.91
-10.37
-6.79
-3.30
-0.02
2.99
5.68
8.04
10.05
11.70
13.00
13.94
14.55
14.90
15.02
14.94
14.63
14.07
13.32
12.50
11.78
11.24
10.83
10.39
9.77
8.90
7.82
6.66
5.51
4.37
3.17
1.85
0.42
-1.04
-2.42
-3.67
-4.81
-5.98
-7.27
-8.76
-10.48
-12.37
-14.37
-16.41
-18.44
-20.38
-22.13
-23.56
-24.47
-24.66
-23.90
-22.05
-19.14
-15.35
-11.02
-6.54
-2.25
1.66
5.14
8.25
11.09
13.70
16.05
18.07
19.67
20.82
21.56
21.97
22.11
22.04
21.77
21.30
20.62
19.75
18.73
17.59
16.34
14.99
13.51
11.93
10.29
8.66
7.15
5.82
4.67
3.62
2.55
1.33
-0.13
-1.83
-3.70
-5.61
-7.41
-9.01
-10.43
-11.77
-13.18
-14.79
-16.62
-18.49
-20.07
-20.97
-20.85
-19.54
-17.12
-13.81
-9.94
-5.81
-1.67
2.30
6.01
9.40
12.44
15.13
17.51
19.59
21.33
22.70
23.60
23.96
23.74
22.98
21.79
20.36
18.89
17.55
16.43
15.51
14.67
13.77
12.70
11.45
10.06
8.62
7.16
5.71
4.22
2.72
1.27
-0.06
-1.23
-2.26
-3.25
-4.31
-5.49
-6.79
-8.17
-9.66
-11.33
-13.23
-15.32
-17.39
-19.13
-20.21
-20.44
-19.75
-18.26
-16.10
-13.46
-10.51
-7.40
-4.32
-1.38
1.37
3.97
6.46
8.80
10.84
12.37
13.15
13.15
12.48
11.43
10.33
9.39
8.74
8.34
8.08
7.84
7.50
6.98
6.27
5.40
4.49
3.63
2.87
2.21
1.57
0.84
-0.05
-1.12
-2.31
-3.55
-4.79
-6.02
-7.25
-8.51
-9.79
-11.07
-12.33
-13.55
-14.74
-15.86
-16.78
-17.35
-17.35
-16.62
-15.13
-12.94
-10.23
-7.19
-4.00
-0.79
2.33
5.23
7.77
9.80
11.23
12.04
12.34
12.28
12.01
11.67
11.31
10.93
10.49
9.96
9.31
8.56
7.78
7.01
6.31
5.63
4.93
4.14
3.27
2.37
1.53
0.82
0.24
-0.30
-0.94
-1.76
-2.81
-4.02
-5.28
-6.48
-7.57
-8.58
-9.56
-10.59
-11.71
-12.98
-14.38
-15.83
-17.17
-18.17
-18.55
-18.09
-16.66
-14.30
-11.16
-7.55
-3.82
-0.32
2.63
4.85
6.30
7.13
7.57
7.85
8.13
8.36
8.34
7.82
6.59
4.68
2.34
-0.03
-2.03
-3.50
-4.63
-5.86
-7.71
-10.47
-13.99
-17.67
-20.74
-22.60
-23.18
-23.03
-23.16
-24.67
-28.26
-33.86
-40.50
-46.54
-50.18
-50.13
-46.15
-39.20
-31.06
-23.57
-17.88
-13.96
-10.63
-6.07
1.61
13.70
30.40
50.60
71.99
91.79
107.81
119.70
129.54
141.38
159.47
186.02
219.36
253.79
281.09
293.18
284.73
254.61
205.90
144.52
77.55
11.70
-47.71
-97.06
-134.38
-159.16
-171.95
-174.13
-167.78
-155.73
-141.45
-128.74
-120.79
-119.16
-123.18
-130.23
-136.93
-140.51
-139.70
-134.69
-126.27
-115.02
-101.02
-84.34
-65.71
-46.89
-30.09
-16.96
-7.69
-0.72
6.91
18.63
37.53
65.44
102.10
144.18
185.17
216.29
228.88
217.63
183.25
133.02
78.76
32.76
3.49
-6.94
-2.64
8.58
18.59
21.69
15.67
1.26
-19.21
-43.00
-67.55
-90.50
-109.74
-123.68
-131.85
-135.47
-137.39
-141.19
-149.46
-162.16
-175.90
-184.77
-182.60
-165.65
-134.42
-93.69
-50.87
-13.38
13.60
28.09
31.10
25.69
15.97
6.32
0.68
1.78
10.36
24.87
41.93
57.61
68.88
74.46
74.82
71.38
65.63
58.54
50.57
41.98
33.17
24.68
16.98
10.29
4.60
-0.26
-4.36
-7.68
-10.19
-11.91
-13.07
-13.95
-14.83
-15.76
-16.56
-16.77
-15.79
-13.07
-8.33
-1.88
5.39
12.19
17.26
19.89
20.22
19.14
17.83
17.25
17.70
18.82
19.92
20.34
19.83
18.50
16.70
14.73
12.71
10.60
8.32
5.88
3.41
1.15
-0.70
-2.05
-2.93
-3.46
-3.73
-3.77
-3.48
-2.75
-1.52
0.12
1.97
3.80
5.40
6.65
7.47
7.82
7.61
6.80
5.43
3.68
1.84
0.25
-0.89
-1.57
-2.03
-2.67
-3.96
-6.27
-9.80
-14.48
-20.04
-26.04
-31.99
-37.50
-42.28
-46.22
-49.30
-51.55
-52.95
-53.39
-52.65
-50.49
-46.78
-41.56
-35.19
-28.34
-21.82
-16.50
-13.01
-11.57
-11.90
-13.23
-14.56
-14.89
-13.52
-10.27
-5.40
0.58
7.14
13.95
20.89
27.86
34.68
40.96
46.19
50.00
52.29
53.31
53.52
53.33
52.92
52.17
50.79
48.50
45.30
41.47
37.47
33.75
30.52
27.70
25.09
22.52
19.98
17.67
15.85
14.68
14.12
13.97
13.93
13.79
13.45
12.86
12.09
11.33
10.86
10.86
11.35
12.12
12.85
13.29
13.27
12.93
12.73
13.20
14.69
17.22
20.57
24.50
29.01
34.02
39.69
46.29
54.04
62.86
72.38
82.18
91.97
101.75
110.82
118.83
125.95
132.92
140.41
148.62
157.23
165.62
173.15
177.57
177.38
172.55
164.36
154.11
142.04
127.21
108.00
82.78
47.71
0.76
-56.57
-119.29
-181.04
-236.50
-282.57
-318.56
-345.67
-369.64
-395.04
-422.70
-449.55
-471.39
-485.54
-491.60
-490.65
-462.00
-395.29
-296.25
-185.16
-82.89
-0.77
59.08
99.56
125.43
141.78
149.53
149.41
143.50
135.48
128.74
124.89
123.90
124.93
127.02
126.69
121.62
112.01
100.45
90.02
82.42
77.87
75.74
75.17
73.78
69.84
63.33
55.67
48.62
43.24
39.78
38.09
37.92
38.21
37.98
36.89
35.17
33.23
31.28
29.30
27.13
24.59
22.08
19.72
17.76
16.55
16.35
17.13
18.55
20.08
21.22
21.56
20.89
19.26
17.04
14.83
13.26
12.73
13.22
14.28
15.22
15.25
13.83
11.01
7.52
4.51
2.91
2.87
3.72
4.06
2.30
-3.05
-12.53
-25.47
-40.24
-55.25
-69.75
-84.06
-99.42
-117.46
-139.90
-167.08
-197.03
-225.28
-245.92
-253.23
-243.14
-214.61
-170.38
-117.26
-63.92
-18.39
14.24
32.55
38.66
37.34
34.39
38.31
53.29
75.96
97.17
109.07
109.20
99.92
85.83
71.24
58.83
47.95
37.53
27.54
19.32
14.43
13.57
16.28
21.19
26.71
31.18
35.10
39.61
46.34
56.32
69.23
83.48
96.79
106.83
111.52
109.86
102.08
89.84
75.52
61.45
49.28
39.54
31.58
24.02
15.77
6.64
-2.33
-9.64
-14.26
-16.18
-16.40
-16.23
-16.56
-17.45
-18.38
-18.77
-18.60
-18.59
-19.78
-23.07
-28.68
-36.17
-44.62
-53.01
-60.36
-65.79
-68.58
-68.32
-65.16
-59.85
-53.51
-47.27
-41.71
-36.73
-31.85
-26.73
-21.60
-17.14
-13.99
-12.10
-10.64
-8.32
-4.35
1.00
6.30
9.69
9.91
7.13
2.98
-0.37
-1.36
-0.09
1.52
0.53
-5.71
-18.32
-36.20
-56.34
-74.83
-88.12
-94.04
-92.12
-83.20
-68.68
-50.01
-28.44
-5.21
18.25
40.29
59.31
74.21
84.65
90.97
93.97
94.38
92.71
89.22
84.16
77.93
71.05
64.02
57.09
50.21
43.11
35.51
27.33
18.80
10.41
2.79
-3.57
-8.47
-12.11
-14.97
-17.54
-19.90
-21.43
-20.71
-15.88
-5.42
10.93
31.67
53.72
73.46
87.89
95.47
96.21
91.16
81.68
69.17
55.09
41.19
29.16
19.96
13.17
7.07
-0.37
-10.21
-21.61
-32.19
-39.45
-42.18
-41.05
-37.96
-34.76
-32.14
-29.62
-26.38
-22.31
-18.38
-16.33
-17.57
-22.46
-30.03
-38.48
-46.04
-51.69
-55.45
-58.16
-60.83
-64.02
-67.51
-70.40
-71.51
-69.90
-65.26
-58.13
-49.78
-42.14
-37.54
-38.25
-45.84
-60.46
-80.37
-102.25
-122.16
-136.80
-144.39
-144.82
-139.01
-128.31
-114.08
-97.78
-81.07
-65.53
-51.96
-39.66
-26.29
-8.63
15.86
47.56
84.05
120.76
152.77
176.90
193.12
204.58
216.07
231.43
251.28
272.18
287.91
292.21
281.77
257.66
224.53
188.27
153.23
120.83
90.04
59.07
27.24
-4.31
-33.10
-56.73
-73.89
-84.73
-90.29
-91.66
-89.47
-83.88
-75.06
-63.68
-51.02
-38.62
-27.57
-17.87
-8.33
2.83
16.89
33.87
52.28
69.87
84.72
96.28
105.71
115.18
126.63
140.75
156.71
172.88
187.91
201.60
214.81
228.59
242.93
256.14
265.06
266.19
257.14
237.52
209.29
175.87
140.79
106.55
74.06
42.80
11.45
-21.35
-56.40
-93.37
-131.13
-168.55
-204.83
-239.83
-274.06
-308.35
-343.66
-381.21
-422.17
-467.79
-518.78
-573.80
-628.15
-673.93
-702.20
-706.42
-685.41
-642.95
-586.78
-526.02
-467.97
-416.27
-371.07
-330.94
-294.75
-262.89
-234.48
-207.89
-181.52
-154.08
-124.58
-92.35
-57.18
-19.57
18.93
59.50
104.24
154.54
210.53
271.69
337.31
406.42
477.01
537.32
577.29
594.80
594.41
580.32
552.59
508.67
447.32
376.80
299.02
221.29
152.32
97.95
59.40
34.40
18.96
8.59
2.87
-1.60
-6.01
-10.96
-17.19
-25.40
-35.64
-47.16
-58.75
-69.22
-78.70
-85.38
-87.76
-85.90
-81.65
-77.61
-75.99
-77.54
-81.25
-85.20
-85.53
-79.27
-65.87
-47.49
-27.96
-11.23
0.08
5.36
6.00
5.55
7.51
14.05
25.45
40.39
56.99
74.38
90.26
101.75
108.13
111.18
113.99
118.86
126.25
134.25
138.71
134.11
116.14
86.05
48.07
10.94
-14.75
-21.12
-7.30
19.47
46.92
63.69
64.40
50.77
29.47
7.75
-9.14
-20.40
-29.02
-39.10
-52.66
-68.63
-84.03
-95.91
-103.07
-106.40
-107.98
-109.56
-111.35
-111.80
-108.64
-100.38
-87.06
-70.30
-52.69
-36.85
-24.45
-15.67
-9.30
-3.47
3.35
11.73
21.13
30.21
37.42
41.75
43.17
42.65
41.61
41.30
42.39
44.70
47.43
49.50
50.08
48.87
46.21
42.77
39.18
35.69
32.10
28.00
23.07
17.40
11.46
5.97
1.46
-1.87
-4.23
-6.05
-7.73
-9.50
-11.42
-13.46
-15.64
-18.03
-20.66
-23.49
-26.38
-29.06
-31.26
-32.74
-33.36
-33.14
-32.21
-30.74
-28.92
-26.85
-24.53
-21.89
-18.86
-15.45
-11.90
-8.59
-6.06
-4.70
-4.67
-5.70
-7.16
-8.35
-8.77
-8.34
-7.34
-6.17
-5.05
-3.79
-1.88
1.23
5.72
11.30
17.20
22.56
26.67
29.24
30.39
30.45
29.85
28.87
27.72
26.52
25.35
24.27
23.26
22.20
20.87
19.01
16.46
13.19
9.35
5.22
1.06
-2.89
-6.54
-9.78
-12.49
-14.48
-15.63
-15.93
-15.58
-14.89
-14.17
-13.59
-13.15
-12.74
-12.27
-11.75
-11.37
-11.39
-12.01
-13.32
-15.12
-17.09
-18.80
-19.90
-20.19
-19.68
-18.48
-16.72
-14.40
-11.49
-8.03
-4.24
-0.60
2.33
4.18
4.88
4.80
4.45
4.24
4.36
4.69
5.08
5.46
5.92
6.59
7.50
8.42
8.95
8.73
7.64
5.94
4.20
3.06
2.93
3.81
5.21
6.38
6.48
4.95
1.64
-3.21
-8.97
-14.78
-19.65
-22.56
-22.70
-19.79
-14.30
-7.44
-0.83
4.29
7.59
9.94
12.97
18.10
25.63
34.42
42.30
47.09
47.56
43.97
37.72
30.61
24.04
18.58
14.07
10.00
5.85
1.30
-3.76
-9.33
-15.30
-21.42
-27.38
-32.85
-37.65
-41.83
-45.54
-48.90
-51.80
-53.88
-54.65
-53.79
-51.26
-47.32
-42.30
-36.36
-29.40
-21.19
-11.62
-0.97
10.00
20.25
28.84
35.25
39.47
41.92
43.14
43.52
43.18
42.01
39.87
36.81
33.11
29.28
25.84
23.16
21.34
20.17
19.25
18.14
16.50
14.19
11.31
8.16
5.09
2.44
0.35
-1.23
-2.53
-3.82
-5.27
-6.92
-8.68
-10.47
-12.26
-14.10
-16.01
-17.91
-19.57
-20.69
-20.97
-20.28
-18.65
-16.26
-13.34
-10.12
-6.75
-3.32
0.07
3.39
6.55
9.46
12.00
14.04
15.51
16.39
16.77
16.80
16.60
16.25
15.73
15.04
14.20
13.30
12.42
11.63
10.86
10.02
8.98
7.77
6.48
5.28
4.30
3.55
2.96
2.40
1.76
0.99
0.03
-1.16
-2.60
-4.28
-6.17
-8.14
-10.11
-12.04
-13.95
-15.90
-17.89
-19.75
-21.22
-21.97
-21.73
-20.40
-18.10
-15.08
-11.59
-7.90
-4.13
-0.39
3.20
6.47
9.20
11.23
12.53
13.24
13.57
13.74
13.83
13.86
13.71
13.33
12.71
11.89
10.97
10.02
9.05
8.03
6.93
5.74
4.48
3.23
2.03
0.89
-0.19
-1.21
-2.20
-3.18
-4.15
-5.16
-6.28
-7.54
-8.97
-10.49
-12.04
-13.54
-14.98
-16.42
-17.95
-19.58
-21.17
-22.42
-22.96
-22.49
-20.84
-18.10
-14.50
-10.37
-6.07
-1.90
1.92
5.29
8.15
10.51
12.39
13.80
14.76
15.29
15.45
15.34
15.07
14.74
14.38
13.98
13.50
12.93
12.32
11.70
11.13
10.60
10.09
9.61
9.17
8.82
8.53
8.22
7.72
6.87
5.54
3.75
1.62
-0.69
-3.02
-5.32
-7.63
-10.10
-12.86
-15.94
-19.20
-22.35
-24.98
-26.67
-27.13
-26.21
-23.95
-20.55
-16.37
-11.82
-7.34
-3.29
0.15
2.95
5.26
7.24
8.96
10.37
11.34
11.69
11.35
10.37
8.91
7.25
5.68
4.47
3.80
3.76
4.27
5.13
6.07
6.80
7.13
6.99
6.40
5.43
4.12
2.45
0.36
-2.18
-5.08
-8.20
-11.31
-14.27
-17.05
-19.70
-22.35
-25.01
-27.56
-29.81
-31.53
-32.64
-33.17
-33.28
-33.04
-32.43
-31.28
-29.34
-26.39
-22.31
-17.13
-11.06
-4.46
2.23
8.60
14.31
19.21
23.33
26.82
29.76
32.14
33.83
34.62
34.44
33.41
31.87
30.19
28.69
27.46
26.39
25.30
24.02
22.51
20.83
19.07
17.34
15.63
13.91
12.11
10.23
8.28
6.29
4.34
2.46
0.69
-0.97
-2.51
-3.95
-5.36
-6.80
-8.33
-9.96
-11.61
-13.13
-14.33
-15.00
-15.00
-14.23
-12.66
-10.33
-7.35
-3.98
-0.56
2.56
5.13
7.09
8.55
9.71
10.75
11.71
12.49
12.96
13.02
12.68
12.02
11.17
10.25
9.36
8.60
8.07
7.78
7.68
7.66
7.56
7.28
6.76
6.05
5.18
4.21
3.16
2.06
0.95
-0.17
-1.30
-2.49
-3.76
-5.06
-6.31
-7.39
-8.25
-8.97
-9.72
-10.74
-12.18
-14.13
-16.52
-19.19
-21.87
-24.23
-25.93
-26.62
-26.11
-24.37
-21.53
-17.88
-13.73
-9.37
-4.99
-0.72
3.34
7.10
10.47
13.35
15.69
17.42
18.55
19.08
19.07
18.59
17.79
16.85
15.93
15.17
14.60
14.15
13.64
12.89
11.82
10.47
9.04
7.77
6.89
6.47
6.33
6.17
5.65
4.56
2.96
1.16
-0.48
-1.67
-2.36
-2.71
-2.96
-3.30
-3.80
-4.48
-5.40
-6.69
-8.43
-10.56
-12.73
-14.43
-15.25
-15.17
-14.58
-14.08
-14.13
-14.70
-15.26
-15.10
-13.67
-10.86
-7.07
-2.91
1.06
4.51
7.45
9.97
12.16
14.04
15.55
16.64
17.29
17.58
17.60
17.41
16.99
16.29
15.24
13.79
11.99
9.98
7.96
6.10
4.49
3.10
1.84
0.60
-0.65
-1.85
-2.88
-3.63
-4.07
-4.27
-4.38
-4.56
-4.93
-5.53
-6.39
-7.44
-8.62
-9.83
-10.96
-11.96
-12.86
-13.79
-14.93
-16.34
-17.93
-19.41
-20.38
-20.48
-19.57
-17.75
-15.31
-12.52
-9.58
-6.55
-3.42
-0.27
2.76
5.43
7.57
9.13
10.19
10.87
11.26
11.37
11.14
10.56
9.74
8.87
8.15
7.69
7.42
7.18
6.80
6.20
5.43
4.62
3.91
3.36
2.97
2.66
2.36
2.00
1.55
0.98
0.23
-0.72
-1.87
-3.15
-4.46
-5.68
-6.74
-7.67
-8.61
-9.69
-11.02
-12.56
-14.16
-15.57
-16.52
-16.78
-16.19
-14.73
-12.46
-9.53
-6.18
-2.70
0.68
3.77
6.47
8.75
10.64
12.14
13.28
14.10
14.68
15.09
15.39
15.58
15.58
15.30
14.70
13.79
12.72
11.68
10.79
10.08
9.47
8.77
7.88
6.79
5.66
4.69
4.00
3.54
3.09
2.37
1.23
-0.27
-1.87
-3.27
-4.32
-5.02
-5.58
-6.24
-7.19
-8.49
-10.12
-12.05
-14.17
-16.37
-18.43
-20.07
-21.03
-21.18
-20.50
-19.13
-17.24
-14.95
-12.35
-9.47
-6.46
-3.50
-0.83
1.38
3.07
4.31
5.21
5.91
6.49
6.96
7.28
7.42
7.38
7.19
6.94
6.67
6.42
6.20
5.99
5.76
5.51
5.26
4.98
4.70
4.36
3.90
3.29
2.50
1.58
0.61
-0.31
-1.11
-1.77
-2.38
-3.13
-4.25
-5.89
-8.07
-10.59
-13.14
-15.42
-17.22
-18.46
-19.19
-19.40
-19.08
-18.16
-16.68
-14.72
-12.45
-10.03
-7.58
-5.15
-2.73
-0.35
1.91
3.90
5.49
6.62
7.34
7.80
8.20
8.68
9.27
9.88
10.32
10.46
10.26
9.79
9.22
8.67
8.22
7.89
7.61
7.35
7.08
6.78
6.38
5.86
5.16
4.29
3.33
2.41
1.70
1.37
1.49
1.98
2.62
3.08
3.05
2.44
1.38
0.21
-0.63
-0.84
-0.24
1.18
3.42
6.50
10.49
15.46
21.30
27.79
34.62
41.51
48.23
54.60
60.52
65.91
70.74
75.09
79.11
82.93
86.51
89.49
91.13
90.51
86.87
79.95
70.15
58.37
45.68
32.86
20.22
7.63
-5.28
-18.95
-33.73
-49.89
-67.50
-86.28
-105.40
-123.48
-138.85
-150.22
-157.12
-160.14
-160.68
-160.27
-159.94
-159.84
-159.42
-157.74
-154.00
-147.83
-139.32
-128.97
-117.31
-104.82
-91.68
-77.97
-63.72
-49.14
-34.69
-21.01
-8.69
2.04
11.38
19.85
27.99
36.04
43.80
50.80
56.53
60.65
63.12
63.95
63.12
60.62
56.62
51.66
46.64
42.56
40.10
39.35
39.76
40.46
40.69
40.07
38.65
36.70
34.46
32.07
29.58
27.17
25.14
23.90
23.72
24.55
25.98
27.27
27.66
26.73
24.46
21.25
17.66
14.21
11.14
8.46
6.01
3.60
1.12
-1.51
-4.24
-6.97
-9.46
-11.39
-12.46
-12.53
-11.74
-10.41
-8.92
-7.55
-6.35
-5.18
-3.78
-1.96
0.22
2.37
3.92
4.31
3.23
0.72
-2.72
-6.26
-9.03
-10.49
-10.69
-10.19
-9.81
-10.29
-12.10
-15.16
-18.88
-22.33
-24.61
-25.34
-24.46
-22.21
-19.14
-16.13
-14.08
-13.70
-15.25
-18.54
-23.28
-28.25
-31.39
-30.65
-25.10
-15.33
-3.27
8.57
17.95
23.06
24.07
22.81
21.40
20.56
19.42
16.27
9.53
-1.44
-16.94
-35.26
-53.00
-66.21
-72.08
-69.19
-57.38
-37.63
-6.43
32.17
68.28
92.35
100.84
95.37
80.19
60.23
40.22
23.90
12.51
6.33
3.87
4.79
8.03
12.26
16.53
20.45
23.84
25.78
25.95
24.88
23.69
22.92
22.90
23.33
23.70
23.45
21.78
18.70
14.99
11.84
9.72
8.37
7.08
5.17
2.25
-1.81
-6.52
-10.97
-14.23
-15.90
-16.15
-15.52
-14.69
-14.26
-14.66
-15.94
-17.77
-19.65
-21.22
-22.40
-23.27
-23.89
-24.14
-23.71
-22.22
-19.41
-15.33
-10.33
-4.96
0.29
5.03
9.02
12.12
14.20
15.29
15.53
15.26
14.90
14.77
14.97
15.34
15.59
15.41
14.62
13.24
11.46
9.52
7.67
6.13
5.03
4.40
4.12
4.02
3.88
3.56
3.03
2.32
1.52
0.66
-0.26
-1.20
-2.04
-2.64
-2.89
-2.77
-2.35
-1.69
-0.76
0.55
2.35
4.64
7.21
9.77
12.02
13.82
15.23
16.40
17.45
18.39
19.09
19.43
19.33
18.85
18.09
17.14
16.04
14.74
13.30
11.81
10.44
9.32
8.49
7.78
6.96
5.80
4.25
2.52
0.92
-0.25
-0.92
-1.19
-1.31
-1.55
-2.06
-2.83
-3.75
-4.66
-5.45
-6.11
-6.61
-7.00
-7.36
-7.80
-8.39
-9.06
-9.68
-10.08
-10.06
-9.39
-7.95
-5.90
-3.64
-1.59
0.01
1.17
2.13
3.30
5.05
7.30
9.12
9.02
5.69
-1.27
-11.10
-22.10
-32.03
-38.89
-42.15
-43.20
-44.61
-48.68
-55.89
-64.51
-71.55
-74.01
-70.11
-60.14
-46.11
-30.29
-13.65
4.30
24.28
44.32
58.83
62.77
56.61
46.07
37.70
34.85
36.67
39.63
40.36
38.83
38.42
43.45
55.44
71.18
83.57
84.96
72.45
46.59
13.55
-17.55
-38.64
-46.05
-41.57
-31.06
-20.89
-17.17
-21.82
-32.03
-42.75
-50.09
-53.40
-54.20
-54.26
-54.02
-52.35
-47.11
-36.80
-22.09
-5.78
8.33
17.12
19.53
16.84
10.60
3.37
-2.71
-6.86
-9.57
-11.87
-14.52
-17.61
-20.56
-22.62
-22.96
-21.24
-17.85
-13.63
-9.63
-6.78
-5.67
-6.56
-9.24
-13.11
-17.60
-22.44
-27.69
-33.43
-39.37
-44.66
-48.01
-48.06
-43.85
-35.35
-23.44
-9.61
4.57
17.92
29.77
39.96
48.60
55.94
62.13
67.21
71.14
73.80
75.11
75.01
73.49
70.58
66.44
61.33
55.63
49.80
44.26
39.28
34.91
31.03
27.38
23.72
19.97
16.14
12.39
8.91
5.83
3.25
1.12
-0.75
-2.64
-4.78
-7.36
-10.38
-13.72
-17.23
-20.80
-24.34
-27.80
-31.11
-34.04
-36.30
-37.54
-37.48
-35.99
-33.16
-29.21
-24.47
-19.27
-13.88
-8.48
-3.22
1.68
6.00
9.51
12.11
13.85
14.92
15.54
15.77
15.58
14.84
13.52
11.80
10.00
8.49
7.45
6.90
6.62
6.39
6.05
5.57
4.99
4.34
3.60
2.71
1.62
0.37
-0.92
-2.11
-3.06
-3.77
-4.29
-4.75
-5.29
-6.00
-6.90
-7.96
-9.18
-10.56
-12.18
-14.12
-16.40
-18.92
-21.39
-23.42
-24.63
-24.70
-23.47
-20.97
-17.35
-12.91
-7.99
-3.01
1.63
5.62
8.82
11.29
13.24
14.85
16.25
17.36
18.06
18.20
17.76
16.86
15.71
14.56
13.56
12.76
12.15
11.66
11.23
10.81
10.36
9.84
9.18
8.36
7.38
6.31
5.27
4.33
3.46
2.50
1.26
-0.37
-2.31
-4.27
-5.90
-6.99
-7.61
-8.10
-8.90
-10.36
-12.48
-14.91
-17.08
-18.39
-18.47
-17.19
-14.74
-11.46
-7.75
-3.93
-0.26
3.10
6.04
8.51
10.50
12.08
13.28
14.20
14.85
15.19
15.19
14.86
14.28
13.57
12.87
12.29
11.82
11.41
10.96
10.38
9.54
8.30
6.62
4.59
2.49
0.74
-0.27
-0.37
0.28
1.25
2.00
2.14
1.56
0.39
-1.10
-2.72
-4.39
-6.18
-8.15
-10.27
-12.37
-14.26
-15.69
-16.50
-16.64
-16.08
-14.85
-12.95
-10.44
-7.43
-4.09
-0.68
2.51
5.23
7.38
8.98
10.14
10.99
11.60
11.95
11.99
11.70
11.12
10.35
9.48
8.59
7.70
6.80
5.94
5.19
4.62
4.25
4.01
3.80
3.51
3.11
2.59
1.97
1.26
0.46
-0.44
-1.40
-2.40
-3.42
-4.48
-5.63
-6.93
-8.40
-10.06
-11.86
-13.72
-15.52
-17.06
-18.10
-18.40
-17.77
-16.12
-13.50
-10.04
-5.97
-1.58
2.78
6.74
10.01
12.40
13.92
14.66
14.82
14.56
13.95
13.02
11.77
10.22
8.45
6.59
4.77
3.08
1.63
0.45
-0.36
-0.76
-0.72
-0.33
0.25
0.80
1.12
1.05
0.56
-0.30
-1.41
-2.64
-3.88
-5.06
-6.11
-6.98
-7.65
-8.11
-8.43
-8.71
-9.06
-9.57
-10.24
-10.94
-11.44
-11.47
-10.82
-9.38
-7.25
-4.63
-1.84
0.83
3.10
4.81
5.88
6.36
6.36
6.10
5.79
5.60
5.59
5.70
5.77
5.65
5.20
4.47
3.57
2.75
2.24
2.20
2.64
3.42
4.22
4.66
4.39
3.20
1.10
-1.63
-4.56
-7.12
-8.90
-9.67
-9.50
-8.68
-7.67
-6.90
-6.66
-7.06
-8.03
-9.38
-10.84
-12.13
-12.97
-13.14
-12.48
-10.99
-8.84
-6.32
-3.78
-1.49
0.41
1.98
3.33
4.60
5.82
6.90
7.64
7.86
7.53
6.74
5.72
4.77
4.09
3.75
3.68
3.66
3.48
3.02
2.34
1.61
1.02
0.71
0.72
0.95
1.28
1.60
1.85
1.97
1.91
1.61
1.04
0.21
-0.79
-1.85
-2.94
-4.08
-5.36
-6.79
-8.31
-9.71
-10.72
-11.13
-10.79
-9.72
-8.03
-5.92
-3.61
-1.31
0.80
2.62
4.15
5.44
6.55
7.50
8.26
8.76
8.93
8.77
8.35
7.76
7.08
6.37
5.66
4.94
4.21
3.48
2.77
2.08
1.41
0.76
0.14
-0.44
-0.98
-1.49
-2.02
-2.57
-3.13
-3.70
-4.28
-4.92
-5.66
-6.54
-7.51
-8.52
-9.48
-10.35
-11.12
-11.81
-12.39
-12.73
-12.66
-11.99
-10.64
-8.66
-6.21
-3.53
-0.86
1.58
3.58
5.03
5.87
6.15
5.98
5.55
5.00
4.45
3.96
3.50
3.05
2.54
1.93
1.20
0.40
-0.38
-1.06
-1.57
-1.91
-2.15
-2.43
-2.89
-3.59
-4.52
-5.58
-6.60
-7.46
-8.11
-8.58
-9.01
-9.56
-10.41
-11.71
-13.49
-15.64
-17.91
-19.90
-21.19
-21.46
-20.57
-18.66
-16.03
-13.05
-10.05
-7.21
-4.59
-2.18
0.07
2.14
4.02
5.64
6.93
7.83
8.35
8.48
8.30
7.88
7.32
6.70
6.06
5.42
4.77
4.09
3.35
2.56
1.75
0.94
0.16
-0.62
-1.47
-2.49
-3.74
-5.21
-6.81
-8.42
-9.91
-11.24
-12.45
-13.61
-14.82
-16.19
-17.76
-19.56
-21.52
-23.48
-25.17
-26.24
-26.33
-25.18
-22.69
-19.02
-14.53
-9.71
-5.06
-0.93
2.51
5.32
7.62
9.59
11.30
12.72
13.79
14.47
14.75
14.70
14.42
13.98
13.49
13.00
12.58
12.27
12.06
11.90
11.71
11.41
10.96
10.36
9.64
8.85
8.03
7.21
6.36
5.46
4.48
3.43
2.34
1.27
0.23
-0.85
-2.08
-3.62
-5.51
-7.67
-9.87
-11.79
-13.12
-13.62
-13.17
-11.76
-9.47
-6.43
-2.81
1.18
5.31
9.36
13.12
16.39
18.99
20.83
21.92
22.34
22.29
21.96
21.55
21.15
20.75
20.30
19.68
18.82
17.69
16.36
14.94
13.59
12.45
11.59
11.00
10.56
10.08
9.37
8.32
6.93
5.34
3.77
2.43
1.42
0.69
0.03
-0.77
-1.92
-3.47
-5.35
-7.41
-9.49
-11.40
-13.04
-14.33
-15.23
-15.78
-16.03
-15.99
-15.59
-14.66
-12.95
-10.29
-6.68
-2.32
2.40
7.01
11.13
14.50
17.07
18.96
20.33
21.38
22.22
22.84
23.20
23.26
23.08
22.79
22.53
22.36
22.19
21.80
20.93
19.49
17.53
15.35
13.30
11.62
10.36
9.29
8.03
6.17
3.51
0.09
-3.79
-7.73
-11.43
-14.81
-18.01
-21.23
-24.64
-28.17
-31.58
-34.52
-36.70
-37.91
-38.15
-37.51
-36.08
-33.87
-30.73
-26.43
-20.79
-13.77
-5.60
3.33
12.51
21.38
29.26
35.29
38.57
38.39
34.63
28.00
19.91
12.04
5.82
1.90
0.17
0.14
1.40
3.79
7.27
11.54
15.89
19.31
20.83
19.95
16.91
12.64
8.36
5.13
3.46
3.25
4.05
5.17
5.97
6.06
5.47
4.51
3.53
2.75
2.14
1.85
1.75
1.39
0.38
-1.28
-3.21
-4.83
-5.77
-5.95
-4.81
-2.43
0.46
3.22
5.87
9.13
13.78
20.03
27.41
36.10
45.41
53.86
60.21
64.57
68.34
73.37
80.92
91.49
106.18
124.21
142.35
156.04
161.16
155.44
139.10
114.70
77.11
31.06
-11.74
-40.97
-54.94
-59.13
-60.18
-61.80
-64.84
-67.03
-66.07
-61.52
-55.31
-50.40
-48.87
-51.34
-57.62
-68.35
-83.88
-102.00
-119.93
-135.70
-147.96
-155.24
-155.91
-143.94
-117.95
-82.69
-46.23
-16.05
3.78
13.27
15.85
16.24
18.17
22.06
26.30
29.13
29.87
28.64
26.29
24.09
23.17
23.91
25.35
26.44
26.93
27.20
27.70
28.51
29.28
29.85
29.80
28.40
25.44
21.32
16.94
13.16
10.46
8.86
8.06
7.49
6.51
4.80
2.54
0.28
-1.41
-2.22
-2.22
-1.78
-1.49
-1.88
-3.19
-5.28
-7.72
-10.08
-12.09
-13.69
-14.94
-15.89
-16.48
-16.55
-16.00
-14.81
-13.10
-11.06
-8.79
-6.30
-3.55
-0.47
2.93
6.53
10.13
13.48
16.29
18.32
19.44
19.68
19.18
18.23
17.16
16.19
15.42
14.79
14.12
13.18
11.74
9.65
6.84
3.39
-0.49
-4.44
-8.11
-11.26
-13.87
-16.14
-18.34
-20.65
-22.97
-24.98
-26.33
-26.75
-26.21
-24.98
-23.41
-21.88
-20.65
-19.79
-19.23
-18.82
-18.37
-17.74
-16.92
-16.07
-15.43
-15.25
-15.60
-16.25
-16.74
-16.48
-14.84
-11.44
-6.23
0.26
7.02
12.69
16.02
16.34
13.85
9.52
4.61
0.14
-3.70
-7.39
-11.74
-17.44
-24.80
-33.84
-44.51
-56.77
-70.60
-85.76
-101.60
-117.20
-131.57
-143.99
-154.18
-162.21
-168.40
-173.05
-176.35
-178.24
-178.28
-175.66
-169.29
-158.18
-141.85
-120.59
-95.41
-68.01
-40.32
-14.34
7.87
24.29
33.51
35.41
31.79
26.36
23.41
26.45
36.83
53.30
72.67
91.32
106.74
118.31
127.32
135.58
144.92
156.44
170.33
185.86
201.50
215.07
223.84
225.15
216.40
196.55
166.83
130.98
94.43
62.81
40.10
25.90
19.85
18.70
17.82
14.16
7.51
-0.00
-7.61
-15.64
-24.79
-35.27
-47.24
-59.29
-70.24
-79.62
-87.60
-91.37
-88.63
-78.66
-62.84
-44.61
-27.68
-15.21
-8.84
-8.30
-11.62
-16.38
-20.85
-23.90
-25.12
-24.28
-21.26
-16.02
-8.80
-0.37
7.75
13.94
17.43
18.11
17.15
16.47
17.92
22.49
29.77
37.95
44.70
48.17
47.58
43.39
36.80
29.19
21.63
14.72
8.53
2.94
-2.18
-6.84
-10.95
-14.45
-17.28
-19.46
-21.02
-22.07
-22.73
-23.12
-23.34
-23.50
-23.72
-24.13
-24.85
-25.98
-27.50
-29.29
-31.12
-32.62
-33.39
-33.12
-31.68
-29.16
-25.80
-21.88
-17.64
-13.15
-8.44
-3.52
1.51
6.40
10.83
14.51
17.30
19.24
20.54
21.52
22.57
24.01
26.05
28.69
31.72
34.75
37.36
39.23
40.18
40.16
39.14
37.00
33.46
28.31
21.60
13.93
6.43
0.53
-2.57
-2.35
0.75
5.40
9.85
12.46
12.14
8.59
2.15
-6.42
-16.28
-26.63
-36.78
-46.03
-53.67
-59.03
-61.66
-61.50
-58.89
-54.52
-49.15
-43.44
-37.81
-32.46
-27.50
-23.05
-19.25
-16.25
-14.13
-12.89
-12.37
-12.30
-12.39
-12.36
-12.06
-11.55
-11.11
-11.08
-11.78
-13.24
-15.32
-17.74
-20.35
-23.26
-26.84
-31.41
-37.00
-43.19
-49.08
-53.71
-56.32
-56.73
-55.33
-52.98
-50.68
-49.43
-50.09
-53.42
-59.93
-69.75
-82.40
-96.74
-111.06
-123.60
-133.01
-138.74
-141.06
-140.56
-137.56
-131.78
-122.28
-107.87
-87.48
-60.45
-26.47
14.41
61.68
114.08
169.35
224.32
275.40
319.35
353.88
378.02
391.91
396.49
393.08
382.88
366.65
344.51
316.12
281.28
240.67
196.25
151.00
108.08
69.76
36.79
8.60
-15.93
-37.64
-56.81
-73.41
-87.69
-100.35
-112.33
-124.24
-135.90
-146.47
-154.93
-160.68
-163.87
-165.27
-165.76
-165.89
-165.59
-164.49
-162.29
-159.15
-155.87
-153.59
-153.35
-155.57
-159.90
-165.26
-170.28
-173.79
-175.25
-174.97
-174.05
-173.90
-175.63
-179.21
-183.04
-184.04
-178.26
-162.11
-133.45
-92.35
-41.19
15.97
74.49
130.29
180.73
224.96
263.61
298.16
330.10
360.26
388.52
413.85
434.74
449.54
456.89
456.01
446.93
430.45
407.93
380.82
350.23
316.70
280.20
240.58
197.89
152.64
105.76
58.55
12.67
-29.97
-67.31
-97.65
-120.16
-135.20
-144.21
-149.09
-151.35
-151.70
-150.08
-146.26
-140.40
-133.27
-126.01
-119.69
-114.79
-111.24
-108.67
-106.67
-105.10
-103.94
-103.20
-102.72
-102.19
-101.19
-99.43
-96.83
-93.56
-89.95
-86.37
-83.06
-80.01
-77.04
-73.89
-70.42
-66.74
-63.18
-60.18
-58.05
-56.78
-56.09
-55.44
-54.27
-52.15
-48.91
-44.54
-39.25
-33.34
-27.16
-21.04
-15.24
-9.89
-5.02
-0.59
3.41
6.92
9.85
12.04
13.45
14.13
14.23
13.99
13.63
13.30
13.04
12.81
12.50
12.03
11.36
10.51
9.55
8.57
7.61
6.68
5.75
4.82
3.92
3.12
2.48
1.97
1.44
0.73
-0.36
-1.89
-3.87
-6.21
-8.83
-11.65
-14.56
-17.37
-19.76
-21.35
-21.82
-21.03
-19.02
-16.04
-12.37
-8.26
-3.92
0.51
4.87
8.94
12.44
15.16
16.96
17.83
17.88
17.32
16.38
15.29
14.25
13.36
12.65
12.09
11.63
11.21
10.75
10.21
9.52
8.62
7.49
6.17
4.82
3.58
2.58
1.75
0.90
-0.22
-1.78
-3.79
-6.05
-8.27
-10.21
-11.75
-12.97
-14.08
-15.38
-17.14
-19.51
-22.46
-25.68
-28.60
-30.54
-30.92
-29.52
-26.49
-22.36
-17.77
-13.33
-9.49
-6.56
-4.73
-4.09
-4.52
-5.61
-6.74
-7.14
-6.31
-4.04
-0.55
3.78
8.60
13.72
19.05
24.53
29.94
34.95
39.24
42.64
45.24
47.26
48.86
49.99
50.30
49.32
46.64
42.14
36.04
28.81
21.01
13.17
5.69
-1.14
-7.04
-11.82
-15.36
-17.70
-19.10
-19.97
-20.77
-21.85
-23.33
-25.03
-26.61
-27.57
-27.51
-26.20
-23.69
-20.30
-16.49
-12.72
-9.31
-6.39
-3.92
-1.80
0.02
1.55
2.71
3.47
3.82
3.86
3.66
3.31
2.87
2.42
2.06
1.90
1.98
2.27
2.66
2.97
3.09
2.99
2.75
2.47
2.22
1.99
1.69
1.22
0.55
-0.30
-1.21
-2.09
-2.85
-3.46
-3.92
-4.29
-4.65
-5.14
-5.93
-7.18
-8.92
-11.07
-13.34
-15.40
-16.86
-17.43
-16.96
-15.45
-13.02
-9.93
-6.48
-2.98
0.30
3.18
5.58
7.46
8.81
9.61
9.92
9.84
9.59
9.38
9.34
9.41
9.47
9.34
9.04
8.72
8.58
8.78
9.24
9.74
9.98
9.76
9.06
8.04
6.87
5.65
4.38
2.97
1.31
-0.65
-2.91
-5.41
-8.03
-10.65
-13.22
-15.74
-18.30
-21.04
-24.03
-27.22
-30.39
-33.15
-35.05
-35.67
-34.77
-32.34
-28.66
-24.19
-19.45
-14.83
-10.56
-6.65
-2.99
0.54
3.98
7.30
10.33
12.85
14.68
15.73
15.99
15.56
14.67
13.62
12.71
12.11
11.74
11.33
10.62
9.40
7.73
5.92
4.50
3.92
4.37
5.70
7.56
9.57
11.29
12.32
12.39
11.51
9.80
7.44
4.50
1.14
-2.31
-5.51
-8.14
-9.74
-9.66
-7.62
-4.02
-0.05
3.02
4.97
6.40
8.01
10.04
12.12
13.50
14.11
15.06
18.79
27.97
41.62
53.65
55.34
41.64
14.49
-18.68
-49.50
-73.10
-87.56
-92.68
-89.52
-79.41
-63.30
-42.78
-19.17
3.27
16.82
16.46
3.88
-12.55
-22.43
-18.57
-1.74
22.68
46.99
64.72
73.65
75.49
73.82
69.52
63.81
56.98
48.93
39.52
29.43
20.46
14.31
11.34
10.43
10.07
8.86
6.48
3.44
0.91
0.45
3.07
8.60
15.79
23.11
29.08
32.80
33.90
32.62
29.71
26.03
22.15
18.26
14.51
10.90
7.62
4.91
3.11
2.47
2.99
4.25
5.53
6.11
5.50
3.63
0.92
-1.97
-4.37
-5.86
-6.41
-6.33
-6.02
-5.86
-6.05
-6.62
-7.48
-8.50
-9.62
-10.80
-12.05
-13.33
-14.57
-15.70
-16.71
-17.61
-18.39
-18.98
-19.19
-18.76
-17.48
-15.31
-12.42
-9.22
-6.22
-3.85
-2.36
-1.72
-1.67
-1.80
-1.73
-1.15
0.06
1.87
4.15
6.72
9.40
11.99
14.34
16.26
17.58
18.29
18.48
18.42
18.42
18.76
19.48
20.43
21.30
21.74
21.44
20.24
18.06
14.94
10.93
6.17
0.88
-4.62
-10.00
-14.96
-19.44
-23.44
-26.98
-30.10
-32.89
-35.40
-37.66
-39.53
-40.87
-41.64
-41.78
-41.23
-39.95
-37.94
-35.20
-31.66
-27.20
-21.82
-16.10
-10.63
-5.85
-2.08
0.59
2.40
3.85
5.57
7.92
9.88
10.58
9.76
7.59
4.43
0.90
-2.18
-3.95
-3.99
-4.43
-6.77
-11.21
-17.28
-24.39
-31.86
-38.62
-43.37
-45.18
-47.00
-50.90
-57.44
-67.32
-82.93
-107.84
-144.67
-193.00
-247.92
-304.49
-353.22
-383.01
-386.51
-364.02
-322.08
-269.68
-214.64
-138.24
-41.60
57.30
136.88
186.41
207.24
207.40
196.75
184.06
175.34
169.40
163.55
157.83
152.57
146.36
137.14
123.83
107.28
89.95
71.58
52.86
35.06
21.21
11.68
5.29
0.77
-2.40
-4.04
-5.92
-9.00
-13.02
-16.93
-20.03
-21.66
-21.29
-18.72
-13.89
-8.14
-2.53
2.14
5.91
8.47
9.30
7.85
4.15
-0.15
-3.19
-3.48
-1.45
2.40
7.05
11.64
15.49
18.54
22.54
29.24
39.23
50.10
60.16
67.89
72.28
72.30
67.62
60.61
54.44
51.61
51.45
54.57
61.72
73.43
88.56
94.89
82.45
49.35
13.55
-20.75
-52.81
-85.76
-118.35
-148.59
-174.54
-193.32
-203.52
-206.55
-208.25
-212.78
-222.30
-236.41
-253.67
-272.06
-288.20
-298.79
-301.24
-295.18
-279.19
-252.40
-215.38
-170.90
-122.39
-71.37
-17.35
41.04
103.15
166.83
227.43
278.93
315.73
334.97
337.91
328.74
312.66
293.60
274.13
255.30
237.11
219.11
201.11
183.54
167.11
152.30
139.02
126.99
116.00
106.12
97.68
91.09
86.51
83.56
81.32
78.57
74.37
68.37
61.02
53.26
46.04
39.93
34.87
30.33
25.71
20.64
15.23
10.03
5.71
2.70
0.96
-0.06
-1.11
-2.84
-5.50
-8.86
-12.42
-15.67
-18.33
-20.47
-22.30
-24.04
-25.73
-27.21
-28.20
-28.51
-28.04
-26.88
-25.12
-22.88
-20.25
-17.36
-14.40
-11.65
-9.42
-7.93
-7.29
-7.37
-7.90
-8.42
-8.44
-7.53
-5.50
-2.50
0.92
3.94
5.78
5.97
4.56
2.07
-0.68
-2.99
-4.46
-5.10
-5.18
-4.99
-4.70
-4.28
-3.60
-2.60
-1.38
-0.19
0.75
1.30
1.57
1.76
2.10
2.64
3.25
3.74
4.01
4.22
4.80
6.22
8.83
12.72
17.81
23.94
31.00
38.85
47.30
56.09
64.97
73.81
82.65
91.64
100.79
109.82
118.14
125.10
130.31
133.92
136.58
139.14
142.10
145.22
147.27
146.17
139.48
125.03
101.38
67.99
25.22
-25.46
-81.15
-137.22
-187.65
-225.98
-247.38
-250.28
-237.21
-213.86
-186.83
-161.20
-139.36
-121.19
-105.14
-90.11
-76.03
-63.73
-54.11
-47.38
-42.96
-40.17
-38.70
-38.18
-38.40
-38.40
-36.24
-29.74
-17.54
-0.25
18.96
33.44
35.62
20.44
-9.10
-42.25
-65.42
-67.53
-43.88
1.95
58.54
114.99
160.42
187.17
192.47
178.43
150.49
114.92
76.58
37.14
0.23
-31.47
-55.92
-72.04
-80.09
-81.65
-79.24
-75.69
-73.07
-71.64
-70.94
-69.66
-66.43
-60.65
-52.88
-44.67
-37.91
-33.95
-32.77
-33.61
-35.01
-35.43
-34.01
-30.95
-27.26
-24.19
-22.58
-22.27
-22.73
-23.09
-22.62
-21.11
-18.90
-16.66
-15.08
-14.53
-14.88
-15.77
-16.69
-17.14
-16.73
-15.22
-12.48
-8.54
-3.56
2.07
7.81
13.14
17.81
21.97
26.05
30.51
35.54
40.86
45.57
48.82
50.22
49.96
48.47
46.19
43.46
40.48
37.37
34.04
30.52
27.17
24.43
22.57
21.59
21.31
21.51
22.02
22.11
21.53
20.74
20.58
21.68
24.21
28.08
33.18
39.54
45.53
50.36
54.67
59.75
65.99
72.67
78.74
83.64
87.64
88.11
84.42
79.10
75.88
76.40
79.30
81.66
80.62
74.23
55.99
23.06
-21.34
-70.47
-119.25
-165.69
-209.46
-250.66
-289.87
-336.11
-395.61
-466.80
-541.39
-609.50
-662.38
-692.99
-697.37
-629.11
-478.36
-280.46
-89.33
61.74
166.79
232.02
263.79
266.17
244.14
199.61
142.43
90.58
61.57
61.91
85.01
116.90
144.13
158.86
156.61
139.47
116.30
97.50
88.82
89.98
97.48
107.63
118.11
124.59
124.67
119.30
110.86
100.56
88.32
74.31
60.14
47.60
37.46
29.96
25.36
23.32
22.32
20.33
16.14
10.03
3.45
-2.35
-6.68
-9.30
-10.57
-11.33
-12.52
-14.54
-17.10
-19.45
-20.78
-20.84
-19.89
-18.62
-17.74
-17.81
-18.99
-20.99
-23.19
-24.80
-25.32
-24.59
-22.84
-20.48
-17.91
-15.28
-12.52
-9.42
-5.80
-1.64
2.90
7.64
12.53
17.48
22.37
26.98
31.15
34.76
37.76
40.18
42.01
43.24
43.54
42.46
39.83
35.90
31.38
27.11
23.96
22.69
24.03
27.99
33.92
40.81
47.60
53.31
57.26
59.42
60.60
62.46
66.04
71.44
78.30
86.29
95.38
105.65
116.63
126.97
134.51
135.47
126.07
104.57
72.15
31.91
-12.73
-58.92
-106.17
-146.86
-169.67
-165.41
-131.89
-74.46
-4.15
65.17
120.17
151.33
155.12
133.02
91.02
38.44
-14.27
-58.21
-88.46
-105.17
-111.91
-112.73
-112.12
-113.69
-119.21
-128.15
-137.68
-143.51
-140.84
-126.30
-99.60
-64.87
-29.11
0.54
19.43
26.86
24.23
15.75
6.65
1.30
1.75
7.80
17.80
29.48
40.62
49.36
54.87
57.18
57.07
55.71
54.38
54.09
55.17
56.86
57.23
53.64
43.50
25.28
-0.44
-30.69
-60.93
-86.76
-105.47
-116.80
-122.05
-122.73
-119.27
-110.84
-96.40
-76.20
-52.65
-29.70
-11.22
0.80
6.88
9.43
11.22
13.98
17.94
22.29
26.08
28.84
30.70
31.98
32.75
32.75
31.53
28.65
24.04
17.97
11.05
4.05
-2.27
-7.29
-10.71
-12.59
-13.27
-13.24
-12.85
-12.16
-10.97
-8.95
-5.91
-1.98
2.44
6.78
10.60
13.65
15.91
17.46
18.37
18.66
18.34
17.48
16.28
14.91
13.52
12.18
10.86
9.56
8.36
7.44
6.95
6.94
7.31
7.81
8.17
8.22
7.97
7.55
7.05
6.49
5.77
4.80
3.56
2.19
0.90
-0.14
-0.89
-1.51
-2.27
-3.38
-4.95
-6.93
-9.18
-11.55
-14.00
-16.50
-18.97
-21.17
-22.69
-23.09
-22.08
-19.71
-16.35
-12.54
-8.79
-5.40
-2.46
0.08
2.25
4.05
5.45
6.50
7.35
8.21
9.19
10.27
11.30
12.07
12.48
12.53
12.36
12.19
12.25
12.65
13.37
14.24
14.98
15.30
14.97
13.94
12.28
10.19
7.88
5.57
3.42
1.54
-0.02
-1.28
-2.36
-3.45
-4.78
-6.50
-8.63
-11.09
-13.69
-16.20
-18.39
-20.03
-20.88
-20.68
-19.28
-16.65
-12.99
-8.58
-3.77
1.17
6.09
10.90
15.49
19.72
23.36
26.23
28.22
29.36
29.77
29.63
29.11
28.30
27.26
26.04
24.74
23.58
22.80
22.54
22.81
23.42
24.06
24.50
24.62
24.53
24.45
24.55
24.72
24.63
23.87
22.04
18.90
14.40
8.82
2.75
-3.10
-8.34
-12.90
-17.06
-21.18
-25.53
-29.99
-34.05
-37.06
-38.71
-39.63
-40.80
-42.99
-46.13
-49.29
-50.90
-49.50
-44.54
-36.90
-29.19
-24.28
-23.93
-28.06
-35.09
-42.96
-50.44
-57.70
-62.66
-63.64
-59.06
-47.98
-30.77
-10.01
9.47
22.20
24.85
18.44
7.06
-3.87
-9.71
-8.29
-0.47
10.85
22.32
31.62
37.13
37.74
33.48
25.41
15.42
5.79
-1.22
-3.98
-1.94
3.93
11.15
16.76
18.40
15.17
7.95
-0.95
-8.73
-13.04
-12.77
-8.31
-0.98
7.62
16.06
23.34
28.81
32.08
33.01
31.80
29.03
25.54
22.27
19.79
18.17
17.04
15.88
14.30
12.26
10.04
8.01
6.51
5.62
5.23
5.09
4.91
4.39
3.29
1.47
-1.04
-4.04
-7.18
-10.06
-12.41
-14.21
-15.69
-17.20
-18.90
-20.75
-22.43
-23.55
-23.89
-23.51
-22.66
-21.60
-20.44
-18.94
-16.74
-13.55
-9.30
-4.23
1.16
6.42
11.23
15.47
19.33
23.13
27.24
31.83
36.87
41.86
46.07
48.78
49.40
47.76
43.92
38.14
31.01
23.58
17.20
13.42
13.44
16.02
18.98
19.26
14.68
5.07
-7.77
-21.47
-34.01
-44.36
-52.63
-59.17
-64.35
-68.11
-71.25
-73.28
-74.17
-74.28
-74.06
-73.86
-73.38
-71.94
-68.70
-63.14
-55.07
-45.03
-33.84
-21.92
-10.22
0.57
10.17
18.68
26.47
34.08
41.83
49.74
57.43
63.91
68.02
68.49
64.42
55.54
42.64
27.40
12.19
-0.42
-8.41
-10.59
-7.06
0.85
10.88
20.50
27.54
30.67
29.72
25.51
19.79
14.61
11.60
11.32
12.89
14.19
12.68
6.45
-4.81
-19.23
-33.45
-44.04
-48.80
-47.30
-40.77
-31.32
-21.10
-11.95
-4.47
1.52
6.39
10.32
13.44
16.00
18.36
20.82
23.11
25.36
27.48
28.70
27.47
22.31
12.53
-1.47
-18.15
-35.86
-51.51
-61.60
-63.19
-54.81
-36.37
-9.50
22.83
57.35
84.96
97.12
91.55
74.75
56.41
43.24
36.26
33.03
33.02
33.19
33.69
36.66
44.48
58.56
79.71
107.31
137.04
166.07
190.65
206.74
209.50
194.53
159.79
107.43
41.48
-31.88
-105.51
-173.88
-233.13
-281.66
-319.52
-347.60
-354.37
-332.91
-285.44
-222.86
-158.16
-99.85
-51.72
-14.47
12.94
32.78
45.79
52.72
54.79
53.38
49.72
44.55
39.09
34.02
30.27
26.77
22.09
15.20
6.34
-2.82
-9.67
-11.07
-4.31
11.83
35.00
61.09
83.64
96.66
97.82
89.15
75.56
62.45
53.90
50.81
52.26
55.63
57.59
54.71
44.24
25.04
-1.57
-31.82
-62.10
-88.61
-108.64
-120.99
-125.75
-123.96
-117.20
-107.43
-94.06
-80.28
-67.11
-53.38
-36.82
-15.94
8.34
32.53
52.59
66.15
72.63
74.28
73.80
72.65
70.69
67.05
61.41
54.83
49.54
47.06
47.35
47.58
43.44
31.56
10.94
-16.99
-48.85
-79.50
-103.47
-115.91
-114.07
-97.70
-68.80
-31.07
10.82
52.76
87.55
109.54
117.84
114.46
101.51
80.64
54.31
27.25
2.45
-17.06
-29.21
-33.95
-33.45
-31.00
-29.42
-28.71
-28.86
-29.60
-30.39
-30.46
-29.30
-26.94
-23.78
-20.18
-16.38
-12.87
-10.20
-8.56
-7.74
-7.37
-7.22
-7.14
-6.95
-6.40
-5.48
-4.32
-3.01
-1.61
-0.24
0.86
1.49
1.56
1.24
0.67
0.08
-0.29
-0.26
0.18
0.82
1.33
1.41
0.97
0.02
-1.21
-2.44
-3.47
-4.27
-4.95
-5.71
-6.69
-7.91
-9.28
-10.62
-11.78
-12.66
-13.28
-13.65
-13.78
-13.61
-13.04
-11.96
-10.32
-8.17
-5.65
-2.96
-0.34
2.00
3.96
5.49
6.58
7.26
7.59
7.65
7.56
7.49
7.56
7.84
8.29
8.69
8.81
8.43
7.53
6.25
4.82
3.51
2.46
1.67
1.03
0.38
-0.45
-1.51
-2.78
-4.18
-5.63
-7.07
-8.43
-9.65
-10.70
-11.58
-12.37
-13.22
-14.29
-15.69
-17.34
-18.99
-20.22
-20.62
-19.90
-17.99
-15.10
-11.56
-7.78
-4.06
-0.58
2.66
5.75
8.73
11.58
14.14
16.24
17.73
18.57
18.85
18.70
18.27
17.64
16.91
16.14
15.40
14.73
14.11
13.40
12.51
11.39
10.12
8.85
7.73
6.79
5.98
5.14
4.14
2.89
1.33
-0.52
-2.67
-5.02
-7.46
-9.85
-12.06
-14.07
-15.93
-17.72
-19.45
-20.95
-21.91
-21.98
-20.93
-18.75
-15.62
-11.87
-7.88
-3.94
-0.24
3.11
6.06
8.55
10.55
12.00
12.87
13.14
12.88
12.19
11.27
10.29
9.42
8.72
8.14
7.59
6.95
6.18
5.26
4.22
3.13
2.03
1.03
0.32
0.04
0.34
1.18
2.32
3.35
3.84
3.46
2.14
0.04
-2.51
-5.20
-7.78
-10.12
-12.19
-13.88
-15.07
-15.62
-15.40
-14.34
-12.49
-9.97
-6.94
-3.61
-0.19
3.13
6.18
8.83
10.95
12.46
13.31
13.52
13.24
12.75
12.34
12.26
12.57
13.13
13.66
13.87
13.56
12.73
11.55
10.31
9.28
8.60
8.23
7.95
7.48
6.56
5.13
3.31
1.34
-0.59
-2.40
-4.15
-5.95
-7.88
-9.94
-12.05
-14.12
-16.09
-17.92
-19.50
-20.67
-21.21
-20.90
-19.60
-17.33
-14.27
-10.69
-6.87
-3.03
0.70
4.29
7.74
11.01
14.00
16.52
18.42
19.61
20.14
20.14
19.78
19.17
18.39
17.45
16.35
15.11
13.78
12.41
11.10
9.88
8.80
7.84
6.97
6.16
5.32
4.45
3.52
2.51
1.33
-0.06
-1.66
-3.38
-5.08
-6.60
-7.93
-9.23
-10.75
-12.72
-15.12
-17.66
-19.81
-21.03
-20.93
-19.41
-16.70
-13.20
-9.33
-5.40
-1.55
2.19
5.81
9.21
12.22
14.66
16.42
17.53
18.11
18.33
18.30
18.12
17.82
17.43
17.03
16.67
16.37
16.17
16.04
16.00
16.08
16.25
16.47
16.62
16.56
16.27
15.77
15.15
14.44
13.57
12.41
10.87
9.04
7.08
5.19
3.35
1.33
-1.31
-4.90
-9.49
-14.66
-19.70
-23.84
-26.54
-27.70
-27.59
-26.62
-25.14
-23.28
-21.01
-18.26
-15.05
-11.61
-8.25
-5.22
-2.66
-0.55
1.25
2.85
4.27
5.47
6.35
6.89
7.12
7.14
7.07
7.00
6.93
6.78
6.41
5.71
4.62
3.19
1.60
0.04
-1.35
-2.55
-3.67
-4.88
-6.27
-7.83
-9.49
-11.18
-12.89
-14.68
-16.58
-18.48
-20.14
-21.29
-21.65
-21.12
-19.76
-17.68
-15.02
-11.85
-8.19
-4.08
0.37
4.91
9.24
13.04
16.05
18.13
19.30
19.69
19.51
18.94
18.16
17.26
16.29
15.28
14.23
13.18
12.11
11.04
9.96
8.91
7.91
6.98
6.11
5.27
4.40
3.45
2.38
1.18
-0.18
-1.65
-3.18
-4.66
-5.98
-7.10
-8.11
-9.24
-10.81
-12.99
-15.74
-18.69
-21.26
-22.84
-22.99
-21.58
-18.80
-15.11
-11.14
-7.55
-4.87
-3.36
-2.93
-3.15
-3.52
-3.74
-3.98
-5.01
-7.91
-13.65
-22.60
-34.05
-46.17
-56.32
-61.64
-59.88
-50.25
-33.78
-13.18
8.00
26.56
40.85
51.34
60.42
71.25
86.18
105.33
126.09
143.64
152.49
148.08
128.18
93.41
47.21
-4.91
-56.32
-100.34
-131.63
-147.37
-148.08
-137.39
-120.62
-102.99
-88.04
-77.11
-69.68
-64.62
-60.94
-58.40
-56.86
-55.32
-51.73
-43.66
-29.53
-9.34
14.96
40.56
64.37
84.31
100.01
112.40
122.78
131.76
139.19
143.85
144.53
139.69
127.95
108.90
83.15
52.45
18.84
-15.35
-50.30
-82.55
-108.28
-126.17
-136.95
-140.62
-135.02
-120.26
-94.79
-60.17
-20.70
17.07
46.96
65.60
70.25
61.87
44.19
22.75
2.65
-12.11
-19.77
-20.45
-15.34
-6.20
5.24
16.88
26.78
33.10
35.13
33.16
28.38
22.49
16.93
12.64
9.59
7.31
5.15
2.88
0.58
-1.48
-3.10
-4.29
-5.08
-5.60
-5.84
-5.75
-5.27
-4.58
-4.29
-5.41
-9.04
-15.70
-24.99
-35.36
-44.38
-49.36
-48.20
-40.14
-26.03
-8.25
9.87
24.71
33.12
33.21
24.84
9.87
-8.29
-25.61
-38.63
-45.48
-46.12
-41.99
-35.08
-27.07
-18.96
-11.22
-4.09
2.01
6.53
9.10
9.78
9.20
8.26
7.77
8.08
8.93
9.68
9.60
8.32
6.11
3.73
2.24
2.38
4.27
7.35
10.64
13.22
14.64
15.06
15.10
15.47
16.60
18.51
20.74
22.63
23.56
23.18
21.45
18.75
15.68
12.97
11.32
11.25
12.92
15.93
19.09
20.44
17.62
8.65
-7.10
-28.21
-51.34
-72.04
-86.24
-91.34
-86.81
-73.84
-54.64
-31.84
-8.24
13.14
29.19
37.39
36.71
28.43
16.03
4.26
-2.45
-1.44
7.44
22.15
39.49
56.19
69.84
79.05
83.33
82.80
77.79
68.90
56.95
42.98
28.20
13.78
0.47
-11.58
-22.82
-33.99
-45.54
-57.32
-68.39
-77.48
-83.37
-85.53
-84.34
-80.89
-76.53
-72.33
-68.85
-66.19
-64.15
-62.35
-60.42
-58.09
-55.20
-51.66
-47.26
-42.03
-36.23
-30.25
-24.35
-18.50
-12.46
-5.95
1.27
9.76
19.48
29.63
38.88
46.10
50.80
53.33
54.66
56.04
59.19
64.70
71.60
78.05
82.55
84.85
85.86
86.97
89.34
94.21
101.32
108.80
114.05
114.98
110.52
100.34
84.33
57.32
19.93
-20.26
-52.49
-69.75
-71.92
-64.13
-53.45
-45.90
-44.31
-46.92
-50.07
-50.85
-48.48
-43.50
-36.85
-29.15
-20.66
-11.46
-1.15
9.71
19.44
26.11
28.67
26.61
21.36
14.91
8.82
4.14
0.75
-2.32
-6.15
-11.37
-17.47
-22.88
-25.98
-25.82
-22.18
-15.84
-8.40
-1.80
1.60
0.46
-5.06
-13.63
-23.34
-32.24
-38.90
-42.88
-44.79
-46.97
-51.30
-58.11
-65.91
-72.12
-73.98
-69.42
-57.84
-36.84
-9.83
16.18
34.59
43.26
44.17
41.48
39.25
39.97
44.41
48.73
48.15
38.98
20.45
-5.71
-35.88
-65.49
-90.02
-99.80
-86.97
-48.10
11.69
79.47
137.84
171.53
173.23
146.33
103.15
58.40
24.52
4.19
-3.91
-3.88
-0.15
4.35
8.63
12.68
15.24
14.28
7.59
-4.17
-18.83
-33.24
-44.18
-49.53
-48.98
-44.58
-39.56
-36.98
-37.98
-42.23
-48.18
-53.98
-58.30
-60.77
-61.97
-62.58
-62.71
-61.32
-57.09
-49.11
-37.39
-22.95
-7.55
6.89
18.79
27.29
32.39
34.53
34.40
32.75
30.27
27.52
24.90
22.58
20.61
19.03
17.83
17.04
16.84
17.47
19.22
22.25
26.45
31.45
36.64
41.33
44.92
47.04
47.54
46.47
44.06
40.65
36.58
32.16
27.57
22.86
18.04
13.12
8.20
3.48
-0.82
-4.47
-7.37
-9.54
-11.14
-12.42
-13.68
-15.11
-16.80
-18.69
-20.57
-22.22
-23.47
-24.29
-24.79
-25.11
-25.33
-25.48
-25.48
-25.30
-24.94
-24.49
-23.99
-23.40
-22.60
-21.38
-19.61
-17.30
-14.61
-11.81
-9.14
-6.72
-4.58
-2.64
-0.85
0.78
2.17
3.23
3.91
4.18
4.11
3.74
3.16
2.40
1.55
0.67
-0.13
-0.77
-1.15
-1.27
-1.19
-1.00
-0.82
-0.77
-0.96
-1.46
-2.32
-3.44
-4.70
-5.92
-6.96
-7.77
-8.40
-8.91
-9.42
-9.98
-10.64
-11.43
-12.37
-13.36
-14.24
-14.72
-14.50
-13.35
-11.26
-8.41
-5.17
-1.93
1.02
3.51
5.53
7.18
8.57
9.77
10.80
11.63
12.21
12.49
12.46
12.13
11.53
10.70
9.71
8.67
7.75
7.07
6.71
6.61
6.58
6.41
5.93
5.09
4.00
2.83
1.76
0.84
0.01
-0.87
-1.96
-3.30
-4.84
-6.47
-8.10
-9.69
-11.30
-13.02
-14.86
-16.70
-18.32
-19.45
-19.91
-19.60
-18.56
-16.86
-14.59
-11.83
-8.71
-5.39
-2.09
1.00
3.77
6.22
8.42
10.41
12.18
13.61
14.53
14.82
14.49
13.70
12.72
11.81
11.15
10.75
10.49
10.15
9.47
8.34
6.68
4.53
1.96
-0.87
-3.80
-6.59
-9.04
-11.04
-12.62
-13.95
-15.32
-16.97
-19.05
-21.49
-24.15
-26.80
-29.24
-31.23
-32.51
-32.85
-32.08
-30.21
-27.40
-23.99
-20.30
-16.55
-12.77
-8.86
-4.73
-0.42
3.84
7.72
10.94
13.37
15.08
16.30
17.21
17.94
18.47
18.72
18.65
18.34
17.94
17.63
17.51
17.57
17.67
17.63
17.31
16.62
15.57
14.26
12.79
11.28
9.78
8.26
6.64
4.87
2.95
0.98
-0.87
-2.53
-4.01
-5.49
-7.23
-9.40
-12.03
-14.96
-17.88
-20.38
-22.03
-22.31
-20.80
-17.20
-11.46
-3.86
5.08
14.78
24.72
34.55
44.01
52.81
60.49
66.35
69.61
69.64
66.15
59.41
50.25
39.92
29.81
21.14
14.68
10.53
8.17
6.61
4.67
1.38
-3.81
-10.89
-19.35
-28.30
-36.75
-43.82
-48.86
-51.57
-51.92
-50.01
-46.08
-40.39
-33.28
-25.24
-16.91
-9.16
-2.92
0.93
1.78
-0.53
-5.61
-12.52
-20.03
-26.94
-32.36
-36.03
-38.24
-39.66
-40.93
-42.41
-43.93
-44.96
-44.75
-42.63
-38.22
-31.53
-22.91
-12.96
-2.42
8.01
17.77
26.54
34.20
40.78
46.33
50.80
53.98
55.63
55.61
54.01
51.21
47.70
43.93
40.14
36.36
32.47
28.41
24.30
20.36
16.86
13.91
11.35
8.87
6.20
3.17
-0.14
-3.48
-6.61
-9.39
-11.83
-13.98
-15.87
-17.41
-18.36
-18.44
-17.37
-15.05
-11.46
-6.79
-1.30
4.68
10.83
16.82
22.46
27.63
32.27
36.38
40.00
43.17
45.93
48.34
50.35
51.64
51.55
49.17
43.62
34.53
22.18
7.57
-7.87
-22.75
-36.07
-47.34
-56.41
-63.14
-67.10
-67.84
-65.16
-59.30
-51.07
-41.71
-32.55
-24.51
-17.89
-12.06
-6.16
0.39
7.73
15.52
23.00
29.29
33.68
35.88
36.41
35.90
34.84
33.80
33.44
34.44
37.25
41.99
48.35
55.99
63.59
68.97
69.94
65.28
55.25
41.57
26.74
9.93
-7.65
-24.46
-39.86
-53.63
-64.65
-70.64
-69.50
-60.85
-46.87
-31.41
-17.34
-6.77
-0.33
2.74
3.75
3.67
2.83
1.14
-1.08
-3.61
-5.98
-7.64
-8.13
-7.43
-6.05
-4.81
-4.36
-4.70
-5.47
-6.35
-7.08
-7.56
-7.93
-8.50
-9.59
-11.36
-13.59
-15.89
-17.98
-19.65
-20.71
-21.06
-20.63
-19.42
-17.45
-14.79
-11.59
-8.15
-4.87
-2.17
-0.59
-0.79
-3.39
-8.74
-16.59
-25.82
-34.79
-41.72
-45.33
-45.24
-41.95
-36.44
-29.65
-22.14
-14.03
-5.28
4.02
13.50
22.59
30.71
37.46
42.62
46.07
47.70
47.35
44.89
40.38
34.17
26.87
19.24
12.03
5.77
0.71
-3.19
-6.19
-8.62
-10.87
-13.25
-16.03
-19.31
-23.00
-26.77
-30.18
-32.77
-34.21
-34.39
-33.35
-31.13
-27.62
-22.61
-15.90
-7.62
1.68
10.96
19.06
25.05
28.52
29.69
29.12
27.44
25.13
22.38
19.29
15.98
12.71
9.81
7.56
6.06
5.13
4.41
3.50
2.09
0.00
-2.84
-6.41
-10.60
-15.04
-19.05
-21.57
-21.37
-17.34
-8.89
3.82
19.83
37.61
55.39
71.48
84.52
93.62
98.41
98.98
95.83
89.64
80.95
69.94
56.33
39.58
19.34
-4.05
-29.41
-54.80
-78.09
-97.51
-112.09
-121.69
-126.71
-127.70
-125.13
-119.50
-111.51
-102.17
-92.72
-84.25
-77.22
-71.32
-65.57
-58.63
-49.34
-36.89
-20.96
-1.66
20.59
45.06
70.79
96.62
121.40
144.11
163.93
180.18
192.18
199.05
199.76
193.24
178.62
155.62
124.74
87.46
46.23
4.22
-35.10
-68.60
-94.17
-111.07
-119.85
-121.98
-119.17
-112.85
-103.97
-93.07
-80.63
-67.24
-53.73
-40.91
-29.40
-19.46
-11.03
-3.97
1.80
6.26
9.20
10.45
10.04
8.29
5.73
2.97
0.48
-1.44
-2.74
-3.56
-4.17
-4.72
-5.24
-5.61
-5.70
-5.47
-4.91
-4.12
-3.21
-2.39
-1.81
-1.44
-1.21
-1.12
-1.27
-1.73
-2.56
-3.76
-5.62
-8.17
-11.03
-13.79
-16.27
-18.70
-21.37
-24.50
-28.07
-32.49
-37.51
-42.02
-44.96
-46.09
-46.05
-45.64
-45.34
-45.02
-45.19
-45.74
-45.67
-44.33
-42.40
-41.56
-43.41
-48.78
-57.53
-70.42
-87.10
-104.88
-119.76
-127.95
-126.65
-114.45
-91.80
-51.55
2.17
55.50
95.84
119.83
131.58
136.78
139.13
139.28
135.92
127.12
110.02
84.89
54.48
21.89
-10.25
-39.66
-64.03
-81.02
-83.05
-66.82
-33.84
8.75
49.72
77.93
86.64
75.80
51.59
23.12
-1.35
-16.60
-20.82
-15.13
-2.72
13.02
29.70
46.20
61.87
75.36
83.34
84.81
80.67
73.24
65.65
60.09
56.71
53.31
46.19
32.85
14.02
-6.69
-24.46
-35.56
-38.89
-35.77
-29.09
-22.22
-17.39
-14.85
-13.52
-12.39
-11.21
-11.63
-16.09
-26.67
-44.23
-68.19
-96.87
-125.73
-150.10
-160.61
-150.09
-116.29
-63.04
1.35
66.73
123.32
163.27
181.78
178.08
154.67
117.19
73.60
31.81
-2.46
-27.01
-43.15
-53.82
-61.56
-68.26
-73.93
-76.10
-71.54
-58.27
-36.97
-10.23
18.26
44.79
66.47
79.11
81.79
76.81
67.59
56.55
46.13
38.65
35.76
37.34
40.91
42.14
35.98
18.74
-9.73
-45.43
-80.91
-108.88
-125.44
-131.06
-128.72
-121.05
-105.20
-80.37
-44.34
2.97
56.94
109.42
152.58
182.55
199.81
209.30
210.01
199.82
176.26
138.51
89.69
37.03
-10.35
-45.34
-66.54
-78.29
-86.56
-96.75
-111.64
-130.70
-150.82
-168.95
-177.99
-176.01
-164.67
-146.21
-122.50
-94.60
-63.43
-30.17
2.65
31.27
51.18
59.16
55.00
43.15
30.73
20.81
13.40
7.37
1.67
-4.72
-11.80
-18.56
-23.87
-27.50
-30.29
-33.06
-36.21
-39.54
-42.66
-44.77
-44.99
-42.77
-38.39
-32.87
-27.14
-21.82
-17.32
-14.12
-12.51
-12.58
-14.10
-16.71
-19.98
-23.15
-25.40
-26.16
-25.35
-23.24
-20.32
-17.18
-14.30
-12.06
-10.40
-9.01
-7.53
-5.67
-3.32
-0.50
2.69
6.10
9.60
13.09
16.48
19.74
22.86
25.88
28.88
31.85
34.74
37.37
39.58
41.23
42.28
42.88
43.24
43.61
44.15
44.94
45.89
46.81
47.50
47.81
47.72
47.28
46.68
46.07
45.49
44.81
43.78
42.03
39.31
35.53
30.87
25.67
20.37
15.32
10.68
6.49
2.63
-1.02
-4.52
-7.85
-10.94
-13.65
-15.86
-17.46
-18.40
-18.70
-18.49
-17.95
-17.31
-16.75
-16.40
-16.29
-16.34
-16.44
-16.47
-16.42
-16.36
-16.47
-16.92
-17.79
-18.98
-20.20
-21.08
-21.22
-20.37
-18.44
-15.59
-12.06
-8.18
-4.20
-0.28
3.49
7.02
10.18
12.83
14.82
16.13
16.85
17.18
17.36
17.61
18.07
18.83
19.95
21.49
23.42
25.59
27.71
29.39
30.27
30.16
29.11
27.43
25.54
23.83
22.49
21.46
20.47
19.22
17.52
15.41
13.06
10.69
8.42
6.18
3.83
1.25
-1.55
-4.36
-6.84
-8.65
-9.55
-9.47
-8.50
-6.84
-4.71
-2.28
0.31
2.93
5.44
7.64
9.31
10.33
10.73
10.64
10.28
9.82
9.35
8.85
8.22
7.41
6.44
5.35
4.22
3.12
2.15
1.38
0.83
0.49
0.26
-0.04
-0.50
-1.09
-1.68
-2.11
-2.30
-2.35
-2.54
-3.10
-4.15
-5.54
-7.00
-8.26
-9.20
-9.98
-10.80
-11.87
-13.13
-14.36
-15.22
-15.44
-14.93
-13.73
-12.02
-9.93
-7.52
-4.85
-1.97
0.96
3.69
5.98
7.63
8.57
8.86
8.63
8.08
7.37
6.65
5.96
5.31
4.67
3.97
3.22
2.42
1.64
0.94
0.37
-0.10
-0.51
-0.90
-1.31
-1.77
-2.30
-2.96
-3.79
-4.80
-5.94
-7.03
-7.96
-8.70
-9.38
-10.29
-11.70
-13.68
-16.04
-18.31
-19.95
-20.51
-19.86
-18.12
-15.68
-12.92
-10.09
-7.29
-4.48
-1.62
1.25
4.01
6.52
8.62
10.22
11.31
11.91
12.09
11.94
11.59
11.15
10.71
10.26
9.76
9.14
8.40
7.61
6.88
6.31
5.90
5.55
5.08
4.36
3.31
1.94
0.35
-1.34
-3.01
-4.55
-5.88
-6.96
-7.79
-8.46
-9.13
-9.93
-10.95
-12.17
-13.49
-14.71
-15.56
-15.74
-15.01
-13.24
-10.44
-6.75
-2.45
2.08
6.46
10.40
13.86
16.93
19.83
22.77
25.86
29.13
32.37
35.27
37.58
39.24
40.35
41.16
42.03
43.32
45.36
48.04
51.03
54.02
56.89
59.74
62.72
65.92
69.48
73.49
77.49
80.87
83.36
85.31
87.35
90.00
93.36
97.24
101.31
104.38
105.33
103.75
100.32
96.09
91.27
84.78
74.45
57.79
31.82
-4.93
-51.30
-103.23
-155.43
-203.44
-244.84
-279.18
-299.98
-301.04
-281.63
-249.12
-213.85
-182.82
-157.86
-136.84
-115.77
-91.10
-64.07
-36.07
-9.74
12.58
29.90
42.44
51.27
57.66
62.69
66.26
66.16
62.00
55.06
47.43
40.50
34.34
27.72
19.03
6.66
-9.60
-28.19
-46.36
-61.25
-71.13
-75.69
-76.19
-74.72
-73.61
-74.33
-77.16
-81.43
-85.94
-89.45
-90.54
-88.53
-83.32
-75.11
-63.83
-49.16
-30.92
-9.26
15.18
42.03
69.94
96.87
120.80
140.38
155.18
165.28
171.23
173.69
174.01
172.34
167.58
158.36
144.12
125.60
104.56
83.54
58.60
31.38
7.07
-10.06
-19.70
-24.14
-25.76
-25.95
-24.87
-22.17
-17.16
-10.29
-3.26
1.82
3.53
2.32
-1.49
-7.22
-14.46
-23.39
-34.95
-50.25
-69.37
-90.62
-110.78
-126.76
-136.58
-135.74
-125.12
-108.85
-91.89
-77.69
-67.51
-60.80
-56.22
-51.92
-45.67
-35.79
-21.09
-1.88
19.78
40.43
56.39
64.95
65.55
59.82
50.22
39.58
29.93
22.75
18.01
15.42
14.43
14.56
15.56
17.00
18.83
20.87
23.16
25.74
28.39
30.56
31.61
30.98
27.89
21.57
11.43
-1.84
-16.08
-28.20
-35.26
-35.39
-28.43
-15.92
0.70
16.46
26.33
28.49
24.88
18.98
13.57
9.66
6.89
4.37
1.40
-1.56
-3.29
-2.91
-0.56
2.55
4.71
4.64
2.23
-1.17
-2.68
0.52
9.19
20.63
29.44
29.65
17.21
-7.94
-41.37
-74.95
-99.68
-108.93
-100.89
-78.80
-49.42
-20.57
1.42
13.10
14.06
6.44
-5.56
-17.74
-26.90
-31.00
-29.05
-21.14
-8.71
5.52
18.19
26.30
28.28
24.47
16.95
8.56
2.00
-0.77
1.16
7.74
17.72
28.74
37.80
42.29
41.04
34.90
26.41
18.53
13.62
11.84
11.94
12.02
10.58
7.00
1.56
-4.98
-11.60
-17.05
-19.90
-18.77
-13.00
-3.10
8.63
19.27
26.45
29.35
28.85
26.79
24.94
24.08
23.88
23.42
22.09
20.03
18.18
17.86
20.05
24.77
30.57
34.77
34.24
26.70
11.68
-9.26
-33.19
-56.90
-77.91
-94.00
-103.17
-103.86
-95.52
-79.39
-58.94
-39.04
-24.20
-16.60
-15.95
-19.50
-23.96
-27.13
-27.98
-26.16
-21.28
-12.78
-0.56
14.33
29.52
42.08
49.78
52.19
50.44
46.67
42.95
40.52
39.64
39.78
40.17
39.58
37.21
32.76
26.53
19.32
12.09
5.72
0.80
-2.57
-4.72
-6.29
-8.13
-10.95
-14.83
-18.91
-21.42
-20.26
-14.08
-3.09
10.32
22.68
30.66
32.38
28.12
19.76
9.90
0.74
-6.42
-11.16
-13.55
-14.08
-13.60
-13.20
-13.97
-16.22
-19.10
-20.79
-19.24
-13.07
-2.32
11.65
26.50
39.68
49.03
52.88
50.07
39.91
22.74
0.29
-24.25
-47.03
-64.71
-75.20
-78.17
-74.67
-66.30
-54.71
-41.56
-28.58
-17.40
-9.91
-6.77
-7.16
-9.06
-10.08
-8.67
-4.84
0.04
4.19
6.65
7.92
9.57
13.15
19.20
26.73
33.89
38.71
40.11
38.28
34.41
29.88
25.61
21.59
17.16
11.30
3.28
-7.00
-18.62
-29.76
-38.15
-41.83
-39.93
-32.91
-22.26
-9.91
2.19
12.32
18.95
21.11
18.82
13.50
7.87
4.96
6.85
13.45
22.65
31.40
37.66
41.15
42.68
42.48
38.96
29.31
11.78
-11.90
-35.94
-52.64
-56.19
-45.86
-26.42
-5.89
8.42
13.12
9.55
1.73
-6.26
-12.23
-16.13
-18.99
-21.43
-23.06
-22.87
-20.09
-14.88
-8.30
-1.88
2.90
5.27
5.29
3.87
2.25
1.57
2.35
4.37
6.84
8.79
9.56
9.07
7.77
6.35
5.40
4.98
4.78
4.26
2.99
0.99
-1.30
-3.23
-4.27
-4.26
-3.55
-2.78
-2.56
-3.21
-4.61
-6.32
-7.82
-8.73
-9.03
-8.87
-8.56
-8.29
-8.08
-7.80
-7.31
-6.70
-6.13
-5.84
-6.04
-6.82
-8.16
-9.92
-11.95
-14.09
-16.23
-18.25
-20.05
-21.52
-22.62
-23.32
-23.67
-23.79
-23.80
-23.88
-24.11
-24.57
-25.26
-26.14
-27.15
-28.20
-29.27
-30.34
-31.44
-32.61
-33.80
-34.89
-35.59
-35.52
-34.25
-31.48
-27.09
-21.19
-14.10
-6.21
2.05
10.29
18.25
25.71
32.53
38.62
43.91
48.30
51.64
53.70
54.22
53.04
50.21
46.02
40.94
35.54
30.31
25.59
21.50
18.02
15.07
12.58
10.52
8.86
7.57
6.53
5.63
4.81
4.07
3.45
2.99
2.61
2.13
1.28
-0.17
-2.37
-5.33
-8.83
-12.55
-16.10
-19.11
-21.34
-22.67
-23.06
-22.56
-21.17
-18.88
-15.70
-11.76
-7.32
-2.75
1.65
5.71
9.46
13.06
16.64
20.21
23.62
26.67
29.14
30.91
31.96
32.29
31.90
30.76
28.84
26.26
23.24
20.15
17.35
15.09
13.44
12.23
11.26
10.31
9.33
8.36
7.46
6.64
5.75
4.67
3.28
1.63
-0.14
-1.86
-3.40
-4.74
-5.98
-7.25
-8.67
-10.30
-12.13
-14.06
-15.96
-17.67
-19.00
-19.78
-19.89
-19.24
-17.84
-15.69
-12.89
-9.54
-5.81
-1.96
1.72
4.88
7.29
8.86
9.70
10.06
10.26
10.49
10.82
11.24
11.69
12.16
12.70
13.31
13.95
14.44
14.62
14.39
13.77
12.88
11.84
10.71
9.48
8.12
6.62
5.08
3.59
2.23
0.97
-0.32
-1.78
-3.53
-5.54
-7.73
-9.94
-12.11
-14.22
-16.37
-18.65
-21.09
-23.55
-25.76
-27.32
-27.87
-27.18
-25.25
-22.25
-18.45
-14.19
-9.79
-5.56
-1.82
1.24
3.52
5.14
6.39
7.62
9.14
11.16
13.79
16.97
20.54
24.17
27.34
29.48
30.05
28.79
25.79
21.45
16.38
11.24
6.59
2.85
0.23
-1.30
-1.93
-1.98
-1.82
-1.72
-1.83
-2.15
-2.67
-3.38
-4.32
-5.57
-7.13
-8.92
-10.77
-12.55
-14.14
-15.47
-16.45
-16.95
-16.78
-15.78
-13.87
-11.13
-7.78
-4.12
-0.44
3.09
6.36
9.33
11.95
14.22
16.14
17.84
19.51
21.28
23.13
24.80
25.89
26.00
24.99
23.02
20.54
18.06
15.98
14.47
13.46
12.77
12.15
11.43
10.46
9.17
7.61
5.93
4.31
2.88
1.63
0.44
-0.92
-2.63
-4.74
-7.19
-9.89
-12.76
-15.78
-18.90
-21.94
-24.61
-26.55
-27.47
-27.27
-26.01
-23.91
-21.16
-17.92
-14.32
-10.45
-6.48
-2.62
0.88
3.83
6.08
7.66
8.66
9.26
9.65
9.95
10.16
10.23
10.07
9.63
8.93
8.07
7.18
6.37
5.67
5.10
4.58
4.06
3.50
2.89
2.25
1.58
0.85
0.05
-0.88
-1.94
-3.12
-4.39
-5.76
-7.29
-9.05
-11.11
-13.45
-15.90
-18.18
-19.96
-20.93
-20.93
-19.94
-18.11
-15.68
-12.85
-9.78
-6.54
-3.14
0.39
3.95
7.40
10.57
13.23
15.19
16.27
16.38
15.62
14.27
12.68
11.21
10.07
9.27
8.73
8.33
8.00
7.73
7.57
7.50
7.54
7.62
7.67
7.59
7.22
6.43
5.12
3.37
1.36
-0.64
-2.47
-4.05
-5.48
-6.89
-8.36
-9.92
-11.54
-13.23
-14.99
-16.83
-18.64
-20.19
-21.20
-21.38
-20.61
-18.94
-16.52
-13.53
-10.11
-6.32
-2.27
1.89
5.93
9.56
12.59
14.93
16.64
17.86
18.73
19.29
19.54
19.47
19.11
18.59
18.00
17.40
16.71
15.80
14.50
12.78
10.70
8.48
6.34
4.44
2.84
1.46
0.16
-1.21
-2.76
-4.49
-6.37
-8.29
-10.11
-11.73
-13.11
-14.32
-15.53
-16.88
-18.46
-20.15
-21.69
-22.71
-22.92
-22.19
-20.58
-18.26
-15.44
-12.29
-8.93
-5.46
-2.02
1.29
4.39
7.24
9.83
12.12
14.04
15.46
16.32
16.62
16.45
16.02
15.52
15.12
14.88
14.78
14.73
14.63
14.37
13.93
13.34
12.70
12.09
11.58
11.12
10.63
10.05
9.31
8.43
7.43
6.37
5.23
3.97
2.49
0.72
-1.34
-3.63
-6.01
-8.41
-10.79
-13.16
-15.50
-17.73
-19.65
-21.02
-21.65
-21.42
-20.35
-18.46
-15.80
-12.44
-8.47
-4.10
0.38
4.64
8.42
11.58
14.08
15.96
17.26
18.04
18.35
18.30
18.01
17.63
17.25
16.87
16.48
16.03
15.51
14.90
14.17
13.28
12.20
10.93
9.53
8.10
6.72
5.46
4.25
3.00
1.61
0.06
-1.60
-3.27
-4.87
-6.43
-8.06
-9.91
-12.07
-14.54
-17.19
-19.85
-22.26
-24.19
-25.41
-25.72
-25.03
-23.37
-20.95
-18.04
-14.93
-11.77
-8.56
-5.29
-1.96
1.32
4.35
6.94
9.01
10.59
11.78
12.68
13.32
13.70
13.77
13.52
13.01
12.30
11.46
10.58
9.71
8.89
8.17
7.54
6.96
6.42
5.86
5.26
4.60
3.86
3.00
2.06
1.04
0.01
-1.02
-2.07
-3.16
-4.33
-5.60
-6.95
-8.41
-10.02
-11.86
-13.97
-16.30
-18.65
-20.73
-22.19
-22.76
-22.31
-20.86
-18.49
-15.33
-11.50
-7.22
-2.75
1.54
5.29
8.24
10.35
11.78
12.80
13.63
14.31
14.70
14.56
13.75
12.29
10.44
8.55
6.92
5.69
4.82
4.14
3.49
2.82
2.15
1.56
1.09
0.77
0.63
0.70
1.04
1.68
2.54
3.46
4.22
4.66
4.76
4.67
4.56
4.59
4.76
4.98
5.15
5.28
5.52
6.15
7.44
9.56
12.53
16.31
20.87
26.20
32.33
39.25
46.77
54.57
62.26
69.55
76.33
82.74
89.04
95.45
102.10
108.94
115.83
122.60
129.07
135.08
140.43
144.90
148.29
150.55
151.73
151.94
151.14
148.96
144.62
137.04
125.19
108.43
86.78
60.96
32.16
1.70
-29.39
-60.52
-91.48
-122.09
-151.90
-180.02
-205.22
-226.21
-241.98
-252.03
-256.37
-255.45
-249.85
-240.16
-226.94
-210.85
-192.72
-173.45
-153.92
-134.94
-117.21
-101.54
-88.84
-80.04
-75.81
-76.13
-79.89
-85.00
-88.93
-89.62
-86.35
-80.05
-73.09
-68.55
-68.95
-75.02
-85.35
-96.81
-105.91
-110.14
-108.70
-102.77
-95.34
-90.52
-92.42
-103.95
-125.45
-153.60
-180.88
-196.53
-189.98
-155.53
-95.55
-20.40
55.01
116.55
155.73
172.00
171.84
164.74
158.37
156.55
159.65
166.44
175.62
184.73
187.68
178.04
154.54
122.47
90.71
67.96
59.86
66.70
82.77
98.61
106.03
101.95
88.93
72.67
57.82
44.91
30.94
13.82
-4.42
-16.72
-14.38
7.04
43.65
83.64
112.48
119.81
103.68
70.83
32.86
0.66
-19.81
-26.73
-20.81
-4.48
18.88
45.12
69.34
86.94
95.01
93.10
82.92
66.70
45.59
19.44
-12.11
-48.02
-84.75
-116.75
-138.30
-145.53
-137.58
-116.57
-86.16
-50.38
-12.92
23.02
54.69
79.99
97.94
109.10
115.25
118.52
120.18
119.65
114.56
101.87
79.22
45.95
3.22
-46.01
-97.06
-143.70
-178.91
-196.71
-194.61
-175.66
-148.25
-123.42
-110.45
-113.01
-127.97
-147.53
-163.08
-168.70
-162.33
-144.80
-117.87
-83.20
-42.66
0.55
41.56
74.85
96.13
103.98
100.27
89.00
74.46
59.85
47.00
36.85
30.06
27.08
27.77
31.02
34.82
37.00
36.29
32.90
28.31
24.52
23.05
24.31
27.73
32.26
37.14
42.32
48.51
56.73
67.70
81.17
95.76
109.18
118.94
123.20
121.20
113.32
100.79
85.14
67.84
49.99
32.03
13.65
-6.21
-28.89
-55.20
-84.56
-114.50
-141.11
-160.14
-168.71
-166.29
-154.87
-137.98
-119.32
-101.59
-86.17
-73.37
-63.11
-55.40
-50.28
-47.51
-46.25
-45.11
-42.56
-37.67
-30.46
-21.91
-13.52
-6.59
-1.65
1.67
4.49
8.08
13.33
20.30
28.14
35.29
40.05
41.10
37.97
31.18
22.00
12.05
2.73
-5.14
-11.47
-16.72
-21.47
-26.07
-30.28
-33.46
-34.78
-33.72
-30.32
-25.20
-19.27
-13.46
-8.45
-4.60
-2.11
-1.04
-1.38
-2.84
-4.86
-6.64
-7.35
-6.46
-3.89
-0.05
4.25
8.02
10.30
10.38
8.01
3.55
-2.09
-7.67
-12.09
-14.66
-15.21
-13.82
-10.56
-5.35
1.89
10.81
20.41
29.12
35.38
38.25
37.81
35.08
31.48
28.25
26.15
25.49
26.44
29.25
34.03
40.35
46.83
51.27
51.32
45.48
33.91
18.58
2.50
-11.46
-21.56
-27.48
-30.03
-30.39
-29.56
-28.18
-26.80
-25.94
-26.05
-27.05
-27.84
-26.31
-20.02
-7.45
11.02
32.77
53.87
70.63
81.06
85.52
86.10
85.25
84.48
83.79
82.21
78.93
74.12
68.96
64.92
62.94
62.90
63.90
64.93
65.40
65.27
64.65
63.41
61.02
56.69
49.82
40.32
28.79
16.43
4.77
-4.61
-10.54
-12.59
-11.31
-8.10
-4.83
-3.20
-4.23
-7.99
-13.90
-21.05
-28.54
-35.64
-41.64
-45.86
-47.69
-46.94
-43.94
-39.55
-34.84
-30.61
-27.16
-24.30
-21.71
-19.22
-16.98
-15.37
-14.74
-15.29
-17.05
-19.91
-23.73
-28.17
-32.62
-36.22
-38.10
-37.86
-35.88
-33.31
-31.60
-31.70
-33.50
-35.82
-36.94
-35.46
-30.96
-24.26
-16.94
-10.68
-6.65
-5.15
-5.68
-7.28
-8.83
-9.37
-8.30
-5.43
-1.02
4.27
9.52
13.83
16.53
17.34
16.37
14.03
10.85
7.28
3.56
-0.17
-3.76
-6.78
-8.45
-7.80
-3.99
3.36
13.96
26.92
41.13
55.48
69.18
81.67
92.52
101.35
107.73
111.32
111.97
109.76
105.04
98.33
90.19
81.20
71.78
62.16
52.33
42.19
31.65
20.83
10.03
-0.30
-9.82
-18.39
-26.11
-33.20
-39.79
-45.78
-50.85
-54.71
-57.25
-58.71
-59.58
-60.43
-61.69
-63.59
-66.18
-69.41
-73.12
-77.03
-80.62
-83.15
-83.81
-81.96
-77.33
-70.06
-60.56
-49.33
-36.76
-23.20
-9.15
4.63
16.97
26.65
32.67
34.70
33.18
29.21
24.07
18.80
13.91
9.35
4.81
0.09
-4.67
-8.98
-12.27
-14.12
-14.45
-13.42
-11.30
-8.28
-4.51
-0.23
4.11
7.78
9.92
9.93
7.67
3.49
-1.92
-7.95
-14.26
-20.82
-27.79
-35.21
-42.77
-49.85
-55.59
-59.05
-59.48
-56.42
-49.85
-40.32
-29.00
-17.45
-7.33
0.17
4.68
6.72
7.32
7.56
8.02
8.60
8.74
7.84
5.67
2.53
-0.88
-3.76
-5.59
-6.20
-5.85
-4.97
-4.04
-3.40
-3.22
-3.51
-4.15
-4.97
-5.80
-6.53
-7.14
-7.74
-8.56
-9.89
-11.95
-14.83
-18.42
-22.50
-26.76
-30.98
-35.04
-38.89
-42.49
-45.62
-47.87
-48.62
-47.20
-43.09
-36.12
-26.53
-14.97
-2.34
10.42
22.46
33.12
41.88
48.42
52.54
54.23
53.71
51.47
48.24
44.86
42.21
40.99
41.59
43.92
47.40
51.04
53.74
54.60
53.22
49.83
45.11
39.89
34.87
30.34
26.27
22.37
18.35
13.99
9.21
4.07
-1.27
-6.56
-11.50
-15.79
-19.24
-21.74
-23.31
-24.02
-24.00
-23.45
-22.62
-21.69
-20.74
-19.60
-17.92
-15.30
-11.54
-6.73
-1.31
4.13
9.09
13.27
16.65
19.27
21.24
22.64
23.53
24.00
24.09
23.76
22.85
21.11
18.31
14.39
9.50
4.00
-1.66
-7.07
-11.94
-16.20
-19.93
-23.29
-26.42
-29.34
-31.94
-34.08
-35.64
-36.66
-37.30
-37.74
-38.12
-38.51
-38.93
-39.45
-40.17
-41.20
-42.53
-43.96
-45.15
-45.67
-45.09
-43.06
-39.42
-34.13
-27.36
-19.45
-10.81
-1.96
6.63
14.45
21.03
25.98
29.05
30.34
30.19
29.15
27.79
26.52
25.54
24.92
24.65
24.69
25.00
25.39
25.62
25.43
24.67
23.36
21.67
19.78
17.75
15.56
13.09
10.31
7.30
4.23
1.33
-1.25
-3.49
-5.48
-7.42
-9.53
-12.03
-15.05
-18.59
-22.51
-26.51
-30.16
-32.92
-34.27
-33.84
-31.51
-27.44
-22.07
-15.91
-9.42
-2.92
3.50
9.83
16.01
21.92
27.33
31.98
35.70
38.39
40.00
40.52
39.88
38.06
35.12
31.30
26.96
22.54
18.49
15.06
12.37
10.36
8.85
7.67
6.66
5.69
4.69
3.59
2.33
0.90
-0.66
-2.22
-3.62
-4.75
-5.64
-6.46
-7.49
-8.95
-10.92
-13.33
-16.02
-18.88
-21.94
-25.32
-29.17
-33.45
-37.86
-41.87
-44.86
-46.34
-46.07
-44.07
-40.62
-36.10
-30.96
-25.63
-20.55
-16.14
-12.75
-10.54
-9.48
-9.30
-9.58
-9.92
-9.98
-9.67
-9.08
-8.48
-8.22
-8.67
-9.99
-12.03
-14.12
-15.17
-13.81
-8.79
0.57
14.09
30.77
49.03
67.12
83.42
96.68
105.97
110.73
110.85
106.75
99.37
90.02
80.03
70.28
61.00
51.83
42.11
31.34
19.40
6.61
-6.44
-19.12
-30.90
-41.48
-50.68
-58.41
-64.62
-69.25
-72.23
-73.45
-72.78
-70.23
-65.99
-60.54
-54.51
-48.47
-42.65
-36.85
-30.53
-23.04
-13.97
-3.31
8.64
21.41
34.53
47.68
60.51
72.59
83.33
92.08
98.30
101.73
102.44
100.78
97.20
92.12
85.80
78.40
70.02
60.75
50.80
40.46
30.14
20.24
11.13
3.01
-4.09
-10.21
-15.49
-20.09
-24.13
-27.75
-31.06
-34.20
-37.24
-40.22
-43.11
-45.74
-47.88
-49.22
-49.47
-48.42
-46.01
-42.35
-37.69
-32.36
-26.69
-20.94
-15.27
-9.81
-4.70
-0.07
3.98
7.36
10.09
12.24
13.85
14.94
15.44
15.32
14.54
13.19
11.42
9.42
7.36
5.34
3.42
1.61
-0.09
-1.69
-3.22
-4.75
-6.30
-7.94
-9.62
-11.29
-12.83
-14.10
-15.03
-15.69
-16.27
-17.07
-18.42
-20.45
-23.03
-25.72
-27.91
-28.96
-28.34
-25.74
-21.13
-14.84
-7.61
-0.51
5.24
8.64
9.25
7.41
4.16
0.82
-1.44
-2.04
-1.02
1.12
3.77
6.52
9.25
12.10
15.25
18.72
22.38
25.82
28.56
30.20
30.52
29.60
27.77
25.38
22.74
19.97
17.02
13.77
10.25
6.68
3.44
0.97
-0.48
-0.95
-0.74
-0.35
-0.25
-0.71
-1.75
-3.16
-4.64
-5.92
-6.94
-7.77
-8.62
-9.66
-10.99
-12.55
-14.25
-16.02
-17.80
-19.59
-21.30
-22.68
-23.41
-23.07
-21.44
-18.54
-14.67
-10.39
-6.22
-2.50
0.68
3.48
6.14
8.79
11.41
13.78
15.66
16.81
17.21
16.95
16.21
15.23
14.20
13.26
12.53
12.08
11.91
11.98
12.08
11.99
11.48
10.45
8.95
7.21
5.51
4.11
3.12
2.50
2.09
1.70
1.19
0.52
-0.26
-1.09
-1.92
-2.74
-3.59
-4.49
-5.47
-6.50
-7.57
-8.66
-9.77
-10.81
-11.58
-11.78
-11.06
-9.23
-6.41
-3.00
0.35
2.97
4.31
4.13
2.50
-0.22
-3.53
-6.87
-9.77
-11.92
-13.25
-13.92
-14.23
-14.52
-15.07
-16.00
-17.33
-18.94
-20.70
-22.44
-23.97
-25.09
-25.54
-25.03
-23.28
-20.11
-15.61
-10.14
-4.30
1.18
5.65
8.75
10.42
10.93
10.70
10.07
9.15
7.77
5.56
2.14
-2.62
-8.56
-15.18
-21.93
-28.28
-33.89
-38.54
-41.98
-43.90
-43.97
-42.01
-38.09
-32.56
-25.97
-18.87
-11.70
-4.78
1.62
7.30
12.01
15.64
18.18
19.73
20.48
20.62
20.33
19.81
19.28
18.91
18.72
18.58
18.23
17.41
15.99
14.07
11.89
9.80
8.04
6.69
5.69
4.86
4.10
3.32
2.55
1.84
1.27
0.92
0.77
0.78
0.84
0.77
0.38
-0.53
-2.11
-4.41
-7.32
-10.52
-13.55
-15.96
-17.36
-17.64
-16.87
-15.23
-12.91
-10.01
-6.59
-2.76
1.26
5.16
8.70
11.74
14.28
16.39
18.08
19.31
20.01
20.14
19.72
18.74
17.09
14.56
10.94
6.27
0.89
-4.56
-9.40
-13.13
-15.63
-17.05
-17.68
-17.75
-17.34
-16.45
-15.16
-13.62
-12.14
-10.94
-10.15
-9.64
-9.19
-8.61
-7.88
-7.19
-6.84
-7.13
-8.17
-9.91
-12.13
-14.55
-16.88
-18.82
-20.06
-20.35
-19.46
-17.38
-14.23
-10.30
-5.89
-1.25
3.47
8.20
12.85
17.23
21.09
24.14
26.22
27.34
27.67
27.51
27.10
26.61
26.09
25.47
24.71
23.83
22.91
22.06
21.40
20.94
20.66
20.52
20.47
20.50
20.59
20.62
20.46
19.95
19.05
17.87
16.66
15.71
15.25
15.28
15.59
15.78
15.32
13.56
9.91
3.93
-4.47
-14.81
-26.06
-36.81
-45.64
-51.59
-54.40
-54.44
-52.40
-48.94
-44.40
-38.89
-32.45
-25.36
-18.19
-11.64
-6.26
-2.24
0.66
2.92
5.00
7.15
9.24
10.86
11.42
10.48
7.90
4.11
0.02
-3.28
-4.88
-4.41
-2.17
1.01
4.16
6.52
7.72
7.76
6.82
5.06
2.62
-0.38
-3.77
-7.25
-10.50
-13.23
-15.30
-16.77
-17.86
-18.84
-19.94
-21.22
-22.49
-23.36
-23.42
-22.40
-20.25
-17.18
-13.43
-9.05
-3.76
2.96
11.60
22.25
34.27
46.29
56.55
63.49
66.34
65.44
62.00
57.48
52.91
48.50
43.71
37.86
30.72
22.73
14.79
7.75
1.93
-2.93
-7.36
-11.72
-15.97
-19.71
-22.56
-24.39
-25.45
-26.11
-26.69
-27.21
-27.45
-27.23
-26.53
-25.55
-24.65
-24.09
-23.83
-23.51
-22.56
-20.44
-16.93
-12.14
-6.57
-0.88
4.28
8.36
11.01
12.08
11.63
10.00
7.78
5.65
4.15
3.42
3.09
2.49
1.06
-1.27
-3.94
-5.94
-6.38
-4.91
-1.91
1.72
5.03
7.44
8.86
9.45
9.41
8.75
7.41
5.46
3.27
1.43
0.55
0.94
2.45
4.50
6.29
7.16
6.78
5.26
3.05
0.81
-0.94
-1.99
-2.49
-2.87
-3.56
-4.82
-6.61
-8.75
-11.04
-13.40
-15.80
-18.08
-19.87
-20.59
-19.67
-16.88
-12.45
-7.14
-1.89
2.50
5.63
7.57
8.78
9.86
11.31
13.40
16.19
19.46
22.83
25.85
28.06
29.09
28.78
27.17
24.52
21.22
17.69
14.37
11.58
9.56
8.40
7.99
8.04
8.19
8.07
7.47
6.45
5.33
4.60
4.66
5.66
7.39
9.28
10.62
10.80
9.57
7.04
3.68
0.01
-3.53
-6.81
-9.89
-12.98
-16.23
-19.63
-23.00
-26.04
-28.48
-30.03
-30.47
-29.58
-27.15
-23.09
-17.53
-10.95
-4.07
2.29
7.48
11.18
13.43
14.49
14.72
14.43
13.92
13.40
13.02
12.79
12.55
12.04
11.08
9.65
7.98
6.42
5.29
4.67
4.46
4.38
4.13
3.48
2.27
0.39
-2.12
-5.12
-8.31
-11.37
-14.05
-16.32
-18.23
-19.80
-20.87
-20.98
-19.57
-16.18
-10.73
-3.64
4.19
11.63
17.43
20.53
20.25
16.44
9.72
1.36
-6.90
-13.35
-16.72
-16.52
-13.09
-7.30
-0.23
7.17
14.21
20.41
25.43
29.00
31.03
31.64
31.20
30.24
29.28
28.68
28.54
28.73
28.95
28.84
28.01
26.18
23.24
19.37
15.06
11.00
7.77
5.63
4.34
3.25
1.59
-1.24
-5.39
-10.59
-16.39
-22.31
-28.02
-33.31
-38.09
-42.21
-45.54
-47.98
-49.55
-50.35
-50.52
-50.20
-49.49
-48.40
-46.80
-44.44
-40.88
-35.60
-28.21
-18.65
-7.34
4.89
16.93
27.63
36.09
41.75
44.44
44.40
42.14
38.42
34.03
29.65
25.74
22.50
19.97
18.07
16.71
15.80
15.18
14.66
14.05
13.27
12.29
11.21
10.09
8.97
7.79
6.50
5.08
3.51
1.81
-0.02
-1.96
-3.97
-5.95
-7.82
-9.59
-11.37
-13.41
-15.95
-19.17
-23.00
-27.09
-30.89
-33.73
-35.02
-34.41
-31.84
-27.56
-22.08
-16.00
-9.91
-4.25
0.70
4.82
8.17
10.92
13.27
15.32
17.09
18.44
19.23
19.40
19.03
18.31
17.47
16.64
15.85
15.07
14.28
13.52
12.81
12.12
11.33
10.36
9.15
7.85
6.63
5.63
4.83
4.09
3.17
1.90
0.30
-1.52
-3.36
-5.02
-6.38
-7.50
-8.62
-10.11
-12.39
-15.74
-20.17
-25.35
-30.66
-35.35
-38.71
-40.20
-39.54
-36.77
-32.16
-26.18
-19.42
-12.44
-5.73
0.38
5.70
10.17
13.80
16.62
18.64
19.89
20.43
20.37
19.91
19.35
18.96
18.91
19.22
19.73
20.20
20.44
20.37
20.02
19.47
18.83
18.13
17.40
16.58
15.65
14.59
13.42
12.17
10.89
9.60
8.27
6.82
5.18
3.33
1.37
-0.48
-2.08
-3.39
-4.58
-5.90
-7.57
-9.62
-11.97
-14.60
-17.64
-21.36
-26.02
-31.44
-36.97
-41.52
-43.97
-43.61
-40.41
-34.99
-28.29
-21.24
-14.44
-8.14
-2.42
2.63
6.83
9.96
11.89
12.72
12.74
12.35
11.83
11.32
10.75
10.00
9.04
7.93
6.87
6.04
5.59
5.59
5.99
6.67
7.31
7.51
6.86
5.19
2.71
-0.06
-2.43
-3.93
-4.49
-4.46
-4.40
-4.78
-5.77
-7.27
-8.97
-10.62
-12.09
-13.35
-14.30
-14.74
-14.39
-13.05
-10.76
-7.74
-4.38
-1.04
2.01
4.75
7.22
9.40
11.13
12.15
12.26
11.36
9.48
6.72
3.18
-1.02
-5.77
-10.99
-16.62
-22.37
-28.00
-33.36
-38.41
-43.18
-47.58
-51.59
-55.35
-59.07
-62.62
-65.86
-68.78
-71.55
-74.47
-77.29
-79.32
-79.47
-76.38
-68.24
-54.01
-33.99
-9.94
15.31
39.22
59.69
75.21
85.06
89.87
90.59
88.05
82.87
75.56
67.59
60.47
55.33
48.58
37.80
23.06
6.58
-7.58
-20.07
-30.63
-37.81
-39.88
-35.48
-23.89
-5.96
16.22
39.80
61.56
78.93
89.42
90.95
82.66
65.98
43.81
19.18
-6.14
-32.39
-60.28
-89.81
-118.81
-142.48
-154.45
-149.71
-127.08
-90.14
-46.20
-3.53
30.89
53.02
62.17
60.48
51.46
38.56
24.28
10.05
-3.24
-14.92
-24.38
-31.06
-34.68
-35.60
-34.80
-33.45
-32.25
-30.99
-28.75
-24.57
-18.24
-10.76
-4.01
-0.05
-0.08
-3.90
-9.93
-15.84
-19.43
-19.33
-15.42
-8.72
-0.87
6.39
11.75
14.47
14.54
12.59
9.70
7.09
5.81
6.21
7.67
8.64
7.32
2.71
-4.32
-10.67
-11.72
-3.04
17.44
48.13
83.89
117.57
142.33
153.50
149.40
131.14
101.96
66.52
30.39
-0.63
-21.58
-29.72
-25.63
-13.12
2.21
15.08
22.56
24.76
24.12
23.68
25.58
30.30
36.91
43.82
49.50
52.92
53.61
51.67
47.76
43.08
39.27
37.92
40.10
45.97
54.69
64.73
74.18
81.13
83.94
81.55
73.77
61.58
46.98
32.41
19.90
10.24
2.85
-3.62
-10.30
-17.27
-23.46
-27.40
-28.20
-26.25
-23.08
-20.60
-20.13
-22.03
-25.82
-30.84
-36.77
-43.72
-51.73
-60.13
-67.27
-70.79
-68.56
-59.67
-45.12
-27.59
-10.60
2.66
10.38
12.42
9.98
4.87
-1.34
-7.68
-13.72
-19.22
-23.81
-26.89
-27.90
-26.69
-23.72
-19.99
-16.68
-14.71
-14.40
-15.50
-17.29
-19.01
-20.10
-20.43
-20.21
-19.84
-19.69
-19.85
-20.21
-20.47
-20.43
-20.09
-19.68
-19.52
-19.80
-20.40
-20.86
-20.56
-18.96
-15.85
-11.36
-5.96
-0.22
5.28
10.11
14.00
16.83
18.65
19.62
20.01
20.19
20.57
21.47
23.03
25.15
27.48
29.38
30.22
29.54
27.31
23.96
20.29
17.08
14.80
13.47
12.68
11.89
10.75
9.21
7.52
5.94
4.58
3.33
1.97
0.34
-1.48
-3.29
-4.81
-5.96
-6.83
-7.67
-8.80
-10.48
-12.77
-15.51
-18.38
-20.89
-22.53
-22.92
-21.84
-19.40
-15.91
-11.81
-7.57
-3.53
0.13
3.38
6.23
8.71
10.80
12.46
13.68
14.44
14.80
14.80
14.50
13.89
13.02
11.92
10.70
9.45
8.23
7.07
5.94
4.84
3.78
2.80
1.94
1.17
0.44
-0.31
-1.11
-1.94
-2.73
-3.36
-3.72
-3.69
-3.25
-2.50
-1.72
-1.32
-1.73
-3.18
-5.62
-8.64
-11.74
-14.37
-16.20
-17.11
-17.12
-16.32
-14.83
-12.78
-10.34
-7.71
-5.03
-2.42
0.18
2.79
5.36
7.75
9.66
10.82
11.09
10.56
9.52
8.36
7.35
6.56
5.80
4.82
3.44
1.69
-0.16
-1.79
-3.02
-3.89
-4.61
-5.39
-6.31
-7.26
-8.00
-8.42
-8.55
-8.60
-8.75
-9.06
-9.44
-9.75
-9.93
-10.05
-10.30
-10.82
-11.64
-12.68
-13.80
-14.93
-16.11
-17.38
-18.74
-20.04
-21.05
-21.47
-21.12
-20.00
-18.15
-15.70
-12.72
-9.26
-5.45
-1.55
1.99
4.65
6.00
5.83
4.27
1.60
-1.80
-5.72
-10.05
-14.76
-19.74
-24.67
-29.10
-32.51
-34.43
-34.53
-32.67
-28.95
-23.77
-17.80
-11.83
-6.55
-2.30
1.06
4.02
7.19
11.02
15.69
21.08
26.83
32.43
37.26
40.70
42.26
41.76
39.45
35.89
31.70
27.28
22.70
17.85
12.64
7.27
2.21
-2.01
-5.00
-6.69
-7.24
-6.93
-6.04
-4.72
-3.08
-1.26
0.53
2.04
3.11
3.67
3.81
3.72
3.60
3.54
3.52
3.39
2.99
2.22
1.10
-0.26
-1.61
-2.71
-3.39
-3.57
-3.35
-3.00
-2.85
-3.16
-3.97
-5.07
-6.08
-6.65
-6.69
-6.37
-6.09
-6.20
-6.82
-7.82
-8.86
-9.67
-10.14
-10.40
-10.66
-11.14
-11.90
-12.91
-14.07
-15.27
-16.43
-17.35
-17.81
-17.50
-16.12
-13.57
-9.98
-5.75
-1.48
2.23
4.99
6.63
7.33
7.42
7.23
6.98
6.75
6.48
6.03
5.37
4.53
3.66
2.94
2.49
2.29
2.20
2.00
1.51
0.72
-0.24
-1.13
-1.75
-2.09
-2.26
-2.45
-2.79
-3.27
-3.76
-4.16
-4.42
-4.65
-5.01
-5.67
-6.68
-7.97
-9.32
-10.54
-11.51
-12.29
-13.07
-14.11
-15.61
-17.48
-19.36
-20.67
-20.85
-19.60
-17.02
-13.51
-9.69
-6.06
-2.95
-0.45
1.49
2.93
3.91
4.44
4.54
4.32
3.88
3.37
2.88
2.43
1.99
1.48
0.84
0.09
-0.71
-1.40
-1.84
-1.96
-1.74
-1.28
-0.74
-0.25
0.12
0.38
0.59
0.79
0.90
0.80
0.37
-0.43
-1.41
-2.28
-2.72
-2.64
-2.19
-1.84
-2.09
-3.28
-5.37
-7.97
-10.44
-12.17
-12.77
-12.15
-10.50
-8.12
-5.35
-2.45
0.34
2.85
4.96
6.54
7.59
8.16
8.31
8.17
7.82
7.32
6.68
5.89
4.94
3.88
2.85
2.03
1.59
1.59
1.92
2.32
2.50
2.23
1.45
0.29
-1.03
-2.31
-3.41
-4.30
-5.04
-5.72
-6.42
-7.24
-8.23
-9.36
-10.57
-11.83
-13.18
-14.79
-16.85
-19.38
-22.16
-24.69
-26.34
-26.64
-25.42
-22.93
-19.63
-15.95
-12.20
-8.45
-4.73
-1.11
2.24
5.12
7.40
9.12
10.48
11.71
12.95
14.20
15.33
16.14
16.51
16.35
15.66
14.41
12.60
10.32
7.71
5.06
2.68
0.76
-0.62
-1.59
-2.29
-2.86
-3.34
-3.71
-3.95
-4.15
-4.46
-5.09
-6.14
-7.58
-9.32
-11.24
-13.34
-15.70
-18.42
-21.52
-24.75
-27.67
-29.69
-30.27
-29.13
-26.25
-21.92
-16.58
-10.73
-4.82
0.73
5.62
9.65
12.77
15.10
16.82
18.18
19.32
20.29
21.04
21.50
21.60
21.36
20.85
20.18
19.44
18.70
17.97
17.24
16.45
15.55
14.51
13.36
12.17
10.97
9.80
8.61
7.35
5.96
4.46
2.90
1.32
-0.30
-1.99
-3.84
-5.87
-8.04
-10.28
-12.50
-14.67
-16.72
-18.59
-20.10
-21.00
-21.01
-19.93
-17.67
-14.31
-10.06
-5.18
-0.01
5.14
9.92
14.04
17.30
19.58
20.94
21.59
21.82
21.95
22.17
22.54
22.94
23.19
23.11
22.66
21.90
21.00
20.13
19.33
18.56
17.66
16.49
15.06
13.46
11.91
10.59
9.57
8.74
7.86
6.72
5.22
3.45
1.59
-0.16
-1.73
-3.23
-4.91
-7.04
-9.81
-13.21
-16.97
-20.67
-23.75
-25.69
-26.19
-25.17
-22.71
-19.00
-14.23
-8.53
-2.07
4.82
11.64
17.74
22.54
25.74
27.45
28.16
28.54
29.12
30.14
31.45
32.61
33.06
32.35
30.15
26.41
21.30
15.26
9.00
3.39
-0.80
-3.19
-4.07
-4.39
-5.39
-8.05
-12.62
-18.39
-24.05
-28.27
-30.34
-30.51
-29.82
-29.56
-30.68
-33.34
-36.92
-40.49
-43.27
-45.01
-46.01
-46.82
-47.72
-48.39
-47.99
-45.52
-40.36
-32.72
-23.59
-14.34
-6.13
0.59
6.06
10.89
15.54
19.98
23.77
26.43
27.84
28.41
28.85
29.74
31.25
33.01
34.40
34.90
34.35
32.99
31.29
29.74
28.69
28.25
28.38
28.83
29.30
29.45
29.08
28.20
27.06
26.03
25.43
25.36
25.67
26.06
26.22
25.96
25.24
24.17
22.95
21.86
21.22
21.29
22.18
23.65
25.11
25.80
25.10
22.79
19.23
15.12
11.22
8.01
5.57
3.65
1.87
-0.05
-2.26
-4.77
-7.52
-10.54
-13.99
-18.10
-23.10
-29.09
-35.84
-42.86
-49.48
-55.13
-59.57
-62.90
-65.44
-67.43
-68.91
-69.69
-69.45
-68.01
-65.38
-61.81
-57.56
-52.86
-47.76
-42.22
-36.24
-29.95
-23.64
-17.70
-12.56
-8.45
-5.32
-2.86
-0.56
2.04
5.18
8.81
12.72
16.71
20.72
24.88
29.26
33.72
37.74
40.57
41.57
40.52
37.83
34.37
31.19
29.13
28.57
29.32
30.71
31.82
31.76
30.04
26.69
22.34
17.93
14.36
12.10
11.02
10.56
10.12
9.39
8.51
7.94
8.13
9.27
11.25
13.76
16.46
19.07
21.35
23.18
24.37
24.86
24.69
24.05
23.27
22.66
22.43
22.65
23.27
24.15
25.07
25.83
26.17
25.92
25.08
23.85
22.64
21.96
22.14
23.32
25.33
27.85
30.57
33.30
36.04
38.88
41.88
44.95
47.76
49.89
50.89
50.53
48.88
46.28
43.20
40.06
37.07
34.27
31.67
29.35
27.57
26.64
26.69
27.62
29.01
30.41
31.47
32.21
32.97
34.26
36.59
40.31
45.55
52.18
59.88
68.14
76.39
84.05
90.63
95.69
98.75
99.19
96.36
89.70
78.87
63.76
44.50
21.49
-4.40
-31.65
-58.28
-82.26
-102.17
-117.57
-128.98
-137.52
-144.29
-149.99
-154.76
-158.23
-159.76
-158.66
-154.42
-147.01
-137.16
-126.37
-116.63
-109.84
-107.04
-108.04
-111.61
-115.86
-118.87
-119.09
-115.56
-107.97
-96.77
-83.07
-68.40
-54.19
-41.43
-30.36
-20.59
-11.32
-1.87
7.98
17.85
26.90
34.25
39.46
42.67
44.56
46.03
47.69
49.68
51.72
53.35
54.25
54.41
54.09
53.59
53.09
52.53
51.72
50.48
48.68
46.22
43.01
38.90
33.77
27.61
20.75
13.80
7.59
2.91
0.14
-1.10
-1.90
-3.85
-8.37
-16.16
-26.79
-38.79
-50.14
-58.96
-64.04
-65.15
-62.85
-58.12
-52.03
-45.33
-38.39
-31.19
-23.46
-14.91
-5.49
4.48
14.27
22.86
29.28
32.87
33.47
31.45
27.62
22.93
18.30
14.36
11.41
9.46
8.28
7.62
7.32
7.37
7.94
9.26
11.53
14.75
18.68
22.85
26.65
29.46
30.86
30.68
29.07
26.43
23.24
20.02
17.10
14.62
12.46
10.40
8.17
5.68
3.04
0.54
-1.47
-2.76
-3.33
-3.38
-3.19
-3.03
-3.00
-3.12
-3.37
-3.79
-4.47
-5.47
-6.75
-8.17
-9.49
-10.52
-11.15
-11.41
-11.48
-11.60
-12.05
-13.04
-14.64
-16.75
-19.03
-21.02
-22.22
-22.30
-21.16
-18.95
-16.02
-12.74
-9.40
-6.23
-3.40
-1.07
0.64
1.69
2.18
2.32
2.32
2.28
2.13
1.71
0.87
-0.35
-1.73
-2.88
-3.53
-3.58
-3.19
-2.65
-2.22
-2.06
-2.15
-2.42
-2.80
-3.27
-3.83
-4.48
-5.14
-5.72
-6.12
-6.31
-6.33
-6.30
-6.38
-6.69
-7.29
-8.18
-9.33
-10.69
-12.18
-13.71
-15.15
-16.29
-16.93
-16.83
-15.89
-14.08
-11.53
-8.42
-5.03
-1.60
1.61
4.41
6.66
8.30
9.41
10.14
10.68
11.19
11.73
12.31
12.89
13.47
14.03
14.55
14.92
14.94
14.40
13.15
11.15
8.51
5.49
2.38
-0.50
-2.87
-4.58
-5.59
-6.05
-6.25
-6.58
-7.39
-8.93
-11.26
-14.19
-17.40
-20.40
-22.80
-24.31
-24.92
-24.85
-24.48
-24.13
-23.94
-23.78
-23.32
-22.20
-20.22
-17.33
-13.74
-9.78
-5.79
-2.08
1.16
3.84
6.02
7.79
9.31
10.69
11.92
12.91
13.57
13.85
13.79
13.55
13.30
13.11
12.92
12.64
12.17
11.53
10.84
10.23
9.75
9.31
8.74
7.88
6.72
5.39
4.08
2.94
1.94
0.96
-0.16
-1.51
-3.08
-4.76
-6.46
-8.12
-9.79
-11.52
-13.37
-15.30
-17.11
-18.51
-19.17
-18.90
-17.67
-15.65
-13.18
-10.53
-7.87
-5.21
-2.50
0.24
2.87
5.08
6.59
7.30
7.35
7.13
7.03
7.31
7.92
8.57
8.87
8.55
7.61
6.30
4.93
3.69
2.52
1.23
-0.36
-2.23
-4.08
-5.68
-7.09
-9.01
-12.52
-18.72
-28.10
-40.52
-55.70
-73.81
-95.68
-122.07
-152.65
-184.83
-213.79
-233.49
-238.74
-227.12
-199.63
-160.09
-113.46
-64.33
-16.16
28.43
67.28
98.61
121.53
136.70
146.38
153.63
160.85
168.69
175.61
178.71
175.36
164.77
148.63
130.53
114.53
103.59
98.61
98.33
100.21
101.63
101.06
98.43
94.80
91.48
89.18
87.68
86.17
83.95
80.96
77.74
74.89
72.36
69.21
63.87
54.87
41.51
24.26
4.53
-15.86
-35.23
-52.46
-67.06
-79.07
-88.83
-96.70
-102.89
-107.36
-109.90
-110.38
-108.96
-106.20
-102.91
-99.86
-97.36
-95.19
-92.65
-89.01
-83.91
-77.65
-71.09
-65.36
-61.39
-59.56
-59.59
-60.75
-62.17
-63.24
-63.76
-63.72
-62.99
-61.07
-57.10
-50.43
-40.97
-29.18
-15.64
-0.63
15.86
33.65
51.53
66.82
75.39
72.93
56.67
26.88
-13.16
-58.46
-104.31
-147.87
-188.05
-224.90
-258.04
-285.69
-304.54
-311.00
-302.84
-280.00
-244.39
-197.78
-142.13
-79.69
-13.52
52.41
113.33
164.52
202.96
227.99
243.21
252.60
258.56
261.41
260.95
257.57
252.68
248.89
248.10
253.64
265.52
280.42
293.56
302.36
307.08
310.22
315.78
326.01
344.29
369.13
394.21
410.65
412.42
397.96
370.64
337.99
281.37
196.40
94.21
-5.16
-88.60
-153.77
-202.89
-245.67
-285.96
-323.57
-352.37
-368.26
-366.16
-346.16
-304.75
-247.23
-187.05
-138.02
-108.03
-93.81
-88.63
-86.58
-86.85
-89.82
-96.18
-105.22
-114.19
-120.85
-120.48
-112.12
-97.69
-81.39
-66.64
-55.98
-50.05
-47.08
-44.68
-40.08
-32.51
-22.88
-13.54
-6.39
-2.76
-2.60
-4.32
-5.94
-5.69
-3.28
0.50
4.12
6.37
6.53
4.77
2.10
-0.33
-1.77
-2.27
-2.33
-2.65
-3.69
-5.67
-8.38
-11.30
-13.80
-15.39
-16.00
-15.92
-15.78
-16.38
-18.41
-22.20
-27.50
-33.41
-38.66
-42.10
-43.22
-42.52
-41.35
-41.32
-43.48
-47.71
-52.54
-55.93
-56.21
-53.13
-48.11
-43.75
-42.72
-46.58
-54.91
-65.38
-74.49
-78.75
-75.83
-65.58
-50.63
-36.15
-28.63
-34.00
-55.14
-90.17
-132.30
-171.45
-197.25
-202.48
-185.52
-151.16
-108.90
-69.47
-40.87
-25.41
-19.03
-13.36
0.56
28.30
