1.592941276000000000e+09
-2.999999999999999889e-02
5.059999999999999609e+00
1.791000000000000014e+01
7.934000000000000341e+01
2.282500000000000000e+02
-4.865000000000000000e+02
-6.589999999999999858e+00
1.540500000000000114e+02
3.889000000000000057e+01
-2.046999999999999886e+01
7.801000000000000512e+01
1.742999999999999972e+01
1.542999999999999972e+01
1.531000000000000050e+01
-1.376999999999999957e+01
-2.383999999999999986e+01
-2.855000000000000071e+01
-1.559999999999999964e+01
1.336999999999999922e+01
9.859999999999999432e+00
6.969999999999999751e+00
-3.995000000000000284e+01
2.141000000000000014e+01
-1.549000000000000021e+01
-1.730000000000000071e+01
8.412999999999999545e+01
1.929999999999999938e+00
8.556000000000000227e+01
-4.050999999999999801e+01
-8.540000000000000568e+01
-3.689999999999999858e+01
8.259999999999999787e+00
5.165999999999999659e+01
1.076999999999999957e+01
3.852000000000000313e+01
-6.559999999999999609e+00
-1.405399999999999920e+02
-3.843999999999999773e+01
6.296000000000000085e+01
3.803999999999999915e+01
-8.730000000000000426e+00
1.386999999999999922e+01
-4.317999999999999972e+01
-8.140000000000000568e+00
5.400000000000000355e+00
-1.780000000000000027e+00
1.402999999999999936e+01
-3.403999999999999915e+01
-1.912999999999999901e+01
5.929999999999999716e+00
4.353999999999999915e+01
-2.396000000000000085e+01
1.407000000000000028e+01
-7.756999999999999318e+01
1.059999999999999964e+01
-4.549999999999999822e+00
-7.279000000000000625e+01
1.171899999999999977e+02
7.779000000000000625e+01
-6.493999999999999773e+01
-6.984999999999999432e+01
4.078999999999999915e+01
3.535999999999999943e+01
-1.583000000000000007e+01
3.738000000000000256e+01
3.500000000000000000e+00
-1.301200000000000045e+02
3.895000000000000284e+01
-2.442999999999999972e+01
-3.574000000000000199e+01
-4.120000000000000107e+00
2.910000000000000142e+00
-1.086999999999999922e+01
1.035699999999999932e+02
1.204599999999999937e+02
1.321000000000000085e+01
-5.129999999999999893e+00
-1.303000000000000114e+02
9.290999999999999659e+01
6.846999999999999886e+01
1.557000000000000028e+01
-4.975000000000000000e+01
-1.676800000000000068e+02
-1.461800000000000068e+02
2.232899999999999920e+02
2.600000000000000089e+00
-6.740000000000000213e+00
1.081700000000000017e+02
-1.488000000000000114e+02
2.901000000000000156e+01
2.446999999999999886e+01
-6.781999999999999318e+01
8.589999999999999858e+00
-1.449999999999999956e+00
-1.467999999999999972e+01
2.899999999999999800e-01
5.860999999999999943e+01
-5.620000000000000107e+00
7.492000000000000171e+01
-2.605000000000000071e+01
-2.669999999999999929e+00
3.542999999999999972e+01
2.400000000000000000e+01
-2.301999999999999957e+01
-4.772999999999999687e+01
-1.418999999999999950e+01
1.205000000000000071e+01
4.260999999999999943e+01
-4.325000000000000000e+01
1.461999999999999922e+01
-3.265999999999999659e+01
7.315000000000000568e+01
-1.115000000000000036e+01
-1.758999999999999986e+01
-6.030000000000000249e+00
4.214999999999999858e+01
-8.820000000000000284e+00
-7.221999999999999886e+01
1.385999999999999943e+01
2.928999999999999915e+01
-7.621999999999999886e+01
1.250799999999999983e+02
7.156000000000000227e+01
-6.873999999999999488e+01
-7.495999999999999375e+01
-5.999999999999999778e-02
3.709999999999999964e+00
3.071999999999999886e+01
8.284000000000000341e+01
-4.914000000000000057e+01
7.306000000000000227e+01
-2.290200000000000102e+02
-3.971000000000000085e+01
-5.328000000000000114e+01
4.660999999999999943e+01
7.589999999999999858e+00
6.856000000000000227e+01
-1.669499999999999886e+02
-3.609999999999999876e+00
2.694999999999999929e+01
4.725999999999999801e+01
-1.300999999999999979e+01
-5.935999999999999943e+01
-5.009000000000000341e+01
1.790000000000000000e+02
-5.515999999999999659e+01
5.447999999999999687e+01
-1.036599999999999966e+02
-3.274000000000000199e+01
9.165999999999999659e+01
-1.687000000000000099e+01
-3.693999999999999773e+01
1.765200000000000102e+02
-2.098199999999999932e+02
-1.440999999999999943e+02
1.978999999999999915e+01
1.293300000000000125e+02
4.699999999999999734e-01
4.019999999999999574e+00
2.826999999999999957e+01
-6.040000000000000036e+00
-1.348300000000000125e+02
-2.737999999999999901e+01
3.932999999999999829e+01
6.776000000000000512e+01
1.494999999999999929e+01
1.102399999999999949e+02
-1.962000000000000099e+01
4.209999999999999964e+00
1.264599999999999937e+02
1.251500000000000057e+02
-1.746000000000000085e+01
-2.335300000000000011e+02
-1.145100000000000051e+02
6.818000000000000682e+01
6.011999999999999744e+01
1.062800000000000011e+02
-8.939000000000000057e+01
-6.149000000000000199e+01
2.569000000000000128e+01
2.219999999999999929e+01
7.893000000000000682e+01
-2.119000000000000128e+01
-2.655999999999999872e+01
2.540000000000000036e+00
1.263000000000000078e+01
-1.085600000000000023e+02
-1.539600000000000080e+02
2.178300000000000125e+02
2.683100000000000023e+02
-1.019599999999999937e+02
-5.032000000000000028e+01
-4.381000000000000227e+01
-8.839000000000000057e+01
-6.812999999999999545e+01
1.361399999999999864e+02
1.116700000000000017e+02
1.474000000000000021e+01
3.569999999999999840e+00
1.469999999999999973e+00
-6.875000000000000000e+01
-4.950000000000000000e+01
1.179999999999999938e+00
-4.399000000000000199e+01
3.757000000000000028e+01
5.350000000000000000e+01
-3.299999999999999822e+00
3.160999999999999943e+01
4.139999999999999680e+00
-1.802599999999999909e+02
-1.050900000000000034e+02
2.846000000000000085e+01
1.847800000000000011e+02
2.318100000000000023e+02
5.827000000000000313e+01
-2.315200000000000102e+02
-2.103000000000000114e+01
-7.053000000000000114e+01
-7.715999999999999659e+01
9.318999999999999773e+01
-2.646000000000000085e+01
2.735999999999999943e+01
-2.317000000000000171e+01
2.361800000000000068e+02
2.713100000000000023e+02
-3.280699999999999932e+02
2.135200000000000102e+02
4.545000000000000284e+01
-9.054000000000000625e+01
1.286999999999999922e+01
-6.110000000000000320e+00
-2.548000000000000043e+01
-1.542199999999999989e+02
-1.295800000000000125e+02
-1.994499999999999886e+02
4.260099999999999909e+02
2.165399999999999920e+02
-1.539799999999999898e+02
1.036200000000000045e+02
-6.078000000000000114e+01
-2.421999999999999886e+01
1.083400000000000034e+02
2.319000000000000128e+01
9.917000000000000171e+01
-9.887999999999999545e+01
-2.951800000000000068e+02
1.610500000000000114e+02
3.896999999999999886e+01
-1.716200000000000045e+02
6.329999999999999716e+01
2.100000000000000000e+01
2.828999999999999915e+01
-1.610000000000000098e+00
-1.639999999999999902e+00
-5.500000000000000000e+01
8.807999999999999829e+01
-7.000000000000000000e+01
7.445000000000000284e+01
-1.263599999999999994e+02
-9.210000000000000853e+00
-1.903000000000000114e+01
-1.371000000000000085e+01
1.820000000000000062e+00
6.673999999999999488e+01
-4.979999999999999716e+01
1.191000000000000014e+01
7.078000000000000114e+01
-1.187900000000000063e+02
-5.929999999999999716e+00
-1.005000000000000071e+01
-3.378000000000000114e+01
-1.421000000000000085e+01
1.236999999999999922e+01
9.650000000000000000e+01
1.876000000000000156e+01
-9.900000000000000000e+01
-5.082000000000000028e+01
-1.020000000000000018e+00
6.190000000000000391e+00
4.900000000000000355e+00
2.020000000000000018e+00
-1.323000000000000043e+01
-1.058999999999999986e+01
6.410000000000000142e+00
-9.880000000000000782e+00
2.740000000000000213e+00
6.240000000000000213e+00
-1.148000000000000043e+01
1.050000000000000000e+01
7.429999999999999716e+00
-1.413000000000000078e+01
1.543999999999999950e+01
1.440000000000000036e+01
-4.959999999999999964e+00
2.512000000000000099e+01
1.141000000000000014e+01
-2.101999999999999957e+01
-3.029999999999999805e+00
-2.948999999999999844e+01
-1.091000000000000014e+01
4.621999999999999886e+01
-2.816000000000000014e+01
-1.848999999999999844e+01
-2.939999999999999858e+01
-9.419999999999999929e+00
1.335999999999999943e+01
1.515000000000000036e+01
1.050000000000000044e+00
-1.967000000000000171e+01
2.026999999999999957e+01
2.787999999999999901e+01
-1.150000000000000000e+01
-2.589000000000000057e+01
5.730000000000000426e+00
9.200000000000000400e-01
-1.864000000000000057e+01
3.640000000000000124e+00
-3.939999999999999947e+00
-3.399999999999999911e+00
-2.600000000000000089e-01
7.440000000000000391e+00
-3.359999999999999876e+00
-2.800000000000000266e-01
5.559999999999999609e+00
-4.870000000000000107e+00
-8.009999999999999787e+00
5.769999999999999574e+00
-9.269999999999999574e+00
-9.400000000000000355e+00
1.150000000000000000e+01
-4.589999999999999858e+00
-3.180000000000000160e+00
1.098000000000000043e+01
-1.510999999999999943e+01
-5.929999999999999716e+00
-6.040000000000000036e+00
-4.014999999999999858e+01
9.640000000000000568e+00
3.110500000000000114e+02
-7.821999999999999886e+01
-1.194200000000000017e+02
6.915000000000000568e+01
7.104999999999999716e+01
-4.910000000000000142e+00
-8.150000000000000000e+01
3.381000000000000227e+01
7.579000000000000625e+01
-6.229999999999999716e+01
-1.461999999999999922e+01
1.003100000000000023e+02
-9.590999999999999659e+01
-3.720000000000000195e+00
-1.039500000000000028e+02
4.686999999999999744e+01
-7.040000000000000568e+01
1.671999999999999886e+01
-8.501000000000000512e+01
3.957000000000000028e+01
7.518000000000000682e+01
-1.215799999999999983e+02
-8.434000000000000341e+01
-1.022000000000000064e+01
4.350999999999999801e+01
2.328000000000000114e+01
3.786999999999999744e+01
4.875000000000000000e+01
-7.814000000000000057e+01
-3.407000000000000028e+01
-1.848000000000000043e+01
2.812999999999999901e+01
1.152999999999999936e+01
-1.063000000000000078e+01
6.089999999999999858e+00
1.394999999999999929e+01
1.260000000000000009e+00
-9.650000000000000355e+00
1.050000000000000000e+01
6.800000000000000488e-01
-1.511999999999999922e+01
2.879999999999999893e+00
7.769999999999999574e+00
-8.699999999999999956e-01
-1.343999999999999950e+01
7.690000000000000391e+00
5.900000000000000355e+00
-3.850000000000000089e+00
-5.980000000000000426e+00
5.299999999999999822e+00
-8.039999999999999147e+00
-5.621999999999999886e+01
6.592000000000000171e+01
-2.029999999999999805e+00
-1.795800000000000125e+02
3.913000000000000256e+01
1.681399999999999864e+02
1.281299999999999955e+02
-2.164000000000000057e+01
2.782000000000000028e+01
1.168199999999999932e+02
-1.808700000000000045e+02
-1.507000000000000028e+01
7.692000000000000171e+01
-2.598999999999999844e+01
-1.641000000000000014e+01
-7.820000000000000284e+00
-1.912000000000000099e+01
1.008999999999999986e+01
3.379999999999999893e+00
-1.418999999999999950e+01
8.339999999999999858e+00
4.500000000000000111e-01
-1.800000000000000000e+01
1.550999999999999979e+01
1.550000000000000000e+01
-1.760000000000000009e+00
1.709999999999999964e+00
-1.051999999999999957e+01
-6.780000000000000249e+00
-1.391000000000000014e+01
1.773999999999999844e+01
1.928000000000000114e+01
-1.750000000000000000e+00
-3.069999999999999840e+00
-1.144999999999999929e+01
-1.946000000000000085e+01
1.424000000000000021e+01
1.383999999999999986e+01
-4.000000000000000222e-01
-1.486999999999999922e+01
9.279999999999999361e+00
-5.600000000000000533e-01
-2.098999999999999844e+01
1.125999999999999979e+01
6.290000000000000036e+00
-1.600000000000000000e+01
5.679999999999999716e+00
1.083000000000000007e+01
-7.269999999999999574e+00
-1.101999999999999957e+01
2.176999999999999957e+01
2.549999999999999822e+00
-2.085000000000000142e+01
2.360000000000000142e+01
7.160000000000000142e+00
-1.532000000000000028e+01
8.800000000000000711e+00
5.400000000000000355e+00
-1.107000000000000028e+01
5.230000000000000426e+00
7.009999999999999787e+00
-6.480000000000000426e+00
-7.549999999999999822e+00
-2.999999999999999889e-02
-3.385999999999999943e+01
5.060000000000000142e+01
1.445200000000000102e+02
-1.302299999999999898e+02
1.862999999999999901e+01
8.580000000000000071e+00
-1.621599999999999966e+02
1.780000000000000027e+00
1.028999999999999915e+01
-1.879999999999999893e+00
1.473000000000000043e+01
1.199999999999999956e-01
-2.669999999999999929e+00
-5.049000000000000199e+01
5.799999999999999600e-01
4.850000000000000000e+01
1.378999999999999915e+01
1.721999999999999886e+01
1.329199999999999875e+02
7.600000000000000089e-01
-4.620000000000000000e+02
1.239000000000000057e+02
4.861999999999999744e+01
1.776000000000000156e+01
1.522000000000000064e+01
-6.975000000000000000e+01
1.424000000000000021e+01
3.753000000000000114e+01
1.068299999999999983e+02
-1.617999999999999972e+01
-6.579000000000000625e+01
-8.320000000000000284e+00
-5.634000000000000341e+01
9.396999999999999886e+01
-3.569999999999999840e+00
9.620999999999999375e+01
-4.104999999999999716e+01
-5.815999999999999659e+01
-1.022500000000000000e+02
4.756000000000000227e+01
1.882700000000000102e+02
-6.367999999999999972e+01
1.407500000000000000e+02
1.065499999999999972e+02
-4.677900000000000205e+02
-2.628899999999999864e+02
4.064200000000000159e+02
3.439999999999999858e+01
-8.590000000000000568e+01
5.549999999999999822e+00
1.341100000000000136e+02
-2.039999999999999858e+01
-7.029999999999999716e+01
4.129999999999999716e+01
5.969999999999999751e+00
-3.274000000000000199e+01
-5.700000000000000178e+00
2.923999999999999844e+01
5.219999999999999751e+00
-1.175000000000000000e+01
-4.240000000000000213e+00
8.949999999999999289e+00
-1.964999999999999858e+01
4.756000000000000227e+01
-3.764999999999999858e+01
1.000000000000000000e+01
2.133999999999999986e+01
-8.679999999999999716e+00
7.000000000000000666e-02
1.241999999999999993e+01
-2.600000000000000089e+00
-1.158999999999999986e+01
1.271000000000000085e+01
-4.150000000000000355e+00
-2.083999999999999986e+01
1.507000000000000028e+01
7.719999999999999751e+00
-2.712999999999999901e+01
1.134999999999999964e+01
4.120000000000000107e+00
-3.317000000000000171e+01
2.682000000000000028e+01
1.907000000000000028e+01
-8.330000000000000071e+00
8.550000000000000711e+00
7.660000000000000142e+00
-7.389999999999999680e+00
-1.787999999999999901e+01
1.685000000000000142e+01
4.559999999999999609e+00
-1.442999999999999972e+01
9.970000000000000639e+00
6.099999999999999645e+00
-7.440000000000000391e+00
-1.251999999999999957e+01
8.869999999999999218e+00
9.799999999999999822e-01
-1.678000000000000114e+01
1.508999999999999986e+01
4.690000000000000391e+00
-1.205000000000000071e+01
1.379999999999999893e+00
5.759999999999999787e+00
-4.250000000000000000e+00
-7.580000000000000071e+00
1.025999999999999979e+01
1.699999999999999956e+00
1.049000000000000021e+01
9.112999999999999545e+01
-1.054000000000000057e+02
-1.173100000000000023e+02
5.653000000000000114e+01
3.864999999999999858e+01
1.766000000000000014e+01
-8.919999999999999929e+00
-1.068999999999999950e+01
-1.525000000000000000e+01
1.942000000000000171e+01
1.008400000000000034e+02
2.594999999999999929e+01
2.250000000000000000e+00
-2.326999999999999957e+01
1.525999999999999979e+01
4.019999999999999574e+00
5.500000000000000444e-01
1.714000000000000057e+01
-1.189999999999999947e+00
-1.008000000000000007e+01
-1.270000000000000018e+00
-3.028999999999999915e+01
4.345000000000000284e+01
-3.203000000000000114e+01
1.059999999999999964e+01
-5.669999999999999929e+00
4.570000000000000284e+00
5.563000000000000256e+01
-2.640000000000000124e+00
-2.921000000000000085e+01
1.351999999999999957e+01
-9.200000000000000400e-01
-2.139000000000000057e+01
1.625000000000000000e+01
9.179999999999999716e+00
-8.900000000000000355e+00
1.050000000000000000e+01
9.539999999999999147e+00
-4.389999999999999680e+00
2.509999999999999787e+00
5.940000000000000391e+00
-4.480000000000000426e+00
-1.580000000000000071e+00
3.080000000000000071e+00
-5.059999999999999609e+00
-4.629999999999999893e+00
4.469999999999999751e+00
-9.669999999999999929e+00
-6.320000000000000284e+00
3.750000000000000000e+00
1.610000000000000098e+00
-5.919999999999999929e+00
6.370000000000000107e+00
-3.700000000000000178e+00
-8.660000000000000142e+00
2.540000000000000036e+00
-8.109999999999999432e+00
-1.005000000000000071e+01
6.059999999999999609e+00
-9.910000000000000142e+00
-1.452999999999999936e+01
1.349000000000000021e+01
4.480000000000000426e+00
-9.470000000000000639e+00
2.075000000000000000e+01
5.339999999999999858e+00
-1.577999999999999936e+01
2.137999999999999901e+01
1.161999999999999922e+01
-3.452000000000000313e+01
3.528999999999999915e+01
1.930999999999999872e+01
2.750000000000000000e+00
9.130000000000000782e+00
1.560399999999999920e+02
-6.152000000000000313e+01
-8.268999999999999773e+01
2.391000000000000014e+01
8.859999999999999432e+00
-1.008000000000000007e+01
6.530000000000000249e+00
9.650000000000000355e+00
-2.498000000000000043e+01
-1.648000000000000043e+01
-1.744000000000000128e+01
-1.782400000000000091e+02
2.635999999999999943e+01
2.150699999999999932e+02
-0.000000000000000000e+00
-1.521000000000000085e+01
1.810999999999999943e+01
2.939999999999999947e+00
-2.598000000000000043e+01
6.400000000000000355e+00
4.015999999999999659e+01
8.589999999999999858e+00
-3.246000000000000085e+01
-1.324000000000000021e+01
-4.942999999999999972e+01
-1.078700000000000045e+02
3.828799999999999955e+02
-8.768999999999999773e+01
-1.558700000000000045e+02
-1.782599999999999909e+02
4.347400000000000091e+02
1.266999999999999993e+01
-1.147900000000000063e+02
-8.001000000000000512e+01
-3.334000000000000341e+01
1.330000000000000071e+01
1.969999999999999973e+00
-1.603999999999999915e+01
1.335999999999999943e+01
-2.200000000000000011e-01
-3.092000000000000171e+01
-5.500000000000000444e-01
4.664000000000000057e+01
-2.332999999999999829e+01
2.709999999999999964e+00
2.750000000000000000e+00
-5.929999999999999716e+00
5.580000000000000071e+00
9.240000000000000213e+00
-1.322000000000000064e+01
-1.056000000000000050e+01
1.174000000000000021e+01
9.800000000000000711e+00
1.003999999999999915e+01
-9.268000000000000682e+01
6.471999999999999886e+01
6.480000000000000426e+00
1.450999999999999979e+01
-6.410000000000000142e+00
-1.839000000000000057e+01
5.999999999999999778e-02
2.130000000000000071e+01
-3.289000000000000057e+01
-5.849999999999999645e+00
-4.429999999999999716e+00
-1.930000000000000000e+02
2.074000000000000057e+02
2.121000000000000085e+01
-2.529999999999999805e+00
2.253999999999999915e+01
8.856000000000000227e+01
-2.223000000000000114e+02
1.031500000000000057e+02
1.671100000000000136e+02
4.603999999999999915e+01
-1.241999999999999993e+01
-1.440000000000000036e+01
4.559999999999999609e+00
1.570000000000000062e+00
4.729999999999999716e+01
1.472700000000000102e+02
-1.868300000000000125e+02
-3.624000000000000199e+01
1.604199999999999875e+02
-7.306999999999999318e+01
-2.726000000000000156e+01
-1.673000000000000043e+01
5.021999999999999886e+01
2.210999999999999943e+01
8.364000000000000057e+01
-1.656899999999999977e+02
6.174000000000000199e+01
1.394699999999999989e+02
4.760000000000000142e+01
-1.453999999999999915e+01
-2.048000000000000043e+01
4.017999999999999972e+01
5.331000000000000227e+01
1.045699999999999932e+02
1.330200000000000102e+02
-1.262999999999999972e+02
4.935999999999999943e+01
-8.676000000000000512e+01
1.398000000000000043e+01
-7.290000000000000036e+00
1.746000000000000085e+01
7.809999999999999609e+00
-3.379999999999999893e+00
-5.400000000000000355e+00
1.218999999999999950e+01
-1.280000000000000027e+00
-8.580000000000000071e+00
2.603999999999999915e+01
2.203999999999999915e+01
-4.079999999999999716e+01
-6.265999999999999659e+01
2.232000000000000028e+01
7.950000000000000178e+00
2.226999999999999957e+01
1.469999999999999973e+00
-2.160000000000000142e+01
4.185999999999999943e+01
5.070000000000000284e+00
-7.193999999999999773e+01
6.390999999999999659e+01
3.067000000000000171e+01
-4.729999999999999716e+01
2.869999999999999929e+01
9.712000000000000455e+01
1.660699999999999932e+02
-3.329100000000000250e+02
3.402000000000000313e+01
8.915000000000000568e+01
-1.209899999999999949e+02
7.428000000000000114e+01
-7.950000000000000000e+01
2.725000000000000000e+01
-2.017999999999999972e+01
8.599999999999999867e-01
-3.470000000000000195e+00
-1.032000000000000028e+01
8.289999999999999147e+00
-5.629999999999999893e+00
-1.509999999999999964e+01
1.764000000000000057e+01
2.890000000000000124e+00
-1.875000000000000000e+01
1.028999999999999915e+01
2.319999999999999840e+00
-1.249000000000000021e+01
1.257000000000000028e+01
1.340000000000000080e+00
-1.732999999999999829e+01
1.917000000000000171e+01
2.509999999999999787e+00
-1.941000000000000014e+01
1.812000000000000099e+01
1.515000000000000036e+01
-2.653999999999999915e+01
4.269999999999999574e+00
-1.350000000000000089e+00
-1.976000000000000156e+01
1.816000000000000014e+01
2.379999999999999893e+00
-2.298999999999999844e+01
-2.260000000000000142e+01
1.053299999999999983e+02
-1.029899999999999949e+02
8.431000000000000227e+01
-8.254999999999999716e+01
2.275000000000000000e+01
1.264000000000000057e+01
-5.410000000000000142e+00
9.869999999999999218e+00
9.199999999999999289e+00
1.464000000000000057e+01
1.291999999999999993e+01
-8.240000000000000213e+00
8.332999999999999829e+01
-8.337000000000000455e+01
-3.622999999999999687e+01
5.918999999999999773e+01
8.432999999999999829e+01
-3.685000000000000142e+01
-6.150000000000000355e+00
-3.889999999999999858e+01
4.417000000000000171e+01
1.168999999999999950e+01
1.524000000000000021e+01
-5.829999999999999716e+01
3.439999999999999858e+01
3.664000000000000057e+01
-8.199999999999999512e-01
-2.532999999999999829e+01
-4.580000000000000071e+00
-1.149999999999999911e+00
-9.419999999999999929e+00
5.530000000000000249e+00
6.709999999999999964e+00
-8.099999999999999645e+00
-2.089999999999999858e+00
1.049000000000000021e+01
-1.905000000000000071e+01
-4.730000000000000426e+00
1.751000000000000156e+01
-8.699999999999999956e-01
5.080000000000000071e+00
1.467999999999999972e+01
-4.607999999999999829e+01
-3.824000000000000199e+01
3.420000000000000284e+01
2.035999999999999943e+01
-1.844000000000000128e+01
4.834000000000000341e+01
-6.784000000000000341e+01
3.588000000000000256e+01
4.157000000000000028e+01
2.740000000000000213e+00
-6.349999999999999645e+00
-1.478999999999999915e+01
-3.643999999999999773e+01
3.417000000000000171e+01
-3.277000000000000313e+01
2.744000000000000128e+01
-1.059999999999999964e+01
9.582999999999999829e+01
-1.251299999999999955e+02
7.079000000000000625e+01
-3.510000000000000142e+01
-1.102999999999999936e+01
-5.240000000000000213e+00
-5.620000000000000107e+00
-4.534000000000000341e+01
-1.266500000000000057e+02
5.447999999999999687e+01
-1.350000000000000089e+00
5.671000000000000085e+01
-1.121000000000000085e+01
1.632700000000000102e+02
-5.827000000000000313e+01
4.214000000000000057e+01
1.094200000000000017e+02
-9.675000000000000000e+01
5.915999999999999659e+01
-3.953999999999999915e+01
-2.314999999999999858e+01
6.099999999999999645e+00
4.360999999999999943e+01
3.553000000000000114e+01
-1.869999999999999929e+01
-2.019999999999999929e+01
1.685000000000000142e+01
2.553999999999999915e+01
-6.839999999999999858e+00
1.027999999999999936e+01
-5.000000000000000000e-01
-1.313000000000000078e+01
8.859999999999999432e+00
-9.000000000000000222e-01
-1.830999999999999872e+01
1.131000000000000050e+01
5.080000000000000071e+00
-1.349000000000000021e+01
2.585999999999999943e+01
6.271999999999999886e+01
1.003199999999999932e+02
-2.816299999999999955e+02
6.268999999999999773e+01
-7.568999999999999773e+01
-9.259999999999999787e+00
1.255999999999999943e+02
1.820000000000000062e+00
-1.088499999999999943e+02
5.982000000000000028e+01
3.055999999999999872e+01
2.848999999999999844e+01
-1.169999999999999929e+00
-2.057000000000000028e+01
2.446999999999999886e+01
1.183999999999999986e+01
2.935000000000000142e+01
2.669999999999999929e+01
-1.950000000000000000e+01
4.052000000000000313e+01
-1.094999999999999929e+01
-1.116000000000000014e+01
5.288000000000000256e+01
-9.910000000000000142e+00
3.871000000000000085e+01
-3.290999999999999659e+01
4.114999999999999858e+01
1.729999999999999982e+00
2.250000000000000000e+00
-1.300000000000000044e+00
-8.080000000000000071e+00
-2.262000000000000099e+01
-3.379999999999999716e+01
4.390999999999999659e+01
1.051999999999999957e+01
-1.255000000000000071e+01
1.306000000000000050e+01
1.508999999999999986e+01
-4.740000000000000213e+00
-9.539999999999999147e+00
1.331000000000000050e+01
-3.200000000000000067e-01
-2.525000000000000000e+01
2.053999999999999915e+01
-1.820000000000000062e+00
-1.678000000000000114e+01
2.312999999999999901e+01
7.610000000000000320e+00
-2.655000000000000071e+01
9.259999999999999787e+00
2.890000000000000124e+00
-1.996000000000000085e+01
1.626999999999999957e+01
7.669999999999999929e+00
-1.499000000000000021e+01
1.258999999999999986e+01
1.069999999999999929e+01
-1.552999999999999936e+01
4.389999999999999680e+00
1.436999999999999922e+01
7.199999999999999734e-01
-1.243999999999999950e+01
1.687000000000000099e+01
5.999999999999999778e-02
-2.337000000000000099e+01
1.369999999999999929e+01
3.859999999999999876e+00
-1.864999999999999858e+01
1.280000000000000071e+01
1.560000000000000053e+00
4.980000000000000426e+00
6.954999999999999716e+01
1.519399999999999977e+02
-1.800200000000000102e+02
-1.015400000000000063e+02
-9.681000000000000227e+01
-2.039999999999999858e+01
1.224699999999999989e+02
-1.671999999999999886e+01
4.511999999999999744e+01
-1.165699999999999932e+02
4.595000000000000284e+01
-1.686999999999999886e+02
3.685000000000000142e+01
4.232000000000000028e+01
1.365000000000000036e+01
-6.310999999999999943e+01
1.333000000000000007e+01
-3.028000000000000114e+01
-7.349999999999999645e+00
-1.056000000000000050e+01
3.403000000000000114e+01
-2.680000000000000071e+01
8.448000000000000398e+01
5.668999999999999773e+01
-2.105000000000000071e+01
-1.536999999999999922e+01
-3.582000000000000028e+01
4.269999999999999574e+00
3.359999999999999876e+00
8.120000000000000284e+01
-5.471000000000000085e+01
-7.006000000000000227e+01
9.349999999999999645e+00
9.929999999999999716e+00
-4.032000000000000028e+01
-3.759999999999999787e+00
-9.890000000000000568e+00
-2.653000000000000114e+01
4.159000000000000341e+01
9.210000000000000853e+00
-1.792000000000000171e+01
2.285000000000000142e+01
-3.564000000000000057e+01
-3.942000000000000171e+01
2.553999999999999915e+01
7.299999999999999822e+00
-3.384000000000000341e+01
4.052000000000000313e+01
3.589999999999999858e+00
-2.532000000000000028e+01
-1.053999999999999915e+01
-8.789999999999999147e+00
6.100000000000000000e+01
-7.278000000000000114e+01
6.050999999999999801e+01
3.014000000000000057e+01
-4.788000000000000256e+01
1.008999999999999986e+01
-3.220000000000000195e+00
-2.791000000000000014e+01
-1.020000000000000018e+00
2.273999999999999844e+01
-4.639999999999999680e+00
-2.144000000000000128e+01
1.621000000000000085e+01
3.120000000000000107e+00
-9.769999999999999574e+00
-9.769999999999999574e+00
-2.328000000000000114e+01
-2.620000000000000107e+00
-4.780000000000000249e+00
1.741000000000000014e+01
7.800000000000000266e-01
-1.000999999999999979e+01
1.456000000000000050e+01
-1.093999999999999950e+01
-2.035000000000000142e+01
2.751000000000000156e+01
2.062000000000000099e+01
-1.481000000000000050e+01
-2.240000000000000213e+00
1.010000000000000009e+00
-1.883999999999999986e+01
4.628999999999999915e+01
-2.930000000000000160e+00
-2.408999999999999986e+01
5.650000000000000355e+00
9.449999999999999289e+00
8.100000000000000533e-01
-1.687999999999999901e+01
2.908999999999999986e+01
5.330000000000000071e+00
-1.623000000000000043e+01
1.342999999999999972e+01
4.459999999999999964e+00
-1.957000000000000028e+01
-1.308999999999999986e+01
2.894999999999999929e+01
-1.639000000000000057e+01
-4.088000000000000256e+01
2.573999999999999844e+01
5.080000000000000071e+00
-3.372999999999999687e+01
1.844000000000000128e+01
7.849999999999999645e+00
-1.574000000000000021e+01
1.016999999999999993e+01
2.001999999999999957e+01
1.370000000000000107e+00
-4.396999999999999886e+01
1.183000000000000007e+01
2.709999999999999964e+00
-1.439000000000000057e+01
3.180000000000000160e+00
-6.878000000000000114e+01
8.987000000000000455e+01
-3.988000000000000256e+01
-6.028000000000000114e+01
2.428000000000000114e+01
-4.009999999999999787e+00
9.699999999999999289e+00
1.423300000000000125e+02
2.412000000000000099e+01
5.468999999999999773e+01
-2.346000000000000085e+01
-6.856000000000000227e+01
-2.789999999999999858e+01
-2.021000000000000085e+01
1.010999999999999943e+01
2.396000000000000085e+01
-3.290000000000000036e+00
-1.181000000000000050e+01
1.191999999999999993e+01
-3.359999999999999876e+00
-1.632000000000000028e+01
8.359999999999999432e+00
-8.419999999999999929e+00
-1.737999999999999901e+01
5.830000000000000071e+00
-1.780000000000000071e+01
3.945000000000000284e+01
-3.080000000000000071e+00
-1.610000000000000098e+00
-6.820000000000000284e+00
-1.612000000000000099e+01
4.530000000000000249e+00
-3.270000000000000018e+00
-1.748000000000000043e+01
4.320000000000000284e+00
-2.500000000000000000e-01
-3.279999999999999805e+00
8.160000000000000142e+00
2.229999999999999982e+00
-1.478999999999999915e+01
5.120000000000000107e+00
5.059999999999999609e+00
-1.124000000000000021e+01
5.620000000000000107e+00
1.796999999999999886e+01
-1.989999999999999991e+00
-5.179999999999999716e+00
2.266000000000000014e+01
5.219999999999999751e+00
-2.271000000000000085e+01
3.260999999999999943e+01
-1.839000000000000057e+01
-4.839000000000000057e+01
2.841000000000000014e+01
2.944999999999999929e+01
2.128999999999999915e+01
-4.769999999999999574e+00
-6.968999999999999773e+01
-2.859999999999999876e+00
3.436999999999999744e+01
1.011999999999999922e+01
2.326999999999999957e+01
2.532999999999999829e+01
3.707000000000000028e+01
4.554999999999999716e+01
-4.400000000000000355e+00
-1.371599999999999966e+02
-4.142999999999999972e+01
5.335000000000000142e+01
1.380000000000000071e+01
-5.811999999999999744e+01
2.292999999999999972e+01
2.946000000000000085e+01
-2.759999999999999787e+00
-1.141000000000000014e+01
-6.230000000000000426e+00
-3.580000000000000071e+00
-6.299999999999999822e+00
-8.419999999999999929e+00
1.455000000000000071e+01
-7.389999999999999680e+00
-2.021999999999999886e+01
1.378999999999999915e+01
4.080000000000000071e+00
-1.917000000000000171e+01
7.030000000000000249e+00
-7.089999999999999858e+00
-1.996299999999999955e+02
1.753600000000000136e+02
8.617000000000000171e+01
-7.906999999999999318e+01
-7.765000000000000568e+01
-2.917999999999999972e+01
-2.249000000000000057e+02
2.279900000000000091e+02
3.102200000000000273e+02
-1.537700000000000102e+02
-8.657999999999999829e+01
-4.007999999999999829e+01
2.100000000000000089e+00
-1.841000000000000014e+01
-4.810999999999999943e+01
-1.323000000000000114e+02
1.703899999999999864e+02
1.193400000000000034e+02
1.400000000000000133e-01
3.182000000000000028e+01
-5.389999999999999680e+00
7.982999999999999829e+01
-1.924900000000000091e+02
-1.075600000000000023e+02
1.342899999999999920e+02
1.415000000000000036e+01
7.053000000000000114e+01
-1.237000000000000028e+02
4.032999999999999829e+01
1.415600000000000023e+02
-1.101899999999999977e+02
8.449999999999999289e+00
-2.617000000000000171e+01
1.360000000000000098e+00
1.969999999999999973e+00
-1.730000000000000071e+01
1.958999999999999986e+01
2.339000000000000057e+01
-1.198000000000000043e+01
-2.776000000000000156e+01
8.330000000000000071e+00
-4.785999999999999943e+01
-1.300300000000000011e+02
-4.603999999999999915e+01
1.148100000000000023e+02
-1.210100000000000051e+02
6.290000000000000036e+00
1.061200000000000045e+02
-2.142000000000000171e+01
4.735999999999999943e+01
-3.800999999999999801e+01
-2.641000000000000014e+01
1.113000000000000078e+01
1.769000000000000128e+01
3.553999999999999915e+01
-1.328600000000000136e+02
1.159999999999999964e+01
1.088700000000000045e+02
-8.846999999999999886e+01
-1.875000000000000000e+01
5.060999999999999943e+01
8.040000000000000568e+01
-1.381000000000000050e+01
-3.472999999999999687e+01
-1.382000000000000028e+01
2.369000000000000128e+01
3.664000000000000057e+01
3.539000000000000057e+01
1.821000000000000085e+01
-3.868999999999999773e+01
-8.140000000000000568e+00
3.620000000000000107e+00
-5.820000000000000284e+00
-1.375000000000000000e+01
8.699999999999999289e+00
6.300000000000000044e-01
-1.080000000000000071e+00
7.549999999999999822e+00
-6.679999999999999716e+00
-1.773999999999999844e+01
1.089000000000000057e+01
-9.650000000000000355e+00
-3.438000000000000256e+01
2.003000000000000114e+01
1.939999999999999858e+01
-1.561999999999999922e+01
1.969000000000000128e+01
8.529999999999999361e+00
-1.994000000000000128e+01
1.049000000000000021e+01
1.919999999999999929e+01
-1.030000000000000071e+01
-1.867999999999999972e+01
2.539999999999999858e+01
3.067999999999999972e+01
-2.714000000000000057e+01
2.176000000000000156e+01
-1.300000000000000044e+00
-1.732000000000000028e+01
-6.235000000000000142e+01
-4.506000000000000227e+01
7.609999999999999432e+01
1.153999999999999915e+01
-4.360000000000000320e+00
1.662999999999999901e+01
-2.694000000000000128e+01
-1.583000000000000007e+01
7.000000000000000000e+00
-6.800000000000000488e-01
-2.116000000000000014e+01
1.102999999999999936e+01
-1.002999999999999936e+01
2.389999999999999858e+01
7.615000000000000568e+01
-1.169999999999999929e+01
-1.556200000000000045e+02
-6.673000000000000398e+01
-8.939000000000000057e+01
1.187099999999999937e+02
-4.700000000000000000e+01
1.171000000000000085e+01
-9.681000000000000227e+01
2.126699999999999875e+02
2.974800000000000182e+02
1.143999999999999950e+01
-1.844300000000000068e+02
-8.601000000000000512e+01
-1.550000000000000000e+01
6.639000000000000057e+01
-2.832999999999999829e+01
-7.330000000000000071e+00
4.643999999999999773e+01
3.871999999999999886e+01
5.009999999999999787e+00
-2.705000000000000071e+01
9.929999999999999716e+00
-3.729999999999999982e+00
-2.890000000000000124e+00
-3.457999999999999829e+01
-3.871000000000000085e+01
1.004599999999999937e+02
-6.343999999999999773e+01
-2.105399999999999920e+02
2.275000000000000000e+01
-1.502999999999999936e+01
1.597000000000000064e+01
1.477999999999999936e+01
-3.759999999999999787e+00
5.796999999999999886e+01
-3.536999999999999744e+01
6.500000000000000222e-01
-6.518999999999999773e+01
1.106599999999999966e+02
-1.287800000000000011e+02
-3.025000000000000000e+01
6.074000000000000199e+01
1.057099999999999937e+02
-2.100600000000000023e+02
5.868999999999999773e+01
-2.689999999999999858e+01
1.042900000000000063e+02
-6.519999999999999574e+00
-1.183999999999999986e+01
-2.862999999999999901e+01
-2.629999999999999893e+00
-2.485999999999999943e+01
5.290000000000000036e+00
4.999000000000000199e+01
7.399999999999999911e-01
-1.323000000000000043e+01
-3.089999999999999858e+00
3.622999999999999687e+01
-1.672400000000000091e+02
1.354000000000000057e+02
6.182999999999999829e+01
-4.609000000000000341e+01
-2.267999999999999972e+01
-1.835999999999999943e+01
2.898999999999999844e+01
1.044999999999999929e+01
-8.603000000000000114e+01
-7.168999999999999773e+01
4.124000000000000199e+01
-2.594000000000000128e+01
-4.702000000000000313e+01
-5.092999999999999972e+01
-9.201000000000000512e+01
3.710000000000000142e+01
2.894000000000000128e+01
3.672999999999999687e+01
-3.310000000000000053e+00
-3.399000000000000199e+01
-2.039000000000000057e+01
1.007000000000000028e+01
1.117900000000000063e+02
-6.007999999999999829e+01
6.981000000000000227e+01
1.444999999999999929e+01
1.377999999999999936e+01
-3.098000000000000043e+01
-1.141999999999999993e+01
1.799999999999999933e-01
3.802000000000000313e+01
1.074000000000000021e+01
2.237999999999999901e+01
-1.542999999999999972e+01
-2.862999999999999901e+01
-1.507000000000000028e+01
7.276000000000000512e+01
-1.033299999999999983e+02
2.773000000000000043e+01
-2.819000000000000128e+01
-1.103999999999999915e+01
1.152999999999999936e+01
-4.179999999999999716e+00
-6.190000000000000391e+00
-3.443999999999999773e+01
1.013000000000000078e+01
4.677000000000000313e+01
3.069999999999999929e+01
-9.429999999999999716e+00
-8.268999999999999773e+01
1.265000000000000036e+01
1.639000000000000057e+01
4.849999999999999645e+00
-5.621000000000000085e+01
3.252000000000000313e+01
3.459999999999999964e+00
-2.360000000000000142e+01
1.371000000000000085e+01
1.617000000000000171e+01
-5.040000000000000036e+00
-2.779999999999999805e+00
8.990000000000000213e+00
5.300000000000000266e-01
-1.451999999999999957e+01
4.660000000000000142e+00
1.600000000000000089e+00
-7.990000000000000213e+00
4.839999999999999858e+00
5.419999999999999929e+00
-4.580000000000000071e+00
7.399999999999999911e-01
7.129999999999999893e+00
-1.219999999999999973e+00
-1.151999999999999957e+01
1.550000000000000044e+00
1.219999999999999973e+00
-9.449999999999999289e+00
1.403999999999999915e+01
4.549999999999999822e+00
-2.259999999999999787e+00
7.179999999999999716e+00
2.500000000000000000e+00
-5.019999999999999574e+00
-2.560000000000000053e+00
6.610000000000000320e+00
-3.359999999999999876e+00
-1.573000000000000043e+01
1.250000000000000000e+01
5.589999999999999858e+00
-8.560000000000000497e+00
7.469999999999999751e+00
3.359999999999999876e+00
-7.660000000000000142e+00
2.959999999999999964e+00
1.973000000000000043e+01
-2.026000000000000156e+01
-1.610000000000000142e+01
1.400000000000000000e+01
1.065000000000000036e+01
-2.942999999999999972e+01
9.899999999999999911e-01
-3.492000000000000171e+01
-4.572999999999999687e+01
1.269999999999999929e+01
3.375000000000000000e+01
-2.479999999999999982e+00
8.570000000000000284e+00
3.457000000000000028e+01
3.419999999999999929e+00
-2.746999999999999886e+01
3.404999999999999716e+01
6.200000000000000178e+00
-4.081000000000000227e+01
3.396000000000000085e+01
1.767000000000000171e+01
-4.185999999999999943e+01
2.246000000000000085e+01
2.167000000000000171e+01
-1.581000000000000050e+01
1.183999999999999986e+01
1.459999999999999964e+01
-1.467999999999999972e+01
-4.000000000000000083e-02
2.258999999999999986e+01
-9.310000000000000497e+00
-2.285000000000000142e+01
2.826000000000000156e+01
-8.189999999999999503e+00
-3.510000000000000142e+01
3.146999999999999886e+01
1.742000000000000171e+01
-5.021000000000000085e+01
1.573000000000000043e+01
5.530000000000000249e+00
-3.128999999999999915e+01
2.462000000000000099e+01
8.740000000000000213e+00
-1.664000000000000057e+01
7.690000000000000391e+00
8.390000000000000568e+00
-1.400999999999999979e+01
-8.029999999999999361e+00
1.572000000000000064e+01
-1.019999999999999929e+01
-9.900000000000000355e+00
-4.095000000000000284e+01
-1.120699999999999932e+02
7.100000000000000000e+01
1.467999999999999972e+01
-9.830000000000000071e+00
-2.685999999999999943e+01
3.375999999999999801e+01
-9.550000000000000711e+00
-1.410999999999999943e+01
1.036999999999999922e+01
2.078000000000000114e+01
-1.092999999999999972e+01
1.894000000000000128e+01
6.230000000000000426e+00
-1.141999999999999993e+01
-1.184999999999999964e+01
1.209999999999999964e+01
-5.167000000000000171e+01
7.032999999999999829e+01
-5.972999999999999687e+01
1.959999999999999964e+00
1.250199999999999960e+02
4.978999999999999915e+01
1.271000000000000085e+01
-2.512999999999999901e+01
-3.446000000000000085e+01
3.863000000000000256e+01
-5.300000000000000266e-01
4.163000000000000256e+01
4.668999999999999773e+01
-1.848400000000000034e+02
5.457999999999999829e+01
-3.767999999999999972e+01
2.173999999999999844e+01
2.630999999999999872e+01
-2.207000000000000028e+01
1.596000000000000085e+01
2.767999999999999972e+01
-7.639999999999999680e+00
-3.682999999999999829e+01
4.089999999999999858e+00
8.380000000000000782e+00
4.164000000000000057e+01
-4.514999999999999858e+01
1.787000000000000099e+01
7.875000000000000000e+01
-8.360999999999999943e+01
1.309999999999999964e+01
1.398000000000000043e+01
1.560000000000000053e+00
-2.053000000000000114e+01
1.355000000000000071e+01
3.279999999999999805e+00
-2.164999999999999858e+01
9.580000000000000071e+00
9.250000000000000000e+00
-8.720000000000000639e+00
-1.110000000000000098e+00
8.060000000000000497e+00
-1.639999999999999902e+00
-2.228000000000000114e+01
1.183999999999999986e+01
-7.199999999999999734e-01
-2.046999999999999886e+01
2.169999999999999929e+01
1.317999999999999972e+01
-1.527999999999999936e+01
2.529999999999999805e+00
7.250000000000000000e+00
-4.650000000000000355e+00
2.200000000000000011e-01
1.441999999999999993e+01
-5.879999999999999893e+00
-1.875000000000000000e+01
1.541000000000000014e+01
2.229999999999999982e+00
-2.200000000000000000e+01
1.299000000000000021e+01
7.790000000000000036e+00
-9.660000000000000142e+00
6.759999999999999787e+00
7.849999999999999645e+00
-5.200000000000000178e+00
-4.639999999999999680e+00
7.750000000000000000e+00
-5.759999999999999787e+00
-1.828000000000000114e+01
1.206000000000000050e+01
2.959999999999999964e+00
-2.105000000000000071e+01
1.251999999999999957e+01
5.969999999999999751e+00
-1.541999999999999993e+01
9.140000000000000568e+00
1.196000000000000085e+01
-7.349999999999999645e+00
-8.199999999999999289e+00
1.064000000000000057e+01
-4.799999999999999822e-01
-1.819999999999999929e+01
1.464000000000000057e+01
5.650000000000000355e+00
-1.717999999999999972e+01
5.700000000000000178e+00
-4.910000000000000142e+00
-2.464999999999999858e+01
-2.141000000000000014e+01
3.327000000000000313e+01
-1.939999999999999947e+00
-3.500000000000000000e+00
-4.003999999999999915e+01
4.639999999999999858e+01
-7.587999999999999545e+01
5.719999999999999751e+00
3.359000000000000341e+01
4.050000000000000000e+01
-2.775000000000000000e+01
-2.416000000000000014e+01
2.300000000000000100e-01
-1.172000000000000064e+01
-1.719000000000000128e+01
-8.839000000000000057e+01
9.198999999999999488e+01
1.242999999999999972e+01
6.364000000000000057e+01
1.396000000000000085e+01
-7.809999999999999609e+00
-7.940000000000000568e+01
-1.648600000000000136e+02
-2.241999999999999886e+02
1.440900000000000034e+02
-9.400000000000000355e+00
-1.089599999999999937e+02
-8.539999999999999147e+00
3.904999999999999716e+01
-1.125600000000000023e+02
-1.266000000000000014e+01
-3.339000000000000057e+01
2.837000000000000099e+01
9.307999999999999829e+01
-1.091599999999999966e+02
-6.671999999999999886e+01
1.600000000000000033e-01
2.069999999999999929e+01
3.649999999999999911e+00
-3.549999999999999822e+00
1.236999999999999922e+01
-8.000000000000000167e-02
-1.353999999999999915e+01
1.447000000000000064e+01
8.339999999999999858e+00
-1.042999999999999972e+01
2.939999999999999947e+00
1.370000000000000107e+00
-8.160000000000000142e+00
-1.659999999999999920e+00
4.040000000000000036e+00
-1.860000000000000098e+00
-9.779999999999999361e+00
1.218999999999999950e+01
-3.430000000000000160e+00
-1.673999999999999844e+01
8.140000000000000568e+00
-2.000000000000000111e-01
-3.799999999999999822e+00
1.047000000000000064e+01
7.150000000000000355e+00
-1.610000000000000098e+00
1.344999999999999929e+01
3.470000000000000195e+00
1.199999999999999956e-01
1.453999999999999915e+01
-4.000000000000000083e-02
-1.044999999999999929e+01
7.780000000000000249e+00
6.929999999999999716e+00
-2.220000000000000195e+00
-9.550000000000000711e+00
1.746000000000000085e+01
-5.269999999999999574e+00
-5.679999999999999716e+00
1.573000000000000043e+01
-1.010000000000000009e+00
-1.903000000000000114e+01
1.669000000000000128e+01
6.280000000000000249e+00
-7.019999999999999574e+00
-1.700000000000000122e-01
4.269999999999999574e+00
-2.609999999999999876e+00
-7.660000000000000142e+00
5.860000000000000320e+00
-4.019999999999999574e+00
-1.524000000000000021e+01
1.010999999999999943e+01
4.160000000000000142e+00
-1.100999999999999979e+01
9.720000000000000639e+00
4.330000000000000071e+00
-8.619999999999999218e+00
-8.449999999999999289e+00
5.320000000000000284e+00
-1.189999999999999947e+00
-6.169999999999999929e+00
1.066000000000000014e+01
4.830000000000000071e+00
-1.008000000000000007e+01
1.158999999999999986e+01
7.150000000000000355e+00
-3.020000000000000018e+00
-8.089999999999999858e+00
7.089999999999999858e+00
-4.759999999999999787e+00
-1.714999999999999858e+01
7.740000000000000213e+00
7.660000000000000142e+00
-9.220000000000000639e+00
3.160000000000000142e+00
7.540000000000000036e+00
-1.939999999999999947e+00
-1.036999999999999922e+01
8.990000000000000213e+00
4.889999999999999680e+00
-6.259999999999999787e+00
8.419999999999999929e+00
4.379999999999999893e+00
-7.040000000000000036e+00
-1.850000000000000089e+00
1.179999999999999938e+00
-5.549999999999999822e+00
-2.910000000000000142e+00
6.599999999999999645e+00
-2.370000000000000107e+00
-1.059999999999999964e+01
6.500000000000000000e+00
3.089999999999999858e+00
-1.426999999999999957e+01
1.060999999999999943e+01
-7.469999999999999751e+00
-2.355999999999999872e+01
1.746999999999999886e+01
9.000000000000000000e+00
-7.809999999999999609e+00
1.131000000000000050e+01
9.509999999999999787e+00
-1.053999999999999915e+01
-5.209999999999999964e+00
8.509999999999999787e+00
-3.499999999999999778e-01
-5.490000000000000213e+00
9.099999999999999645e+00
-4.110000000000000320e+00
-1.844999999999999929e+01
1.108999999999999986e+01
7.080000000000000071e+00
-8.980000000000000426e+00
9.710000000000000853e+00
5.629999999999999893e+00
-5.719999999999999751e+00
-1.208000000000000007e+01
7.530000000000000249e+00
4.490000000000000213e+00
-1.328999999999999915e+01
9.160000000000000142e+00
3.770000000000000018e+00
-9.359999999999999432e+00
1.760000000000000009e+00
6.490000000000000213e+00
-2.229999999999999982e+00
-1.325999999999999979e+01
8.019999999999999574e+00
6.080000000000000071e+00
-8.490000000000000213e+00
4.809999999999999609e+00
6.429999999999999716e+00
-4.089999999999999858e+00
-1.427999999999999936e+01
1.338000000000000078e+01
1.080000000000000071e+00
-1.235999999999999943e+01
-1.590000000000000080e+00
9.679999999999999716e+00
9.000000000000000222e-01
-9.839999999999999858e+00
5.129999999999999893e+00
-2.089999999999999858e+00
-1.707999999999999829e+01
7.759999999999999787e+00
1.249000000000000021e+01
-3.410000000000000142e+00
-4.299999999999999933e-01
1.083999999999999986e+01
-2.450000000000000178e+00
-1.646999999999999886e+01
1.030000000000000071e+01
6.600000000000000311e-01
-1.126999999999999957e+01
4.059999999999999609e+00
5.089999999999999858e+00
-3.649999999999999911e+00
7.240000000000000213e+00
1.047000000000000064e+01
7.019999999999999574e+00
-7.484000000000000341e+01
-4.139999999999999680e+00
1.052999999999999936e+01
-7.519999999999999574e+00
-2.567000000000000171e+01
-1.070000000000000000e+02
2.801800000000000068e+02
-5.082999999999999829e+01
5.157000000000000028e+01
-2.186200000000000045e+02
2.403000000000000114e+01
2.585000000000000142e+01
5.309999999999999609e+00
9.949999999999999289e+00
4.599999999999999645e+00
-1.717999999999999972e+01
1.388000000000000078e+01
8.007999999999999829e+01
5.932000000000000028e+01
-6.378999999999999915e+01
-1.664999999999999858e+01
-3.680000000000000160e+00
-6.556000000000000227e+01
8.810000000000000497e+00
9.560000000000000497e+00
-3.629999999999999893e+00
-1.760000000000000009e+00
-3.029999999999999805e+00
3.589999999999999858e+00
-8.499999999999999778e-01
1.330000000000000071e+00
9.100000000000000311e-01
-3.359999999999999876e+00
4.400000000000000022e-01
2.029999999999999805e+00
-7.120000000000000107e+00
-8.589999999999999858e+00
4.169999999999999929e+00
-2.020000000000000018e+00
-2.005999999999999872e+01
1.472000000000000064e+01
1.310000000000000053e+00
-6.370000000000000107e+00
2.157999999999999829e+01
7.959999999999999964e+00
-1.424000000000000021e+01
-6.120000000000000107e+00
3.035999999999999943e+01
6.400000000000000355e+00
-7.900000000000000355e+00
3.080000000000000071e+00
8.800000000000000711e+00
-8.410000000000000142e+00
-1.300000000000000044e-01
1.171000000000000085e+01
-3.470000000000000195e+00
-1.962000000000000099e+01
1.240000000000000036e+01
1.044999999999999929e+01
3.121000000000000085e+01
3.847999999999999687e+01
-1.009399999999999977e+02
-5.778000000000000114e+01
-3.903999999999999915e+01
4.139000000000000057e+01
-7.500000000000000000e+00
-1.875600000000000023e+02
-1.561999999999999886e+02
2.219699999999999989e+02
2.723999999999999844e+01
-1.067999999999999972e+01
-2.937000000000000099e+01
2.837000000000000099e+01
7.839999999999999858e+00
-7.234999999999999432e+01
-1.428799999999999955e+02
3.071000000000000085e+01
7.940000000000000391e+00
-7.129999999999999893e+00
-6.970999999999999375e+01
-1.920699999999999932e+02
2.379399999999999977e+02
3.774100000000000250e+02
-1.027900000000000063e+02
-2.642599999999999909e+02
-2.435000000000000142e+01
1.460999999999999943e+01
-1.075000000000000000e+01
-2.128000000000000114e+01
4.339999999999999858e+01
-1.336999999999999922e+01
-2.157999999999999829e+01
-3.209999999999999964e+00
1.469999999999999973e+00
-3.456000000000000227e+01
-1.250999999999999979e+01
9.550000000000000711e+00
1.846000000000000085e+01
6.937999999999999545e+01
8.651000000000000512e+01
-1.476299999999999955e+02
-4.764000000000000057e+01
2.760999999999999943e+01
9.369999999999999218e+00
5.169999999999999929e+00
-1.252999999999999936e+01
8.669999999999999929e+00
4.410000000000000142e+00
3.770000000000000018e+00
-2.078999999999999915e+01
2.350000000000000089e+00
3.400999999999999801e+01
-3.250000000000000000e+00
-2.655000000000000071e+01
3.465999999999999659e+01
2.785999999999999943e+01
-7.410000000000000142e+00
1.917000000000000171e+01
-1.214000000000000057e+01
-1.236999999999999922e+01
-2.560000000000000053e+00
1.300000000000000044e+00
-2.000000000000000042e-02
-1.528999999999999915e+01
4.600000000000000200e-01
-6.282000000000000028e+01
1.649999999999999911e+00
1.801000000000000156e+01
1.635000000000000142e+01
-8.630000000000000782e+00
4.875999999999999801e+01
3.589000000000000057e+01
-5.963000000000000256e+01
-8.731000000000000227e+01
2.997900000000000205e+02
-2.569999999999999840e+00
-2.200000000000000011e-01
6.799999999999999822e+00
-4.219999999999999751e+00
-7.901000000000000512e+01
6.712999999999999545e+01
6.534999999999999432e+01
1.450800000000000125e+02
-1.371100000000000136e+02
-7.170999999999999375e+01
-1.017099999999999937e+02
1.096299999999999955e+02
7.604000000000000625e+01
-1.425999999999999979e+01
7.000000000000000666e-02
2.137999999999999901e+01
-1.060000000000000053e+00
-4.690999999999999659e+01
2.991000000000000014e+01
-9.604999999999999716e+01
-2.666000000000000014e+01
1.037800000000000011e+02
2.705999999999999872e+01
6.976999999999999602e+01
3.032000000000000028e+01
-1.182500000000000000e+02
5.690000000000000391e+00
-6.410999999999999943e+01
7.982999999999999829e+01
4.667999999999999972e+01
2.683999999999999986e+01
-6.089999999999999858e+00
-3.388000000000000256e+01
4.785999999999999943e+01
-6.899999999999999467e-01
-1.564000000000000057e+01
1.896999999999999886e+01
-1.131000000000000050e+01
1.901000000000000156e+01
-4.585000000000000142e+01
-5.047999999999999687e+01
2.205999999999999872e+01
4.117000000000000171e+01
4.254999999999999716e+01
-7.820000000000000284e+00
-2.094999999999999929e+01
-4.850999999999999801e+01
8.434000000000000341e+01
-7.709999999999999964e+00
-2.326000000000000156e+01
-1.169999999999999929e+01
8.470000000000000639e+00
-1.440000000000000036e+01
-2.237000000000000099e+01
-3.169999999999999929e+00
-4.370000000000000107e+00
-1.607999999999999829e+01
-6.879999999999999893e+00
-3.835999999999999943e+01
2.678000000000000114e+01
3.522999999999999687e+01
-5.030000000000000249e+00
2.146999999999999886e+01
-1.662000000000000099e+01
-4.984000000000000341e+01
-1.800000000000000000e+01
7.323000000000000398e+01
2.864000000000000057e+01
6.370000000000000107e+00
5.459999999999999964e+00
-1.336999999999999922e+01
2.455999999999999872e+01
6.919999999999999929e+00
-2.692999999999999972e+01
1.591000000000000014e+01
4.145000000000000284e+01
-1.919999999999999929e+00
-7.535999999999999943e+01
-3.927000000000000313e+01
2.150000000000000000e+01
6.954999999999999716e+01
3.019999999999999929e+01
-5.174000000000000199e+01
-3.149800000000000182e+02
6.576999999999999602e+01
1.697500000000000000e+02
8.009999999999999432e+01
-2.978999999999999915e+01
-1.057000000000000028e+01
3.450000000000000178e+00
2.700000000000000178e+00
-2.919999999999999929e+00
-1.020000000000000018e+00
-3.779999999999999805e+00
-2.819999999999999840e+00
2.939999999999999947e+00
3.279999999999999805e+00
-2.335000000000000142e+01
1.383999999999999986e+01
5.360000000000000320e+00
-1.175999999999999979e+01
1.114000000000000057e+01
1.081000000000000050e+01
-8.230000000000000426e+00
5.280000000000000249e+00
9.189999999999999503e+00
-5.280000000000000249e+00
-6.320000000000000284e+00
1.660999999999999943e+01
-2.600000000000000089e+00
-1.832999999999999829e+01
1.472000000000000064e+01
3.240000000000000213e+00
-1.937000000000000099e+01
1.508999999999999986e+01
7.900000000000000355e+00
-1.425999999999999979e+01
9.980000000000000426e+00
1.409999999999999964e+01
-3.459999999999999964e+00
-6.440000000000000391e+00
8.339999999999999858e+00
2.423000000000000043e+01
2.623999999999999844e+01
-2.219999999999999929e+01
-3.220000000000000195e+00
-1.567999999999999972e+01
4.984000000000000341e+01
-3.360999999999999943e+01
4.584000000000000341e+01
-1.283999999999999986e+01
-3.058999999999999986e+01
-1.014000000000000057e+01
-1.113000000000000078e+01
5.724000000000000199e+01
1.359999999999999964e+01
6.719999999999999751e+00
1.398000000000000043e+01
-1.211999999999999922e+01
-2.130999999999999872e+01
-2.505999999999999872e+01
-1.350000000000000089e+00
-2.135000000000000142e+01
7.450000000000000178e+00
6.139999999999999858e+01
-1.385999999999999943e+01
-3.389999999999999858e+01
9.264000000000000057e+01
-2.651000000000000156e+01
-1.034999999999999964e+01
-1.213000000000000078e+01
8.759999999999999787e+00
-1.419999999999999929e+00
-1.505000000000000071e+01
1.167999999999999972e+01
-6.465000000000000568e+01
-3.098000000000000043e+01
7.009000000000000341e+01
6.103000000000000114e+01
-6.125999999999999801e+01
9.918999999999999773e+01
5.260000000000000142e+01
-6.865000000000000568e+01
2.859999999999999876e+00
6.200999999999999801e+01
5.467999999999999972e+01
-2.228999999999999915e+01
-2.276000000000000156e+01
1.341000000000000014e+01
-4.117000000000000171e+01
-6.153000000000000114e+01
2.246000000000000085e+01
3.099999999999999978e-01
9.650000000000000355e+00
-1.027999999999999936e+01
8.131000000000000227e+01
2.410000000000000142e+01
-9.035999999999999943e+01
7.276999999999999602e+01
-7.143000000000000682e+01
-1.873999999999999844e+01
5.770000000000000284e+01
-1.016000000000000014e+01
-8.130000000000000782e+00
1.581000000000000050e+01
-9.631999999999999318e+01
9.110999999999999943e+01
-3.680000000000000160e+00
5.360000000000000320e+00
6.830000000000000071e+00
-1.976999999999999957e+01
-1.994999999999999929e+01
2.609999999999999876e+00
-3.669999999999999929e+00
-1.021000000000000085e+01
2.535999999999999943e+01
-3.299999999999999822e+00
-1.830000000000000071e+00
8.410000000000000142e+00
3.810000000000000053e+00
-1.407000000000000028e+01
1.451999999999999957e+01
4.600000000000000200e-01
-1.682999999999999829e+01
1.803999999999999915e+01
1.022000000000000064e+01
-1.303999999999999915e+01
1.060999999999999943e+01
7.830000000000000071e+00
-6.250000000000000000e+00
-1.106000000000000050e+01
9.189999999999999503e+00
3.350000000000000089e+00
-9.730000000000000426e+00
1.000999999999999979e+01
8.199999999999999512e-01
-9.910000000000000142e+00
7.690000000000000391e+00
-2.109999999999999876e+00
-1.358000000000000007e+01
3.669999999999999929e+00
5.759999999999999787e+00
-7.929999999999999716e+00
-6.389999999999999680e+00
1.140000000000000036e+01
-1.760000000000000009e+00
-1.408999999999999986e+01
1.810999999999999943e+01
3.300000000000000155e-01
-1.283999999999999986e+01
6.490000000000000213e+00
4.179999999999999716e+00
-3.819999999999999840e+00
-5.349999999999999645e+00
6.730000000000000426e+00
1.889999999999999902e+00
-1.232000000000000028e+01
7.269999999999999574e+00
1.290000000000000036e+00
-8.160000000000000142e+00
-4.370000000000000107e+00
1.316999999999999993e+01
-1.235999999999999943e+01
-4.977000000000000313e+01
-1.751999999999999957e+01
7.284000000000000341e+01
4.349999999999999645e+00
-2.482000000000000028e+01
2.121999999999999886e+01
4.129999999999999893e+00
3.335000000000000142e+01
-3.169999999999999929e+00
6.061999999999999744e+01
-1.507100000000000080e+02
-1.076099999999999994e+02
5.127000000000000313e+01
7.879999999999999893e+00
2.223000000000000043e+01
-5.145000000000000284e+01
-6.299000000000000199e+01
2.583999999999999986e+01
3.375999999999999801e+01
-2.878999999999999915e+01
-5.690000000000000391e+00
-3.069999999999999929e+01
6.454999999999999716e+01
-4.228000000000000114e+01
1.020000000000000018e+00
1.649999999999999911e+00
5.404999999999999716e+01
-2.373000000000000043e+01
-2.228000000000000114e+01
-3.819999999999999840e+00
-2.401999999999999957e+01
3.327000000000000313e+01
3.192999999999999972e+01
1.209999999999999964e+00
1.461999999999999922e+01
3.720000000000000195e+00
-8.859999999999999432e+00
8.199999999999999512e-01
1.174000000000000021e+01
-1.785000000000000142e+01
-1.214000000000000057e+01
9.369999999999999218e+00
-1.614999999999999858e+01
-2.253000000000000114e+01
-1.329600000000000080e+02
-1.102900000000000063e+02
6.534999999999999432e+01
-4.772999999999999687e+01
-1.636699999999999875e+02
8.953000000000000114e+01
3.779999999999999805e+00
5.557000000000000028e+01
2.683999999999999986e+01
3.579999999999999716e+01
7.025000000000000000e+01
5.425999999999999801e+01
-3.148000000000000043e+01
-5.990999999999999659e+01
8.343000000000000682e+01
-6.189000000000000057e+01
-3.581000000000000227e+01
5.582999999999999829e+01
-7.830000000000000071e+00
-2.391000000000000014e+01
-3.189999999999999947e+00
-3.850000000000000089e+00
-5.809999999999999609e+00
-1.159999999999999920e+00
1.310000000000000053e+00
-2.029999999999999805e+00
-8.039999999999999147e+00
4.190000000000000391e+00
5.500000000000000444e-01
-8.890000000000000568e+00
3.839999999999999858e+00
-1.300000000000000044e-01
-9.939999999999999503e+00
-4.660000000000000142e+00
5.349999999999999645e+00
-1.760000000000000009e+00
-1.658999999999999986e+01
1.097000000000000064e+01
8.390000000000000568e+00
-6.080000000000000071e+00
2.487999999999999901e+01
1.326599999999999966e+02
-2.683299999999999841e+02
3.717000000000000171e+01
2.732999999999999829e+01
1.739999999999999991e+00
-2.514999999999999858e+01
2.646000000000000085e+01
1.851000000000000156e+01
-7.169999999999999929e+00
2.060000000000000053e+00
6.052000000000000313e+01
-2.721000000000000085e+01
-6.887999999999999545e+01
1.358000000000000007e+01
4.686999999999999744e+01
6.951999999999999602e+01
8.395000000000000284e+01
-1.099599999999999937e+02
-6.476999999999999602e+01
-1.166999999999999993e+01
1.031000000000000050e+01
-2.939999999999999947e+00
-4.635000000000000142e+01
-7.800000000000000266e-01
-2.530999999999999872e+01
1.094999999999999929e+01
9.100000000000000311e-01
-4.282999999999999829e+01
-3.410000000000000142e+01
-8.704999999999999716e+01
1.573899999999999864e+02
1.710999999999999943e+01
2.204099999999999966e+02
-4.718999999999999773e+01
2.919999999999999929e+00
-3.993999999999999773e+01
-3.928500000000000227e+02
1.282199999999999989e+02
1.898100000000000023e+02
-9.339999999999999858e+00
1.516999999999999993e+01
1.120400000000000063e+02
-1.281699999999999875e+02
-8.580000000000000071e+00
-5.603999999999999915e+01
4.660000000000000142e+01
-7.189000000000000057e+01
1.200000000000000000e+02
1.126800000000000068e+02
-1.583300000000000125e+02
-2.235000000000000142e+01
4.150999999999999801e+01
5.556000000000000227e+01
-3.214999999999999858e+01
-4.769999999999999574e+00
-2.662999999999999901e+01
-1.089000000000000057e+01
2.360999999999999943e+01
-4.296999999999999886e+01
8.699999999999999956e-01
7.435999999999999943e+01
9.470000000000000639e+00
-5.968999999999999773e+01
1.464099999999999966e+02
4.882999999999999829e+01
1.658999999999999986e+01
2.846000000000000085e+01
5.846999999999999886e+01
-1.264300000000000068e+02
2.485000000000000142e+01
4.560000000000000142e+01
-4.242000000000000171e+01
-1.250000000000000000e+01
-1.090000000000000080e+00
4.534000000000000341e+01
1.103999999999999915e+01
1.234999999999999964e+01
-4.360000000000000320e+00
-3.264999999999999858e+01
1.211999999999999922e+01
6.815000000000000568e+01
-1.256500000000000057e+02
-1.100000000000000089e+00
5.903999999999999915e+01
-3.277000000000000313e+01
-7.425000000000000000e+01
1.328400000000000034e+02
-4.320000000000000284e+01
4.914000000000000057e+01
9.915999999999999659e+01
-1.620099999999999909e+02
2.832000000000000028e+01
2.642999999999999972e+01
-2.321000000000000085e+01
9.519999999999999574e+00
-2.742999999999999972e+01
-1.776999999999999957e+01
1.007399999999999949e+02
2.548999999999999844e+01
-1.208999999999999986e+01
-4.870000000000000284e+01
1.384099999999999966e+02
-1.850000000000000000e+01
-5.064000000000000057e+01
-7.769999999999999574e+00
-1.839000000000000057e+01
-3.554999999999999716e+01
-5.806000000000000227e+01
-8.040000000000000568e+01
1.421200000000000045e+02
-4.864999999999999858e+01
-3.996999999999999886e+01
-1.073000000000000043e+01
1.683999999999999986e+01
8.181000000000000227e+01
-6.668000000000000682e+01
2.444999999999999929e+01
-1.325999999999999979e+01
6.937000000000000455e+01
-8.019999999999999574e+00
1.766000000000000014e+01
1.019800000000000040e+02
4.109000000000000341e+01
-1.610000000000000098e+00
0.000000000000000000e+00
8.589999999999999858e+00
-5.340999999999999659e+01
-6.489000000000000057e+01
-1.810000000000000142e+01
4.531000000000000227e+01
2.700000000000000000e+01
1.099000000000000021e+01
-1.644000000000000128e+01
-1.680000000000000071e+01
-1.060999999999999943e+01
-3.388000000000000256e+01
4.720000000000000284e+01
-3.709999999999999964e+00
-3.549999999999999822e+00
2.583999999999999986e+01
9.689999999999999503e+00
-2.062000000000000099e+01
1.376999999999999957e+01
1.760000000000000142e+01
1.283999999999999986e+01
1.134999999999999964e+01
-5.043999999999999773e+01
6.290000000000000036e+00
-4.565999999999999659e+01
3.016000000000000014e+01
-5.725000000000000000e+01
-8.564000000000000057e+01
8.317000000000000171e+01
1.265600000000000023e+02
3.603000000000000114e+01
-5.419999999999999929e+00
-1.100900000000000034e+02
-4.685000000000000142e+01
-6.893000000000000682e+01
2.883999999999999986e+01
4.803000000000000114e+01
1.139000000000000057e+01
1.726999999999999957e+01
1.406000000000000050e+01
-8.199999999999999289e+00
-1.678000000000000114e+01
9.550000000000000711e+00
1.658999999999999986e+01
-1.176999999999999957e+01
2.207000000000000028e+01
1.022000000000000064e+01
-1.764000000000000057e+01
1.260999999999999943e+01
1.297000000000000064e+01
-3.500000000000000000e+00
-1.733999999999999986e+01
8.759999999999999787e+00
-4.339999999999999858e+00
-1.942999999999999972e+01
2.078000000000000114e+01
5.040000000000000036e+00
-2.560000000000000142e+01
1.520000000000000018e+00
1.723999999999999844e+01
-6.330000000000000071e+00
7.490000000000000213e+00
1.013000000000000078e+01
-4.879999999999999893e+00
-5.759999999999999787e+00
1.058000000000000007e+01
-6.899999999999999467e-01
-1.926999999999999957e+01
1.284999999999999964e+01
1.530000000000000027e+00
-1.653999999999999915e+01
8.189999999999999503e+00
7.349999999999999645e+00
-7.259999999999999787e+00
-4.719999999999999751e+00
1.017999999999999972e+01
-2.259999999999999787e+00
-1.687999999999999901e+01
-3.569999999999999840e+00
-4.821000000000000085e+01
1.361699999999999875e+02
-9.267000000000000171e+01
-1.245699999999999932e+02
-5.303000000000000114e+01
-1.006899999999999977e+02
1.826200000000000045e+02
-2.853999999999999915e+01
2.750000000000000000e+01
1.008000000000000007e+01
-2.930000000000000071e+01
4.446000000000000085e+01
2.178999999999999915e+01
-5.080000000000000071e+00
-1.880999999999999872e+01
4.421999999999999886e+01
9.390000000000000568e+01
-6.003999999999999915e+01
-6.512999999999999545e+01
-6.631999999999999318e+01
6.096999999999999886e+01
-6.169999999999999929e+00
5.467000000000000171e+01
-1.213000000000000078e+01
-2.360999999999999943e+01
7.969999999999999751e+00
-7.679999999999999716e+00
-1.857999999999999829e+01
3.142999999999999972e+01
-1.369999999999999929e+01
1.935000000000000142e+01
3.674000000000000199e+01
-1.919000000000000128e+01
-8.230000000000000426e+00
-1.002999999999999936e+01
-2.578000000000000114e+01
-6.089999999999999858e+00
2.171999999999999886e+01
6.120000000000000107e+00
-7.200000000000000178e+00
2.778000000000000114e+01
9.630000000000000782e+00
-6.500000000000000222e-01
5.181000000000000227e+01
-1.050000000000000000e+01
-3.989999999999999858e+01
-3.838000000000000256e+01
2.741000000000000014e+01
-5.525999999999999801e+01
6.353999999999999915e+01
-3.012999999999999901e+01
-3.200999999999999801e+01
-1.680999999999999872e+01
-1.000000000000000056e-01
6.282000000000000028e+01
-3.620000000000000107e+00
-1.098000000000000043e+01
-2.132000000000000028e+01
2.064000000000000057e+01
-1.000000000000000000e+01
-3.293999999999999773e+01
-3.649999999999999911e+00
-1.653000000000000114e+01
5.142999999999999972e+01
-2.060000000000000053e+00
1.680999999999999872e+01
-4.478999999999999915e+01
-9.050000000000000711e+00
6.943999999999999773e+01
-2.982000000000000028e+01
-3.374000000000000199e+01
-1.120000000000000107e+00
8.699999999999999956e-01
-4.600000000000000200e-01
3.101999999999999957e+01
1.117999999999999972e+01
-1.353999999999999915e+01
4.589999999999999858e+00
-1.218999999999999950e+01
-5.646000000000000085e+01
4.717999999999999972e+01
9.359999999999999432e+00
5.419999999999999929e+00
-1.527999999999999936e+01
-5.775000000000000000e+01
4.785000000000000142e+01
5.799999999999999600e-01
4.852000000000000313e+01
4.827000000000000313e+01
-7.018999999999999773e+01
2.344000000000000128e+01
6.169999999999999929e+00
-7.299999999999999822e+00
-1.123000000000000043e+01
-2.217000000000000171e+01
-7.443999999999999773e+01
2.120000000000000107e+00
6.336999999999999744e+01
1.025000000000000000e+01
1.891000000000000014e+01
-1.343999999999999950e+01
-4.169999999999999929e+00
-2.242000000000000171e+01
4.732999999999999829e+01
-1.719999999999999973e+00
-6.230000000000000426e+00
-5.089999999999999858e+00
1.996000000000000085e+01
1.885999999999999943e+01
-2.529999999999999805e+00
-3.384000000000000341e+01
-2.600000000000000089e-01
2.189000000000000057e+01
9.339999999999999858e+00
2.551000000000000156e+01
-7.940999999999999659e+01
-6.332999999999999829e+01
2.853000000000000114e+01
6.171999999999999886e+01
-1.619999999999999929e+01
-8.599999999999999645e+00
2.723999999999999844e+01
4.490000000000000213e+00
-1.426999999999999957e+01
5.502000000000000313e+01
-1.519999999999999929e+01
-2.157000000000000028e+01
8.890000000000000568e+00
7.900000000000000355e-01
1.680999999999999872e+01
1.639999999999999902e+00
-3.990000000000000213e+00
-3.524000000000000199e+01
3.167000000000000171e+01
7.080000000000000071e+00
-5.445000000000000284e+01
-6.347999999999999687e+01
-1.721000000000000085e+01
-8.900000000000000355e+00
7.618000000000000682e+01
3.096999999999999886e+01
2.978000000000000114e+01
-8.595000000000000284e+01
-1.147000000000000064e+01
5.940000000000000391e+00
-5.271999999999999886e+01
-3.629999999999999716e+01
1.345699999999999932e+02
-4.446000000000000085e+01
-3.771999999999999886e+01
3.033999999999999986e+01
3.970000000000000284e+01
1.700000000000000122e-01
1.510000000000000009e+00
3.720000000000000195e+00
-2.576999999999999957e+01
-4.568999999999999773e+01
1.900000000000000000e+01
1.150000000000000000e+01
3.303000000000000114e+01
3.684000000000000341e+01
2.258999999999999986e+01
-6.567000000000000171e+01
-3.209000000000000341e+01
2.205999999999999943e+02
-3.055999999999999872e+01
-1.476999999999999886e+02
-2.498999999999999844e+01
-2.799999999999999822e+00
2.982999999999999829e+01
-5.411999999999999744e+01
3.645000000000000284e+01
-3.631000000000000227e+01
-2.362000000000000099e+01
4.690000000000000391e+00
3.051000000000000156e+01
3.525999999999999801e+01
-6.980000000000000426e+00
4.927000000000000313e+01
-3.023999999999999844e+01
-1.152999999999999936e+01
7.549999999999999822e+00
5.190000000000000391e+00
-2.397199999999999989e+02
8.070999999999999375e+01
6.260000000000000142e+01
-2.355999999999999872e+01
2.173000000000000043e+01
3.282999999999999829e+01
-7.687999999999999545e+01
3.879999999999999893e+00
1.461899999999999977e+02
-1.426399999999999864e+02
-3.189999999999999947e+00
-4.024000000000000199e+01
1.191999999999999993e+01
4.722999999999999687e+01
2.028000000000000114e+01
-9.289999999999999147e+00
6.429999999999999716e+00
7.469999999999999751e+00
1.839000000000000057e+01
5.425999999999999801e+01
-3.517999999999999972e+01
-1.408999999999999986e+01
3.518999999999999773e+01
1.067999999999999972e+01
-3.640000000000000124e+00
-2.851999999999999957e+01
2.128000000000000114e+01
7.540000000000000036e+00
1.557000000000000028e+01
-8.080000000000000071e+00
2.450000000000000178e+00
2.314999999999999858e+01
-2.928000000000000114e+01
3.297999999999999687e+01
-9.179999999999999716e+00
-3.105999999999999872e+01
-1.794999999999999929e+01
3.109999999999999876e+00
5.589999999999999858e+00
8.599999999999999645e+00
2.521000000000000085e+01
6.150000000000000355e+00
3.279999999999999805e+00
-3.628000000000000114e+01
-1.601000000000000156e+01
5.230000000000000426e+00
1.209999999999999964e+01
-3.182999999999999829e+01
7.030000000000000249e+00
-3.399999999999999911e+00
-2.001000000000000156e+01
1.389000000000000057e+01
7.209999999999999964e+00
-1.227999999999999936e+01
1.260999999999999943e+01
1.218999999999999950e+01
1.260000000000000009e+00
-1.607999999999999829e+01
2.846999999999999886e+01
1.523000000000000043e+01
-2.503000000000000114e+01
-1.083999999999999986e+01
2.042000000000000171e+01
2.700000000000000178e+00
-8.320000000000000284e+00
9.454000000000000625e+01
-3.765999999999999659e+01
-3.871000000000000085e+01
8.529999999999999361e+00
-1.728999999999999915e+01
-1.662000000000000099e+01
8.250000000000000000e+00
7.730000000000000426e+00
-1.414000000000000057e+01
-3.439000000000000057e+01
6.826999999999999602e+01
-1.273000000000000043e+01
-5.959999999999999964e+00
1.366000000000000014e+01
2.819999999999999840e+00
-1.331000000000000050e+01
5.519999999999999574e+00
2.919999999999999929e+00
-2.890000000000000124e+00
1.739999999999999991e+00
4.309999999999999609e+00
-9.269999999999999574e+00
-1.253999999999999915e+01
8.609999999999999432e+00
-6.099999999999999867e-01
-2.058999999999999986e+01
2.060999999999999943e+01
7.029999999999999716e+01
5.410000000000000142e+01
-1.935000000000000142e+01
-1.439000000000000057e+01
-4.261999999999999744e+01
-4.431000000000000227e+01
-2.029999999999999805e+00
-8.400000000000000355e+00
-6.480000000000000426e+00
2.451999999999999957e+01
5.206000000000000227e+01
4.989999999999999858e+01
-7.476000000000000512e+01
3.335000000000000142e+01
1.644999999999999929e+01
-1.260999999999999943e+01
-6.620000000000000107e+00
-1.316000000000000014e+01
1.403999999999999915e+01
8.109999999999999432e+00
-1.138000000000000078e+01
2.162000000000000099e+01
9.039999999999999147e+00
-6.679999999999999716e+00
7.509999999999999787e+00
-1.144999999999999929e+01
-9.000000000000000222e-01
5.139999999999999680e+00
-4.139999999999999680e+00
-1.036999999999999922e+01
-5.070000000000000284e+00
5.580000000000000071e+00
2.999999999999999889e-02
-6.629999999999999893e+00
7.940000000000000391e+00
1.482000000000000028e+01
-6.379999999999999893e+00
7.419999999999999929e+00
1.072000000000000064e+01
7.600000000000000089e-01
3.442999999999999972e+01
5.685000000000000142e+01
-8.781999999999999318e+01
2.485000000000000142e+01
-6.870000000000000107e+00
4.135000000000000142e+01
2.487000000000000099e+01
-4.750999999999999801e+01
-6.470999999999999375e+01
-2.985000000000000142e+01
1.594999999999999929e+01
2.196000000000000085e+01
6.600000000000000311e-01
-1.250000000000000000e+00
7.849999999999999645e+00
-3.520000000000000018e+00
-9.060000000000000497e+00
1.321000000000000085e+01
1.525999999999999979e+01
3.810000000000000053e+00
7.629999999999999893e+00
2.009999999999999787e+00
-1.581000000000000050e+01
-4.000000000000000083e-02
5.110000000000000320e+00
-1.770000000000000018e+00
-9.399999999999999467e-01
8.529999999999999361e+00
8.640000000000000568e+00
1.033999999999999986e+01
-1.517999999999999972e+01
-1.464000000000000057e+01
-1.601999999999999957e+01
9.075000000000000000e+01
-1.860000000000000098e+00
-2.560999999999999943e+01
9.699999999999999734e-01
-2.442999999999999972e+01
1.436999999999999922e+01
1.413000000000000078e+01
2.528000000000000114e+01
1.322000000000000064e+01
5.309999999999999609e+00
1.055000000000000071e+01
-3.007000000000000028e+01
-1.047399999999999949e+02
5.971000000000000085e+01
5.074000000000000199e+01
-5.469999999999999751e+00
-8.900000000000000133e-01
3.307000000000000028e+01
2.439999999999999858e+01
3.882000000000000028e+01
-2.465900000000000034e+02
9.892000000000000171e+01
6.107999999999999829e+01
1.389999999999999902e+00
-2.000000000000000000e+00
5.740000000000000213e+00
-1.181000000000000050e+01
2.069999999999999840e+00
-3.200000000000000067e-01
-1.374000000000000021e+01
8.009999999999999787e+00
2.014000000000000057e+01
-1.348000000000000043e+01
-3.615999999999999659e+01
1.297000000000000064e+01
6.660000000000000142e+00
-1.989999999999999991e+00
9.980000000000000426e+00
5.250000000000000000e+00
-3.109999999999999876e+00
1.985999999999999943e+01
3.067000000000000171e+01
6.299999999999999822e+00
-5.950000000000000178e+00
-1.192999999999999972e+01
-7.780000000000000249e+00
-2.644999999999999929e+01
2.501000000000000156e+01
3.032000000000000028e+01
8.293999999999999773e+01
-6.884000000000000341e+01
-1.473000000000000043e+01
1.669000000000000128e+01
3.071000000000000085e+01
1.121000000000000085e+01
-1.276999999999999957e+01
-1.764999999999999858e+01
-5.236999999999999744e+01
1.299300000000000068e+02
-4.742999999999999972e+01
-4.254999999999999716e+01
-7.645000000000000284e+01
5.759000000000000341e+01
1.653999999999999915e+01
5.289000000000000057e+01
-4.047999999999999687e+01
-1.149999999999999911e+00
3.899999999999999911e+00
-1.042099999999999937e+02
2.240000000000000213e+00
4.921999999999999886e+01
5.280000000000000249e+00
9.132999999999999829e+01
-8.265999999999999659e+01
-3.307999999999999829e+01
-1.812000000000000099e+01
-1.327999999999999936e+01
1.049000000000000021e+01
-6.456000000000000227e+01
1.944999999999999929e+01
1.235199999999999960e+02
6.077000000000000313e+01
2.207999999999999829e+01
-4.790000000000000036e+00
-2.455000000000000071e+01
-3.420000000000000284e+01
-1.121000000000000085e+01
-2.426999999999999957e+01
5.189000000000000057e+01
1.942999999999999972e+01
-3.620000000000000107e+00
3.660000000000000142e+00
2.542000000000000171e+01
1.020000000000000018e+00
2.240000000000000213e+00
-2.110000000000000142e+01
5.721000000000000085e+01
1.914000000000000057e+01
-3.357999999999999829e+01
1.327999999999999936e+01
-1.668799999999999955e+02
1.383000000000000007e+01
5.195000000000000284e+01
-2.509999999999999787e+00
-3.652000000000000313e+01
-4.203999999999999915e+01
5.303999999999999915e+01
9.212999999999999545e+01
-1.315000000000000036e+01
-4.272999999999999687e+01
1.655999999999999872e+01
-3.627000000000000313e+01
-2.125000000000000000e+01
-6.240000000000000213e+00
-8.320000000000000284e+00
1.011999999999999922e+01
4.969999999999999751e+00
-6.219999999999999751e+00
2.594000000000000128e+01
-5.860000000000000320e+00
-1.217500000000000000e+02
1.997199999999999989e+02
1.668100000000000023e+02
-1.451299999999999955e+02
-7.740000000000000568e+01
1.173000000000000043e+01
-2.764000000000000057e+01
7.350000000000000000e+01
6.064999999999999858e+01
-1.599000000000000021e+01
-1.101999999999999957e+01
2.910999999999999943e+01
-4.293999999999999773e+01
3.777000000000000313e+01
1.460999999999999943e+01
9.331000000000000227e+01
-3.939999999999999947e+00
-1.260000000000000009e+00
-6.873000000000000398e+01
-4.397999999999999687e+01
1.169999999999999929e+01
3.672999999999999687e+01
-3.911999999999999744e+01
2.164000000000000057e+01
1.409999999999999964e+01
-9.023000000000000398e+01
1.870000000000000107e+00
4.000000000000000000e+01
-5.500000000000000000e+00
1.320000000000000062e+00
8.779999999999999361e+00
-2.810000000000000053e+00
-1.067999999999999972e+01
1.571000000000000085e+01
9.160000000000000142e+00
-5.711999999999999744e+01
7.026000000000000512e+01
-2.019499999999999886e+02
1.117399999999999949e+02
3.472999999999999687e+01
4.846000000000000085e+01
-4.674000000000000199e+01
-2.700000000000000178e+00
-8.570000000000000284e+00
-4.969999999999999751e+00
2.221999999999999886e+01
-2.257000000000000028e+01
-1.105000000000000071e+01
1.008000000000000007e+01
3.359999999999999876e+00
-2.237000000000000099e+01
6.899999999999999467e-01
1.816000000000000014e+01
3.768999999999999773e+01
-4.532999999999999829e+01
1.001999999999999957e+01
1.081000000000000050e+01
-2.083999999999999986e+01
3.112000000000000099e+01
1.082000000000000028e+01
-1.146000000000000085e+01
6.080000000000000071e+00
5.219999999999999751e+00
-1.844999999999999929e+01
-3.990000000000000213e+00
-7.589999999999999858e+00
-2.410000000000000142e+00
1.025999999999999979e+01
4.549999999999999822e+00
-1.192999999999999972e+01
-1.799999999999999933e-01
2.005000000000000071e+01
-6.809999999999999609e+00
-1.516999999999999993e+01
-1.969999999999999973e+00
1.164000000000000057e+01
-1.013000000000000078e+01
1.480000000000000071e+01
4.080000000000000071e+00
-1.449000000000000021e+01
4.959999999999999964e+00
3.779999999999999805e+00
-5.980000000000000426e+00
1.879999999999999893e+00
2.355999999999999872e+01
7.129999999999999893e+00
4.345000000000000284e+01
-2.666000000000000014e+01
-4.446000000000000085e+01
-4.114999999999999858e+01
1.989000000000000057e+01
2.405000000000000071e+01
3.234000000000000341e+01
5.028999999999999915e+01
-8.246999999999999886e+01
-2.353000000000000114e+01
1.835999999999999943e+01
-4.238000000000000256e+01
2.657000000000000028e+01
2.466000000000000014e+01
-4.290000000000000036e+00
2.353999999999999915e+01
5.960000000000000142e+01
-9.900000000000000355e+00
-7.849999999999999645e+00
-4.446999999999999886e+01
3.549000000000000199e+01
-5.306000000000000227e+01
-6.347999999999999687e+01
3.191000000000000014e+01
5.614999999999999858e+01
-8.589999999999999858e+00
-4.299999999999999933e-01
-1.066000000000000014e+01
-2.719999999999999929e+01
6.759999999999999787e+00
5.480000000000000426e+00
-3.364000000000000057e+01
8.237999999999999545e+01
4.082000000000000028e+01
4.060000000000000142e+01
3.180000000000000071e+01
-7.740000000000000213e+00
-1.960000000000000142e+01
2.028999999999999915e+01
-9.650000000000000355e+00
-3.419999999999999929e+00
1.180000000000000071e+01
-7.900000000000000355e-01
1.347000000000000064e+01
9.599999999999999645e+00
-4.885000000000000142e+01
5.639999999999999680e+00
-1.889999999999999902e+00
-8.830000000000000071e+00
1.819999999999999929e+01
1.785999999999999943e+01
-2.267000000000000171e+01
-2.569000000000000128e+01
-5.830000000000000071e+00
-1.655999999999999872e+01
7.450000000000000178e+00
-1.340000000000000080e+00
3.479999999999999982e+00
1.310999999999999943e+01
-7.740000000000000213e+00
-2.648999999999999844e+01
2.925000000000000000e+01
8.699999999999999956e-01
-7.849999999999999645e+00
2.792999999999999972e+01
1.221599999999999966e+02
-3.446999999999999886e+01
-5.057999999999999829e+01
-1.701999999999999957e+01
-1.203999999999999915e+01
-2.417000000000000171e+01
6.200000000000000178e+00
-3.470000000000000195e+00
-1.732000000000000028e+01
9.589999999999999858e+00
8.599999999999999867e-01
-1.393999999999999950e+01
9.849999999999999645e+00
5.830000000000000071e+00
-8.970000000000000639e+00
-5.179999999999999716e+00
9.400000000000000355e+00
5.799999999999999600e-01
-1.216999999999999993e+01
9.710000000000000853e+00
-1.569999999999999929e+01
-8.214000000000000057e+01
2.953999999999999915e+01
5.653000000000000114e+01
-5.620000000000000107e+00
-4.269999999999999574e+00
1.130000000000000071e+01
-9.119999999999999218e+00
2.489999999999999858e+01
2.848999999999999844e+01
-4.070000000000000284e+00
-4.559999999999999609e+00
9.070000000000000284e+00
-5.009999999999999787e+00
1.343999999999999950e+01
2.246999999999999886e+01
5.410000000000000142e+00
-3.680000000000000160e+00
1.357000000000000028e+01
-3.689999999999999947e+00
-1.528999999999999915e+01
-3.580000000000000071e+00
-2.178000000000000114e+01
5.830000000000000071e+00
1.402999999999999936e+01
1.705000000000000071e+01
-3.350000000000000000e+01
-2.619999999999999929e+01
1.384999999999999964e+01
2.862999999999999901e+01
3.250999999999999801e+01
-3.343999999999999773e+01
-9.679999999999999716e+00
5.889999999999999680e+00
1.060000000000000053e+00
5.879999999999999893e+00
4.660000000000000142e+00
-4.009999999999999787e+00
-1.251999999999999957e+01
-7.139999999999999680e+00
4.269999999999999574e+00
7.580000000000000071e+00
1.280000000000000027e+00
-8.210000000000000853e+00
1.300000000000000044e+00
-1.479999999999999982e+00
-3.149999999999999911e+00
1.744999999999999929e+01
2.533999999999999986e+01
7.780000000000000249e+00
2.490000000000000213e+00
1.476999999999999957e+01
-1.025999999999999979e+01
-8.812000000000000455e+01
-2.223600000000000136e+02
1.290000000000000000e+02
1.475099999999999909e+02
1.014599999999999937e+02
-9.393000000000000682e+01
-1.398000000000000043e+01
1.373000000000000043e+01
-4.450000000000000178e+00
-2.490000000000000213e+00
2.609999999999999876e+00
-1.823999999999999844e+01
-5.271999999999999886e+01
3.153999999999999915e+01
3.100000000000000000e+01
-7.967000000000000171e+01
-2.560999999999999943e+01
7.554999999999999716e+01
-1.274000000000000021e+01
1.036999999999999922e+01
-6.700000000000000400e-01
-6.154999999999999716e+01
-9.810000000000000497e+00
-1.058999999999999986e+01
-2.142999999999999972e+01
1.903999999999999915e+01
9.580000000000000071e+00
3.069999999999999840e+00
2.560000000000000053e+00
3.778000000000000114e+01
7.820999999999999375e+01
-3.180999999999999872e+01
-1.876800000000000068e+02
-8.520999999999999375e+01
1.871899999999999977e+02
-7.006000000000000227e+01
-6.562999999999999545e+01
5.932000000000000028e+01
3.407999999999999829e+01
9.070000000000000284e+00
-3.033999999999999986e+01
2.262999999999999901e+01
5.349999999999999645e+00
-2.725000000000000000e+01
1.769999999999999929e+01
7.679999999999999716e+00
-9.070000000000000284e+00
1.350000000000000000e+01
6.790000000000000036e+00
-1.705000000000000071e+01
1.153999999999999915e+01
9.300000000000000711e+00
-1.246000000000000085e+01
3.129999999999999893e+00
1.378999999999999915e+01
-3.520000000000000018e+00
-4.889999999999999680e+00
1.835999999999999943e+01
-2.844999999999999929e+01
-3.478999999999999915e+01
1.069999999999999929e+01
-1.193999999999999950e+01
-2.123999999999999844e+01
1.241999999999999993e+01
6.500000000000000000e+00
-1.846000000000000085e+01
8.140000000000000568e+00
9.449999999999999289e+00
-6.679999999999999716e+00
6.820000000000000284e+00
1.002999999999999936e+01
-1.078999999999999915e+01
3.939999999999999947e+00
1.030000000000000071e+01
-7.919999999999999929e+00
-5.160000000000000142e+00
1.302999999999999936e+01
-3.720000000000000195e+00
-1.407000000000000028e+01
1.501999999999999957e+01
-1.000000000000000000e+00
-2.255000000000000071e+01
1.744999999999999929e+01
2.000000000000000000e+00
-2.328999999999999915e+01
1.873999999999999844e+01
2.029999999999999805e+00
-2.496999999999999886e+01
1.887000000000000099e+01
4.429999999999999716e+00
-1.914000000000000057e+01
1.334999999999999964e+01
1.008000000000000007e+01
-1.261999999999999922e+01
8.939999999999999503e+00
9.500000000000000000e+00
-1.080000000000000071e+01
-8.439999999999999503e+00
7.959999999999999964e+00
-9.990000000000000213e+00
2.471999999999999886e+01
-2.242999999999999972e+01
1.252999999999999936e+01
-2.907999999999999829e+01
3.030000000000000071e+01
2.839999999999999858e+01
5.799999999999999600e-01
4.870000000000000107e+00
3.495000000000000284e+01
-1.015199999999999960e+02
1.080900000000000034e+02
6.049000000000000199e+01
2.235000000000000142e+01
-3.589999999999999858e+00
-8.706000000000000227e+01
-1.520000000000000018e+00
3.828000000000000114e+01
5.230000000000000426e+00
-7.981999999999999318e+01
2.862000000000000099e+01
9.392000000000000171e+01
-1.256000000000000050e+01
2.116000000000000014e+01
6.178999999999999915e+01
1.391999999999999993e+01
-2.157000000000000028e+01
3.653999999999999915e+01
-4.107000000000000028e+01
5.095000000000000284e+01
1.870000000000000107e+00
-6.559000000000000341e+01
4.457000000000000028e+01
5.553999999999999915e+01
-7.350000000000000000e+01
-3.119999999999999929e+01
6.659000000000000341e+01
7.985999999999999943e+01
-6.260000000000000142e+01
-9.317000000000000171e+01
5.507000000000000028e+01
5.925999999999999801e+01
5.471000000000000085e+01
-1.196500000000000057e+02
-5.553999999999999915e+01
4.447999999999999687e+01
4.589000000000000057e+01
-1.548000000000000043e+01
-6.070000000000000284e+00
-8.210000000000000853e+00
1.172000000000000064e+01
-6.830000000000000071e+00
-1.648999999999999844e+01
4.240000000000000213e+00
1.328999999999999915e+01
1.069999999999999929e+01
1.764000000000000057e+01
4.349999999999999645e+00
7.000000000000000666e-02
-3.169999999999999929e+00
1.263000000000000078e+01
1.414000000000000057e+01
-1.710000000000000142e+01
6.790000000000000036e+00
-1.200000000000000000e+01
1.253999999999999915e+01
1.778999999999999915e+01
-6.820000000000000284e+00
7.299999999999999822e-01
1.692999999999999972e+01
2.078000000000000114e+01
3.317999999999999972e+01
2.044000000000000128e+01
3.479999999999999982e+00
5.696999999999999886e+01
6.099999999999999867e-01
1.979999999999999982e+00
-1.311999999999999922e+01
-3.580000000000000071e+00
-1.283000000000000007e+01
-5.129999999999999893e+00
4.370000000000000107e+00
-2.419999999999999929e+00
-6.500000000000000000e+00
-6.400000000000000355e+00
-1.225999999999999979e+01
9.370000000000000284e+01
-5.547999999999999687e+01
2.308999999999999986e+01
2.383400000000000034e+02
-4.197999999999999687e+01
-1.366999999999999886e+02
-5.671000000000000085e+01
8.949999999999999289e+00
-6.599999999999999645e+00
3.318600000000000136e+02
-3.957000000000000028e+01
-8.701000000000000512e+01
1.198000000000000043e+01
2.687000000000000099e+01
3.217999999999999972e+01
-1.449000000000000021e+01
-7.280000000000000249e+00
-4.570000000000000284e+00
1.015000000000000036e+01
2.257999999999999829e+01
-4.818999999999999773e+01
8.264000000000000057e+01
-1.031500000000000057e+02
1.962999999999999901e+01
3.196999999999999886e+01
-8.893000000000000682e+01
2.796000000000000085e+01
1.390600000000000023e+02
5.492000000000000171e+01
-4.722999999999999687e+01
-1.931100000000000136e+02
7.345999999999999375e+01
6.089999999999999858e+00
-2.760999999999999943e+01
6.931999999999999318e+01
1.469999999999999973e+00
-1.425999999999999979e+01
-6.429999999999999716e+00
-1.269999999999999929e+01
8.949999999999999289e+00
3.196999999999999886e+01
1.090999999999999943e+02
-2.701999999999999957e+01
1.933999999999999986e+01
1.006000000000000050e+01
4.490000000000000213e+00
-3.700000000000000178e+00
5.810000000000000142e+01
5.018999999999999773e+01
-9.434000000000000341e+01
-2.539000000000000057e+01
1.605000000000000071e+01
9.201999999999999602e+01
-1.274000000000000057e+02
5.571999999999999886e+01
1.878999999999999915e+01
4.269999999999999574e+00
3.040000000000000036e+00
-4.009999999999999787e+00
-2.192999999999999972e+01
7.910000000000000142e+00
8.000000000000000167e-02
-1.269999999999999929e+01
2.417000000000000171e+01
8.630000000000000782e+00
-2.244000000000000128e+01
1.239000000000000057e+01
-4.699999999999999734e-01
-2.853999999999999915e+01
7.330000000000000071e+00
2.014000000000000057e+01
-4.220000000000000284e+01
7.045999999999999375e+01
-3.080000000000000071e+00
-7.009999999999999787e+00
5.190000000000000391e+00
8.060000000000000497e+00
-9.269999999999999574e+00
4.110000000000000320e+00
1.268999999999999950e+01
-8.390000000000000568e+00
-5.490000000000000213e+00
1.348000000000000043e+01
-4.500000000000000000e+00
-1.209999999999999964e+01
1.992000000000000171e+01
7.600000000000000089e-01
-1.565000000000000036e+01
1.757000000000000028e+01
6.610000000000000320e+00
-2.039000000000000057e+01
8.830000000000000071e+00
-3.979999999999999982e+00
-2.107000000000000028e+01
1.118999999999999950e+01
-1.429999999999999938e+00
-2.139999999999999858e+01
1.966000000000000014e+01
1.493999999999999950e+01
-3.636999999999999744e+01
-7.879999999999999893e+00
-3.253999999999999915e+01
-1.428999999999999915e+01
2.278999999999999915e+01
9.949999999999999289e+00
-1.248000000000000043e+01
2.021000000000000085e+01
8.429999999999999716e+00
-1.347000000000000064e+01
1.583000000000000007e+01
7.410000000000000142e+00
-7.959999999999999964e+00
3.699999999999999956e-01
2.775000000000000000e+01
-2.275000000000000000e+01
-2.553999999999999915e+01
1.347000000000000064e+01
5.780000000000000249e+00
-1.238000000000000078e+01
9.560000000000000497e+00
2.740000000000000213e+00
-8.050000000000000711e+00
7.849999999999999645e+00
6.299999999999999822e+00
-1.038000000000000078e+01
8.339999999999999858e+00
5.549999999999999822e+00
-2.523000000000000043e+01
2.709999999999999964e+00
7.480000000000000426e+00
-9.359999999999999432e+00
7.070000000000000284e+00
-1.489999999999999991e+00
-1.039000000000000057e+01
5.870000000000000107e+00
3.649999999999999911e+00
-6.009999999999999787e+00
2.660000000000000142e+00
1.226999999999999957e+01
-1.080000000000000071e+00
-1.435999999999999943e+01
9.109999999999999432e+00
2.020000000000000018e+00
-9.699999999999999289e+00
8.939999999999999503e+00
2.509999999999999787e+00
-9.740000000000000213e+00
6.120000000000000107e+00
5.950000000000000178e+00
-4.780000000000000249e+00
-2.350000000000000089e+00
7.780000000000000249e+00
-2.800000000000000266e-01
-1.165000000000000036e+01
3.370000000000000107e+00
1.300000000000000044e-01
-1.873999999999999844e+01
1.840000000000000080e+00
3.914999999999999858e+01
-9.740999999999999659e+01
-1.300000000000000044e-01
1.450099999999999909e+02
1.514000000000000057e+01
2.669000000000000128e+01
-1.641000000000000014e+01
-1.880999999999999872e+01
3.400000000000000244e-01
1.860999999999999943e+01
3.259000000000000341e+01
-6.480000000000000426e+00
-5.136999999999999744e+01
-1.234999999999999964e+01
7.750000000000000000e+00
2.671000000000000085e+01
4.054999999999999716e+01
-1.712000000000000099e+01
1.810000000000000053e+00
-1.405000000000000071e+01
-5.560000000000000142e+01
-2.685999999999999943e+01
4.192000000000000171e+01
1.628999999999999915e+01
5.320000000000000284e+00
6.339999999999999858e+00
-1.333000000000000007e+01
2.087000000000000099e+01
-1.362299999999999898e+02
-1.269999999999999929e+01
3.621999999999999886e+01
8.929999999999999716e+00
-2.235999999999999943e+01
2.748000000000000043e+01
-2.464000000000000057e+01
-3.342999999999999972e+01
7.793000000000000682e+01
3.403000000000000114e+01
-6.790000000000000568e+01
2.128000000000000114e+01
4.440000000000000391e+00
-1.168999999999999950e+01
-1.439999999999999947e+00
1.391000000000000014e+01
-9.599999999999999645e-01
-2.337999999999999901e+01
1.669000000000000128e+01
4.600000000000000200e-01
-2.189999999999999858e+01
1.434999999999999964e+01
3.080000000000000071e+00
-1.817999999999999972e+01
9.580000000000000071e+00
3.100000000000000089e+00
-1.953999999999999915e+01
2.028000000000000114e+01
1.407000000000000028e+01
-7.480000000000000426e+00
3.359999999999999876e+00
1.196000000000000085e+01
-6.600000000000000311e-01
-1.173000000000000043e+01
2.728999999999999915e+01
1.027300000000000040e+02
-1.113700000000000045e+02
-1.122000000000000064e+01
-1.916000000000000014e+01
-6.740000000000000213e+00
-4.320000000000000284e+00
-1.372800000000000011e+02
2.116000000000000014e+01
2.726000000000000156e+01
-1.364000000000000057e+01
-2.176999999999999957e+01
1.844000000000000128e+01
7.950000000000000178e+00
-1.730000000000000071e+01
2.180999999999999872e+01
1.184999999999999964e+01
-1.032000000000000028e+01
8.009999999999999787e+00
1.703999999999999915e+01
-4.040000000000000036e+00
2.000000000000000000e+00
1.486999999999999922e+01
-2.839999999999999858e+00
-1.198000000000000043e+01
1.366999999999999993e+01
-1.669999999999999929e+00
-2.562999999999999901e+01
1.896000000000000085e+01
6.879999999999999893e+00
-2.171999999999999886e+01
1.230000000000000071e+01
2.255000000000000071e+01
1.199999999999999956e-01
-2.085000000000000142e+01
1.143999999999999950e+01
-9.990000000000000213e+00
-5.889999999999999858e+01
-1.682500000000000000e+02
8.631000000000000227e+01
2.896999999999999886e+01
7.707999999999999829e+01
1.191000000000000014e+01
-1.350000000000000000e+01
2.919000000000000128e+01
6.790000000000000036e+00
-2.351000000000000156e+01
6.330000000000000071e+00
9.519999999999999574e+00
-7.450000000000000178e+00
1.260000000000000009e+00
1.410999999999999943e+01
-4.469999999999999751e+00
-1.075000000000000000e+01
6.754999999999999716e+01
2.160000000000000142e+01
-7.575000000000000000e+01
1.125300000000000011e+02
-1.196899999999999977e+02
-1.065600000000000023e+02
-2.360999999999999943e+01
2.342000000000000171e+01
4.199999999999999845e-01
1.583999999999999986e+01
1.281000000000000050e+01
-6.099999999999999867e-01
2.176999999999999957e+01
1.381000000000000050e+01
-1.274000000000000021e+01
5.410000000000000142e+00
2.032000000000000028e+01
-3.014999999999999858e+01
2.001999999999999957e+01
2.819000000000000128e+01
-3.592000000000000171e+01
-1.197000000000000064e+01
1.046000000000000085e+01
1.808999999999999986e+01
4.489999999999999858e+01
-4.969999999999999751e+00
1.046000000000000085e+01
1.748400000000000034e+02
-7.412000000000000455e+01
-8.295999999999999375e+01
-1.536699999999999875e+02
2.744000000000000128e+01
9.151000000000000512e+01
9.490000000000000568e+01
-2.096000000000000085e+01
-1.178199999999999932e+02
5.350999999999999801e+01
6.109000000000000341e+01
-6.910000000000000142e+00
-1.591999999999999993e+01
2.040000000000000036e+00
4.969999999999999751e+00
-1.180000000000000071e+01
1.596000000000000085e+01
2.870000000000000107e+00
-2.235999999999999943e+01
1.826999999999999957e+01
1.639999999999999858e+01
-1.042999999999999972e+01
5.620000000000000107e+00
4.950000000000000178e+00
-1.455000000000000071e+01
1.635000000000000142e+01
-1.973000000000000043e+01
2.278000000000000114e+01
3.440999999999999659e+01
-7.370000000000000107e+00
3.564000000000000057e+01
-8.264000000000000057e+01
1.807000000000000028e+01
-6.267999999999999972e+01
8.073999999999999488e+01
-6.743000000000000682e+01
-1.031000000000000050e+01
-3.428000000000000114e+01
2.137999999999999901e+01
2.073999999999999844e+01
-1.853999999999999915e+01
2.270000000000000018e+00
3.565999999999999659e+01
6.637000000000000455e+01
-8.212000000000000455e+01
-1.492999999999999972e+01
6.509999999999999787e+00
-1.800000000000000044e+00
9.710999999999999943e+01
-6.718999999999999773e+01
4.888000000000000256e+01
-2.996999999999999886e+01
2.482999999999999829e+01
-2.055999999999999872e+01
4.017000000000000171e+01
3.764999999999999858e+01
-2.032000000000000028e+01
3.478000000000000114e+01
-2.446999999999999886e+01
-1.150999999999999979e+01
4.750000000000000000e+01
-8.226999999999999602e+01
5.632999999999999829e+01
-6.821999999999999886e+01
1.764000000000000057e+01
-5.967000000000000171e+01
4.261999999999999744e+01
1.559999999999999964e+01
-1.070000000000000062e+00
3.580000000000000071e+00
2.209999999999999964e+00
-8.169999999999999929e+00
9.100000000000000311e-01
9.740000000000000213e+00
-1.103999999999999915e+01
2.091000000000000014e+01
1.141400000000000006e+02
-2.823999999999999844e+01
-1.639000000000000057e+01
-4.629999999999999893e+00
-1.998999999999999844e+01
-6.042999999999999972e+01
-3.295000000000000284e+01
6.787999999999999545e+01
-2.741000000000000014e+01
2.387999999999999901e+01
3.678000000000000114e+01
-3.910000000000000142e+00
1.737999999999999901e+01
5.780000000000000249e+00
-1.233999999999999986e+01
-4.070000000000000284e+00
1.089000000000000057e+01
1.149999999999999911e+00
-9.500000000000000000e+00
6.059999999999999609e+00
7.600000000000000089e-01
-1.991000000000000014e+01
1.208999999999999986e+01
2.292000000000000171e+01
5.543999999999999773e+01
-3.557000000000000028e+01
-2.790000000000000036e+00
-1.042999999999999972e+01
1.397000000000000064e+01
-5.690000000000000391e+00
-2.794000000000000128e+01
-2.614999999999999858e+01
-3.896999999999999886e+01
4.978000000000000114e+01
-1.914000000000000057e+01
3.424000000000000199e+01
3.645000000000000284e+01
3.599999999999999867e-01
-1.075999999999999979e+01
9.448000000000000398e+01
9.045999999999999375e+01
-3.425999999999999801e+01
1.476800000000000068e+02
-9.203000000000000114e+01
2.887000000000000099e+01
2.896999999999999886e+01
-1.721000000000000085e+01
-1.268999999999999950e+01
1.072000000000000064e+01
-5.620000000000000107e+00
-1.296000000000000085e+01
2.987999999999999901e+01
1.148000000000000043e+01
-1.085999999999999943e+01
-1.719999999999999973e+00
4.610000000000000320e+00
-2.446999999999999886e+01
-4.257999999999999829e+01
7.840999999999999659e+01
3.570000000000000284e+01
-5.602000000000000313e+01
3.119999999999999929e+01
1.717999999999999972e+01
-1.726999999999999957e+01
1.546000000000000085e+01
2.389000000000000057e+01
-9.109999999999999432e+01
2.369000000000000128e+01
2.539000000000000057e+01
1.053199999999999932e+02
-3.310000000000000142e+01
-1.655999999999999872e+01
-2.098000000000000043e+01
-5.000000000000000000e-01
9.240000000000000213e+00
-8.599999999999999645e+00
4.169999999999999929e+00
8.779999999999999361e+00
-8.230000000000000426e+00
-8.919999999999999929e+00
1.502999999999999936e+01
-2.149999999999999911e+00
-1.648999999999999844e+01
2.310000000000000142e+01
2.529999999999999805e+00
-2.053999999999999915e+01
2.630999999999999872e+01
4.110000000000000320e+00
-1.626000000000000156e+01
1.361999999999999922e+01
3.970000000000000195e+00
-1.689999999999999858e+01
1.366000000000000014e+01
6.799999999999999822e+00
-1.094999999999999929e+01
-1.221000000000000085e+01
1.125000000000000000e+01
-3.990000000000000213e+00
-1.191999999999999993e+01
1.102999999999999936e+01
1.015000000000000036e+01
-1.306000000000000050e+01
1.008999999999999986e+01
-1.899999999999999911e+00
-1.675000000000000000e+01
6.110000000000000320e+00
4.889999999999999680e+00
-8.960000000000000853e+00
3.410000000000000142e+00
8.199999999999999289e+00
-6.940000000000000391e+00
4.500000000000000111e-01
6.759999999999999787e+00
-6.019999999999999574e+00
-9.740000000000000213e+00
8.060000000000000497e+00
-3.750000000000000000e+00
-1.625000000000000000e+01
1.365000000000000036e+01
-5.000000000000000278e-02
-1.258000000000000007e+01
1.698000000000000043e+01
4.549999999999999822e+00
-8.960000000000000853e+00
6.030000000000000249e+00
2.259999999999999787e+00
-7.679999999999999716e+00
-8.000000000000000444e-01
1.459999999999999964e+01
-9.279999999999999361e+00
-1.008000000000000007e+01
4.019999999999999574e+00
2.470000000000000195e+00
-6.450000000000000178e+00
5.669999999999999929e+00
1.870000000000000107e+00
-1.385999999999999943e+01
1.474000000000000021e+01
1.530000000000000027e+00
-1.950000000000000000e+01
1.097000000000000064e+01
7.549999999999999822e+00
-1.138000000000000078e+01
1.692000000000000171e+01
3.720000000000000195e+00
-1.855000000000000071e+01
4.339999999999999858e+00
6.999999999999999556e-01
-1.197000000000000064e+01
1.739999999999999858e+01
1.117999999999999972e+01
-3.029999999999999805e+00
3.924000000000000199e+01
-7.373999999999999488e+01
-2.562000000000000099e+01
1.337899999999999920e+02
-4.421999999999999886e+01
8.460000000000000853e+00
1.291999999999999993e+01
8.589999999999999858e+00
2.296999999999999886e+01
-2.959999999999999964e+00
2.029999999999999805e+00
5.799999999999999822e+00
-9.300000000000000488e-01
2.092000000000000171e+01
5.410000000000000142e+00
4.849999999999999645e+00
-3.664999999999999858e+01
-9.960000000000000853e+00
-2.142000000000000171e+01
-5.089999999999999858e+00
1.485999999999999943e+01
4.199999999999999845e-01
-2.140000000000000124e+00
7.500000000000000000e+00
-1.219999999999999973e+00
-1.435999999999999943e+01
1.260000000000000009e+00
-1.165000000000000036e+01
-5.053999999999999915e+01
-4.635000000000000142e+01
1.624499999999999886e+02
-9.631000000000000227e+01
5.919999999999999929e+00
9.359999999999999432e+00
-7.080000000000000071e+00
8.830000000000000071e+00
9.560000000000000497e+00
-2.640000000000000124e+00
-9.089999999999999858e+00
2.200000000000000178e+00
-1.800000000000000000e+01
-3.094000000000000128e+01
1.120799999999999983e+02
-5.450000000000000178e+00
-5.650000000000000355e+00
-3.069999999999999840e+00
-1.432000000000000028e+01
-4.888000000000000256e+01
3.546000000000000085e+01
-2.605999999999999872e+01
2.912000000000000099e+01
-8.339999999999999858e+00
-1.393999999999999950e+01
4.449000000000000199e+01
1.382199999999999989e+02
-1.408700000000000045e+02
3.409000000000000341e+01
8.169999999999999929e+00
1.133499999999999943e+02
-4.342999999999999972e+01
-1.828999999999999915e+01
-4.500000000000000000e+00
1.402999999999999936e+01
-2.471000000000000085e+01
6.549999999999999822e+00
6.280000000000000249e+00
-1.133000000000000007e+01
2.500000000000000000e-01
1.853999999999999915e+01
-5.190000000000000391e+00
-2.351000000000000156e+01
6.500000000000000000e+00
7.040000000000000036e+00
2.278000000000000114e+01
2.062000000000000099e+01
8.380000000000000782e+00
-3.250000000000000000e+01
-6.000000000000000000e+00
1.532000000000000028e+01
-5.299999999999999822e+00
-1.971999999999999886e+01
2.026000000000000156e+01
4.450000000000000178e+00
-1.926000000000000156e+01
1.503999999999999915e+01
1.264000000000000057e+01
-4.740000000000000213e+00
-1.181000000000000050e+01
1.646999999999999886e+01
1.770000000000000018e+00
-2.203999999999999915e+01
1.389000000000000057e+01
7.199999999999999734e-01
-1.964000000000000057e+01
1.230000000000000071e+01
1.083999999999999986e+01
-9.490000000000000213e+00
-1.067999999999999972e+01
1.669000000000000128e+01
8.499999999999999778e-01
-2.489000000000000057e+01
1.900000000000000000e+01
4.240000000000000213e+00
-2.105000000000000071e+01
1.285999999999999943e+01
1.251999999999999957e+01
-9.369999999999999218e+00
-1.157000000000000028e+01
2.030999999999999872e+01
1.659999999999999920e+00
-2.717000000000000171e+01
2.037999999999999901e+01
9.099999999999999645e+00
-1.340000000000000036e+01
3.359999999999999876e+00
1.248000000000000043e+01
-8.250000000000000000e+00
-1.776000000000000156e+01
1.932000000000000028e+01
2.549999999999999822e+00
-2.810999999999999943e+01
7.049999999999999822e+00
-1.041000000000000014e+01
1.418999999999999950e+01
9.330000000000000071e+00
1.508999999999999986e+01
-7.790000000000000036e+00
-1.364000000000000057e+01
1.333000000000000007e+01
-7.900000000000000355e-01
-2.939000000000000057e+01
1.328999999999999915e+01
1.719999999999999973e+00
-1.646000000000000085e+01
1.289000000000000057e+01
1.373000000000000043e+01
-6.150000000000000355e+00
-5.570000000000000284e+00
1.241000000000000014e+01
-1.070000000000000062e+00
-1.994999999999999929e+01
1.655999999999999872e+01
-1.790000000000000036e+00
-2.621999999999999886e+01
1.889999999999999858e+01
6.059999999999999609e+00
-1.177999999999999936e+01
5.480000000000000426e+00
1.798999999999999844e+01
-4.799999999999999822e+00
-4.419999999999999929e+00
7.309999999999999609e+00
6.400000000000000355e+00
-1.876000000000000156e+01
8.800000000000000711e+00
3.220000000000000195e+00
-1.577999999999999936e+01
1.172000000000000064e+01
7.089999999999999858e+00
-6.089999999999999858e+00
-4.230000000000000426e+00
1.150000000000000000e+01
-3.279999999999999805e+00
-2.416000000000000014e+01
1.438000000000000078e+01
2.720000000000000195e+00
-9.949999999999999289e+00
4.309999999999999609e+00
-9.200000000000000400e-01
-1.742999999999999972e+01
-3.400000000000000244e-01
2.823999999999999844e+01
-1.103999999999999915e+01
1.082000000000000028e+01
3.240000000000000213e+00
-1.225000000000000000e+02
6.534000000000000341e+01
2.259999999999999787e+00
2.950000000000000178e+00
3.553000000000000114e+01
-9.619999999999999218e+00
-1.108000000000000007e+01
1.667000000000000171e+01
-6.600000000000000311e-01
-1.837999999999999901e+01
1.419999999999999929e+01
-6.899999999999999467e-01
-1.461999999999999922e+01
1.703000000000000114e+01
5.200000000000000178e+00
-1.438000000000000078e+01
9.880000000000000782e+00
-1.739999999999999991e+00
-2.137000000000000099e+01
1.350999999999999979e+01
-1.115000000000000036e+01
-1.744000000000000128e+01
1.032000000000000028e+01
1.215000000000000036e+01
-1.115000000000000036e+01
8.029999999999999361e+00
1.662999999999999901e+01
-3.009999999999999787e+00
-1.851000000000000156e+01
2.101000000000000156e+01
4.830000000000000071e+00
-2.117999999999999972e+01
1.851999999999999957e+01
7.200000000000000178e+00
-1.658999999999999986e+01
1.128999999999999915e+01
1.066999999999999993e+01
-6.160000000000000142e+00
-8.710000000000000853e+00
1.411999999999999922e+01
1.499999999999999944e-01
-2.137999999999999901e+01
1.632999999999999829e+01
5.500000000000000000e+00
-1.466000000000000014e+01
2.169999999999999929e+00
9.000000000000000222e-01
1.498000000000000043e+01
7.873000000000000398e+01
-4.789000000000000057e+01
4.269999999999999574e+00
1.415000000000000036e+01
-2.099999999999999922e-01
-1.703700000000000045e+02
-4.599999999999999645e+00
4.613000000000000256e+01
-2.729999999999999982e+00
-1.530000000000000027e+00
-1.980000000000000071e+01
2.019999999999999929e+01
-6.934000000000000341e+01
-1.903100000000000023e+02
2.285099999999999909e+02
7.765999999999999659e+01
4.460999999999999943e+01
2.717999999999999972e+01
2.339999999999999858e+00
-1.558999999999999986e+01
1.032000000000000028e+01
-8.099999999999999645e+00
-1.560999999999999943e+01
7.799999999999999822e+00
9.100000000000000311e-01
-1.275999999999999979e+01
5.879999999999999893e+00
1.425999999999999979e+01
3.525999999999999801e+01
-2.762000000000000099e+01
-6.089999999999999858e+00
-2.583999999999999986e+01
-6.953000000000000114e+01
4.484000000000000341e+01
2.689000000000000057e+01
-7.584000000000000341e+01
-1.484999999999999964e+01
6.125999999999999801e+01
1.129999999999999893e+00
2.189999999999999947e+00
-1.646000000000000085e+01
1.269999999999999929e+01
2.301999999999999957e+01
-3.232000000000000028e+01
6.959000000000000341e+01
1.540000000000000036e+01
-4.956000000000000227e+01
-2.855000000000000071e+01
-1.097000000000000064e+01
-1.853000000000000114e+01
-5.022999999999999687e+01
5.200000000000000178e-01
1.083900000000000006e+02
-8.806000000000000227e+01
2.667000000000000171e+01
5.422999999999999687e+01
2.512000000000000099e+01
-3.964000000000000057e+01
-7.320000000000000284e+00
-4.709999999999999964e+00
-1.889000000000000057e+01
-4.711999999999999744e+01
6.519999999999999574e+00
5.009999999999999787e+00
-1.757999999999999829e+01
-2.389000000000000057e+01
1.807000000000000028e+01
3.764999999999999858e+01
-2.819000000000000128e+01
5.182999999999999829e+01
-5.719999999999999751e+00
-1.017800000000000011e+02
-4.635000000000000142e+01
1.004899999999999949e+02
7.719999999999999751e+00
-1.526299999999999955e+02
4.493999999999999773e+01
1.114000000000000057e+02
-3.635000000000000142e+01
3.403999999999999915e+01
1.762999999999999901e+01
-2.962999999999999901e+01
-6.309000000000000341e+01
-3.785999999999999943e+01
-2.007999999999999829e+01
1.169999999999999929e+01
-1.730999999999999872e+01
-1.253999999999999915e+01
-1.908999999999999986e+01
1.885000000000000142e+01
1.669999999999999929e+01
-1.667999999999999972e+01
8.669999999999999929e+00
2.217999999999999972e+01
-9.050000000000000711e+00
-4.742999999999999972e+01
1.803999999999999915e+01
1.064000000000000057e+01
1.835999999999999943e+01
4.310000000000000142e+01
9.754000000000000625e+01
-2.955000000000000071e+01
-1.148900000000000006e+02
1.425000000000000000e+01
2.399999999999999911e-01
-1.302999999999999936e+01
1.687000000000000099e+01
2.160000000000000142e+00
-1.233000000000000007e+01
3.100000000000000089e+00
5.780000000000000249e+00
2.319999999999999840e+00
-2.120000000000000107e+00
1.229999999999999982e+00
-4.620000000000000107e+00
-1.628999999999999915e+01
1.596000000000000085e+01
8.070000000000000284e+00
-1.632999999999999829e+01
3.029999999999999805e+00
-1.406000000000000050e+01
-2.044000000000000128e+01
1.013000000000000078e+01
2.019000000000000128e+01
-4.339999999999999858e+00
-2.051000000000000156e+01
5.378999999999999915e+01
-1.132000000000000028e+01
-3.076999999999999957e+01
8.470000000000000639e+00
4.150000000000000355e+00
-2.160999999999999943e+01
1.357000000000000028e+01
1.338000000000000078e+01
-3.779999999999999805e+00
5.000000000000000000e+00
5.559999999999999609e+00
-7.190000000000000391e+00
-9.710000000000000853e+00
1.013000000000000078e+01
-1.016999999999999993e+01
-4.229999999999999716e+01
-5.350000000000000000e+01
-6.254999999999999716e+01
-4.152000000000000313e+01
8.201000000000000512e+01
-6.462999999999999545e+01
-1.568999999999999950e+01
-2.529999999999999805e+00
7.849999999999999645e+00
-2.560000000000000053e+00
-1.277999999999999936e+01
1.291000000000000014e+01
1.459999999999999964e+00
-1.728999999999999915e+01
1.525000000000000000e+01
7.009999999999999787e+00
-1.076999999999999957e+01
4.209999999999999964e+00
4.110000000000000320e+00
-1.182000000000000028e+01
-9.519999999999999574e+00
8.359999999999999432e+00
-3.379999999999999716e+01
-9.442000000000000171e+01
4.856000000000000227e+01
7.725000000000000000e+01
-5.429999999999999716e+01
3.334000000000000341e+01
2.751999999999999957e+01
1.467999999999999972e+01
-1.354900000000000091e+02
-3.243999999999999773e+01
-1.384199999999999875e+02
7.121999999999999886e+01
4.718999999999999773e+01
1.467999999999999972e+01
5.803999999999999915e+01
-3.332000000000000028e+01
-2.919000000000000128e+01
2.419000000000000128e+01
5.269999999999999574e+00
1.008000000000000007e+01
-1.232000000000000028e+01
-1.676999999999999957e+01
-3.988000000000000256e+01
1.046400000000000006e+02
-6.309000000000000341e+01
-1.969000000000000128e+01
2.980999999999999872e+01
2.112999999999999901e+01
-7.734999999999999432e+01
4.075000000000000000e+01
4.000000000000000083e-02
-7.549999999999999822e+00
1.500000000000000000e+01
7.950000000000000178e+00
-1.099000000000000021e+01
3.289000000000000057e+01
-2.260000000000000142e+01
-1.585999999999999943e+01
2.251000000000000156e+01
-3.629999999999999893e+00
2.540000000000000036e+00
-3.318999999999999773e+01
-3.560000000000000053e+00
1.448499999999999943e+02
-4.810000000000000142e+01
-1.125199999999999960e+02
6.382000000000000028e+01
3.222999999999999687e+01
4.175999999999999801e+01
1.325500000000000114e+02
3.917999999999999972e+01
1.455000000000000071e+01
-1.051299999999999955e+02
-1.722700000000000102e+02
-9.809999999999999432e+01
1.366299999999999955e+02
7.629999999999999716e+01
-2.710000000000000142e+01
-8.599999999999999867e-01
9.349999999999999645e+00
-2.937999999999999901e+01
-9.320000000000000284e+00
1.498000000000000043e+01
-1.651999999999999957e+01
5.247999999999999687e+01
5.996000000000000085e+01
2.830999999999999872e+01
-4.710000000000000142e+01
-6.912000000000000455e+01
1.524000000000000021e+01
6.784999999999999432e+01
9.519999999999999574e+00
1.027999999999999936e+01
-3.518999999999999773e+01
-8.376000000000000512e+01
1.144300000000000068e+02
3.899000000000000199e+01
-2.637999999999999901e+01
-2.839999999999999858e+00
-5.000000000000000278e-02
-2.848000000000000043e+01
2.796000000000000085e+01
-6.959999999999999964e+00
-1.021400000000000006e+02
5.610000000000000142e+01
2.135999999999999943e+01
-1.167999999999999972e+01
3.427000000000000313e+01
-4.345000000000000284e+01
2.785999999999999943e+01
3.982000000000000028e+01
-1.985000000000000000e+02
2.100000000000000089e+00
1.315000000000000000e+02
1.994499999999999886e+02
-1.138799999999999955e+02
-2.998999999999999844e+01
1.900000000000000022e-01
-1.100000000000000000e+01
-2.162999999999999901e+01
2.233999999999999986e+01
-7.219999999999999751e+00
-3.224000000000000199e+01
2.060999999999999943e+01
3.529999999999999716e+01
1.032000000000000028e+01
-1.951999999999999957e+01
1.273000000000000043e+01
5.019999999999999574e+00
-1.764000000000000057e+01
1.146000000000000085e+01
4.240000000000000213e+00
-9.429999999999999716e+00
2.959999999999999964e+00
6.400000000000000355e+00
-3.689999999999999947e+00
-6.929999999999999716e+00
1.022000000000000064e+01
-2.839999999999999858e+00
-1.817999999999999972e+01
1.434999999999999964e+01
-1.357000000000000028e+01
-1.660999999999999943e+01
1.200999999999999979e+01
2.399999999999999911e+00
-1.703999999999999915e+01
1.605999999999999872e+01
1.190000000000000036e+01
-8.160000000000000142e+00
-5.419999999999999929e+00
4.459999999999999964e+00
1.944000000000000128e+01
-4.434000000000000341e+01
5.017999999999999972e+01
-1.126999999999999957e+01
-1.767000000000000171e+01
2.742000000000000171e+01
3.815999999999999659e+01
-1.362400000000000091e+02
-5.599999999999999645e+00
1.217099999999999937e+02
-7.020000000000000284e+01
2.430000000000000160e+00
6.568000000000000682e+01
7.806000000000000227e+01
-4.702000000000000313e+01
-1.558700000000000045e+02
2.450000000000000000e+01
1.086299999999999955e+02
9.567000000000000171e+01
-4.904999999999999716e+01
-7.740999999999999659e+01
-7.601000000000000512e+01
1.056200000000000045e+02
9.250000000000000000e+01
-1.876299999999999955e+02
1.020400000000000063e+02
6.850000000000000000e+01
-7.059999999999999609e+00
-2.033999999999999986e+01
9.109999999999999432e+00
1.010999999999999943e+01
-2.289000000000000057e+01
2.096000000000000085e+01
-5.817999999999999972e+01
-3.390000000000000124e+00
9.804999999999999716e+01
3.709999999999999964e+00
4.160000000000000142e+00
8.337000000000000455e+01
-6.892000000000000171e+01
2.846999999999999886e+01
-2.362999999999999901e+01
-1.316000000000000014e+01
1.248000000000000043e+01
-1.353999999999999915e+01
1.242999999999999972e+01
1.350000000000000089e+00
-9.740000000000000213e+00
1.125000000000000000e+01
4.070000000000000284e+00
-6.450000000000000178e+00
4.299999999999999822e+00
1.459999999999999964e+00
-9.580000000000000071e+00
-1.015000000000000036e+01
-8.500000000000000000e+00
3.411999999999999744e+01
-5.742000000000000171e+01
-4.620000000000000107e+00
-5.072999999999999687e+01
6.199000000000000199e+01
-7.920000000000000284e+01
-4.171999999999999886e+01
4.842000000000000171e+01
-2.746000000000000085e+01
6.353000000000000114e+01
1.346999999999999886e+02
2.805000000000000071e+01
-3.746999999999999886e+01
-4.999000000000000199e+01
-2.208999999999999986e+01
-2.982999999999999829e+01
-1.165900000000000034e+02
2.648600000000000136e+02
1.374000000000000021e+01
-2.632000000000000028e+01
6.146000000000000085e+01
1.169999999999999929e+01
-1.430600000000000023e+02
1.580399999999999920e+02
-1.866500000000000057e+02
1.651999999999999886e+02
-1.291599999999999966e+02
9.318000000000000682e+01
6.207999999999999829e+01
2.183999999999999986e+01
-6.835999999999999943e+01
-1.242800000000000011e+02
-1.310600000000000023e+02
1.052699999999999960e+02
-1.136599999999999966e+02
2.020000000000000018e+00
1.052999999999999972e+02
2.899999999999999911e+00
-3.314999999999999858e+01
3.832999999999999829e+01
3.069000000000000128e+01
-1.108999999999999986e+01
3.653999999999999915e+01
1.532599999999999909e+02
-8.176999999999999602e+01
-1.292199999999999989e+02
-1.887000000000000099e+01
-3.037999999999999901e+01
5.900000000000000355e+00
2.748999999999999844e+01
-2.071000000000000085e+01
-3.364000000000000057e+01
1.156000000000000050e+01
2.417999999999999972e+01
-4.579999999999999716e+01
6.968000000000000682e+01
1.075400000000000063e+02
-8.392000000000000171e+01
3.490000000000000213e+00
-2.660999999999999943e+01
-4.671000000000000085e+01
3.692999999999999972e+01
-8.648000000000000398e+01
-1.580000000000000071e+01
4.585999999999999943e+01
-6.320000000000000284e+00
-8.662999999999999545e+01
4.890999999999999659e+01
4.388000000000000256e+01
-9.839999999999999858e+00
3.229999999999999716e+01
-8.369999999999999218e+00
-1.750000000000000000e+01
-1.789999999999999858e+01
3.629999999999999893e+00
4.450000000000000178e+00
-1.162900000000000063e+02
-3.429999999999999716e+01
1.150999999999999979e+01
-5.264000000000000057e+01
5.719999999999999751e+00
-1.889999999999999858e+01
4.510000000000000142e+01
-9.189999999999999503e+00
-9.839999999999999858e+00
1.894000000000000128e+01
-2.040000000000000036e+00
-6.543000000000000682e+01
1.302999999999999936e+01
4.700000000000000000e+01
3.564000000000000057e+01
-9.723999999999999488e+01
7.475000000000000000e+01
-9.378000000000000114e+01
2.833999999999999986e+01
-1.909999999999999920e+00
-2.514999999999999858e+01
-1.207399999999999949e+02
1.037099999999999937e+02
7.590999999999999659e+01
-1.605000000000000071e+01
-1.474600000000000080e+02
1.333100000000000023e+02
9.296999999999999886e+01
3.972999999999999687e+01
4.610000000000000320e+00
-1.571000000000000085e+01
-1.232000000000000028e+01
-4.246000000000000085e+01
-1.967999999999999972e+01
-2.832999999999999829e+01
2.469000000000000128e+01
-9.398999999999999488e+01
-1.546399999999999864e+02
1.908300000000000125e+02
1.298600000000000136e+02
-2.284099999999999966e+02
4.339999999999999858e+00
9.192000000000000171e+01
8.109999999999999432e+01
5.157999999999999829e+01
2.016000000000000014e+01
-1.598000000000000114e+02
-2.843399999999999750e+02
1.282299999999999898e+02
5.140999999999999659e+01
1.653000000000000114e+01
8.890000000000000568e+00
-3.990000000000000213e+00
-1.478999999999999915e+01
4.000000000000000222e-01
1.110000000000000098e+00
2.999999999999999889e-02
3.239000000000000057e+01
-3.538000000000000256e+01
-2.642999999999999972e+01
1.887000000000000099e+01
4.196000000000000085e+01
-8.737000000000000455e+01
-1.357000000000000028e+01
-2.082000000000000028e+01
-1.078400000000000034e+02
6.332000000000000028e+01
2.153999999999999915e+01
-5.719999999999999751e+00
1.555000000000000071e+01
-2.862000000000000099e+01
-1.721000000000000085e+01
2.585999999999999943e+01
4.935999999999999943e+01
-7.184000000000000341e+01
-1.918300000000000125e+02
2.668399999999999750e+02
2.299000000000000057e+02
-1.615500000000000114e+02
-2.357500000000000000e+02
1.828600000000000136e+02
-2.207999999999999829e+01
-4.607999999999999829e+01
5.582999999999999829e+01
1.871299999999999955e+02
-8.081000000000000227e+01
-8.420000000000000284e+01
-2.970000000000000195e+00
1.867000000000000171e+01
2.791000000000000014e+01
3.671999999999999886e+01
-7.275000000000000000e+01
-4.631000000000000227e+01
1.770200000000000102e+02
-1.017300000000000040e+02
-4.742999999999999972e+01
-1.753999999999999915e+01
9.507999999999999829e+01
6.598000000000000398e+01
-7.040000000000000568e+01
9.515999999999999659e+01
-1.510000000000000009e+00
-9.165000000000000568e+01
-7.796999999999999886e+01
2.119999999999999929e+01
3.622999999999999687e+01
4.543999999999999773e+01
-1.247000000000000064e+01
1.744000000000000128e+01
2.089000000000000057e+01
-2.073999999999999844e+01
-9.887999999999999545e+01
1.559099999999999966e+02
-1.352899999999999920e+02
-8.495000000000000284e+01
6.750000000000000000e+01
2.055800000000000125e+02
-3.164200000000000159e+02
-2.966000000000000014e+01
1.352199999999999989e+02
-4.560999999999999943e+01
-2.183999999999999986e+01
-2.339999999999999858e+01
3.872999999999999687e+01
1.449000000000000021e+01
-2.473999999999999844e+01
-2.753999999999999915e+01
7.480000000000000426e+00
-1.310399999999999920e+02
-2.237000000000000099e+01
8.220000000000000284e+01
-3.134200000000000159e+02
8.301000000000000512e+01
-7.300000000000000000e+01
-1.850000000000000000e+01
4.621999999999999886e+01
4.788000000000000256e+01
-1.325800000000000125e+02
9.420000000000000284e+01
-9.640000000000000568e+00
-4.974000000000000199e+01
1.077999999999999936e+01
8.599999999999999867e-01
8.730000000000000426e+00
5.846000000000000085e+01
-1.003199999999999932e+02
-3.277000000000000313e+01
-2.390000000000000124e+00
-1.480000000000000071e+01
3.515999999999999659e+01
1.132000000000000028e+01
-3.565999999999999659e+01
1.419999999999999929e+00
1.860000000000000142e+01
-6.549999999999999822e+00
1.330000000000000071e+00
8.699999999999999289e+00
-4.809999999999999609e+00
-7.900000000000000355e-01
-1.610000000000000098e+00
-6.000000000000000000e+00
3.509999999999999787e+00
-3.319999999999999840e+00
-6.940000000000000391e+00
6.580000000000000071e+00
-5.049999999999999822e+00
-3.180000000000000160e+00
2.410000000000000142e+00
-5.599999999999999645e+00
1.979999999999999982e+00
1.510000000000000009e+00
-7.440000000000000391e+00
1.411999999999999922e+01
4.290000000000000036e+00
-7.269999999999999574e+00
5.589999999999999858e+00
7.009999999999999787e+00
-1.659999999999999920e+00
8.929999999999999716e+00
2.500000000000000000e+00
-5.179999999999999716e+00
5.080000000000000071e+00
4.469999999999999751e+00
-1.607999999999999829e+01
9.599999999999999645e+00
6.209999999999999964e+00
-7.639999999999999680e+00
-1.389999999999999902e+00
-9.300000000000000488e-01
-2.500000000000000000e-01
-7.500000000000000000e-01
6.320000000000000284e+00
-4.019999999999999574e+00
3.939999999999999947e+00
1.219999999999999973e+00
