1593521778.00
64.000000
-0.00
-0.00
-0.00
-0.00
-0.00
-0.00
-0.00
-0.00
-0.00
-0.00
0.00
0.01
0.01
-0.00
-0.03
-0.05
-0.05
0.00
0.13
0.36
0.66
1.01
1.37
1.72
2.06
2.40
2.79
3.24
3.80
4.42
5.06
5.66
6.20
6.68
7.15
7.68
8.31
9.14
10.09
11.04
11.88
12.56
13.14
13.76
14.65
15.96
17.91
20.32
22.90
25.38
27.58
29.57
31.68
34.32
37.81
42.54
48.15
54.10
59.83
64.97
69.58
74.14
79.34
85.71
93.76
103.00
112.62
121.73
129.77
136.75
143.30
150.75
157.77
166.64
177.95
191.79
206.97
220.57
228.25
225.36
208.53
176.87
132.76
80.05
23.07
-34.94
-92.44
-149.16
-205.23
-260.37
-313.74
-363.87
-409.83
-450.91
-486.50
-515.74
-537.23
-549.22
-549.96
-538.37
-514.21
-478.67
-433.88
-382.45
-327.02
-269.84
-212.63
-156.66
-102.95
-52.37
-5.90
35.58
71.43
101.35
125.50
144.38
158.69
169.15
176.37
180.75
182.57
182.07
179.51
175.23
169.65
163.18
156.15
148.81
141.30
133.69
126.02
118.33
110.69
103.15
95.80
88.69
81.84
75.28
68.98
62.96
57.21
51.74
46.58
41.75
37.26
33.11
29.28
25.76
22.49
19.47
16.69
14.16
11.90
9.92
8.22
6.77
5.51
4.37
3.33
2.36
1.50
0.78
0.26
-0.07
-0.27
-0.45
-0.73
-1.19
-1.81
-2.49
-3.05
-3.37
-3.40
-3.25
-3.15
-3.33
-3.94
-4.95
-6.13
-7.15
-7.73
-7.80
-7.54
-7.31
-7.52
-8.42
-9.97
-11.80
-13.41
-14.44
-14.74
-14.52
-14.19
-14.19
-14.84
-16.37
-18.87
-22.20
-25.71
-28.21
-28.10
-23.98
-15.44
-3.49
9.60
21.13
29.07
32.77
32.95
31.04
28.38
25.66
22.96
20.21
17.56
15.52
14.59
14.96
16.30
17.91
19.10
19.43
18.91
17.86
16.81
16.25
16.56
17.79
19.73
21.84
23.51
24.24
23.91
22.81
21.45
20.24
19.23
18.15
16.62
14.47
11.97
9.40
7.07
4.99
2.85
0.29
-2.84
-6.34
-9.72
-12.51
-14.39
-15.36
-15.60
-15.41
-15.06
-14.72
-14.49
-14.34
-14.14
-13.77
-13.13
-12.24
-11.21
-10.22
-9.40
-8.81
-8.41
-8.15
-8.00
-7.99
-8.12
-8.36
-8.63
-8.83
-8.90
-8.81
-8.62
-8.46
-8.39
-8.46
-8.61
-8.76
-8.80
-8.67
-8.39
-8.08
-7.89
-7.93
-8.20
-8.60
-8.99
-9.24
-9.34
-9.36
-9.44
-9.67
-9.96
-10.04
-9.62
-8.44
-6.47
-3.83
-0.79
2.43
5.47
8.12
10.31
12.02
13.28
14.12
14.59
14.75
14.72
14.56
14.36
14.19
14.07
14.04
14.06
14.03
13.80
13.24
12.26
10.96
9.55
8.26
7.24
6.50
5.89
5.25
4.48
3.59
2.66
1.79
0.98
0.19
-0.68
-1.70
-2.89
-4.19
-5.51
-6.70
-7.68
-8.44
-9.06
-9.65
-10.31
-11.08
-11.92
-12.81
-13.77
-14.86
-16.11
-17.38
-18.34
-18.60
-17.84
-16.02
-13.39
-10.40
-7.44
-4.68
-2.13
0.31
2.62
4.58
5.89
6.34
5.96
5.08
4.17
3.65
3.72
4.28
5.06
5.75
6.14
6.21
6.05
5.80
5.51
5.09
4.42
3.40
2.13
0.83
-0.20
-0.76
-0.87
-0.77
-0.76
-1.09
-1.80
-2.78
-3.85
-4.89
-5.86
-6.78
-7.66
-8.45
-9.11
-9.67
-10.25
-11.02
-12.07
-13.37
-14.73
-15.89
-16.58
-16.57
-15.72
-14.00
-11.50
-8.40
-4.95
-1.39
2.11
5.47
8.62
11.48
13.91
15.71
16.77
17.07
16.76
16.12
15.45
14.99
14.79
14.72
14.56
14.12
13.35
12.36
11.43
10.77
10.50
10.51
10.62
10.62
10.42
10.00
9.37
8.54
7.49
6.25
4.91
3.60
2.39
1.23
-0.03
-1.56
-3.38
-5.34
-7.12
-8.45
-9.21
-9.60
-10.03
-10.94
-12.62
-14.96
-17.49
-19.46
-20.16
-19.12
-16.32
-12.16
-7.32
-2.65
1.02
3.07
3.24
1.80
-0.50
-2.63
-3.76
-3.60
-2.49
-1.14
-0.23
0.05
0.03
0.32
1.43
3.41
5.88
8.23
9.89
10.60
10.44
9.71
8.83
8.12
7.75
7.61
7.45
6.92
5.86
4.29
2.49
0.81
-0.50
-1.41
-2.09
-2.78
-3.65
-4.80
-6.20
-7.77
-9.42
-11.12
-12.87
-14.70
-16.64
-18.67
-20.64
-22.26
-23.15
-22.92
-21.38
-18.63
-15.01
-11.01
-7.10
-3.52
-0.32
2.62
5.43
8.10
10.49
12.38
13.61
14.19
14.28
14.10
13.85
13.59
13.25
12.76
12.10
11.31
10.53
9.86
9.36
9.00
8.66
8.23
7.63
6.79
5.75
4.62
3.54
2.65
1.98
1.50
1.08
0.60
-0.03
-0.84
-1.81
-2.87
-3.93
-4.87
-5.66
-6.38
-7.28
-8.64
-10.60
-13.01
-15.35
-16.96
-17.27
-16.08
-13.61
-10.37
-6.87
-3.43
-0.18
2.87
5.70
8.21
10.28
11.88
13.10
14.09
14.96
15.66
16.02
15.89
15.21
14.17
13.10
12.34
12.09
12.28
12.60
12.65
12.06
10.72
8.73
6.47
4.34
2.66
1.53
0.82
0.26
-0.41
-1.30
-2.36
-3.40
-4.23
-4.79
-5.19
-5.65
-6.41
-7.59
-9.15
-10.94
-12.78
-14.55
-16.23
-17.86
-19.47
-21.02
-22.34
-23.23
-23.48
-22.92
-21.50
-19.26
-16.28
-12.73
-8.78
-4.65
-0.57
3.27
6.68
9.57
11.88
13.59
14.77
15.51
15.95
16.23
16.41
16.46
16.31
15.93
15.37
14.79
14.38
14.21
14.22
14.25
14.10
13.62
12.80
11.66
10.26
8.66
6.96
5.34
4.01
3.11
2.62
2.27
1.72
0.68
-0.85
-2.65
-4.35
-5.65
-6.51
-7.08
-7.63
-8.39
-9.43
-10.72
-12.18
-13.77
-15.39
-16.93
-18.11
-18.60
-18.12
-16.53
-13.93
-10.57
-6.83
-2.99
0.81
4.51
8.04
11.29
14.03
16.00
17.07
17.28
16.89
16.24
15.65
15.29
15.14
15.07
14.92
14.59
14.03
13.25
12.28
11.13
9.87
8.61
7.48
6.57
5.70
4.50
2.43
-0.86
-5.28
-10.18
-14.55
-17.61
-19.42
-21.13
-24.28
-29.53
-35.64
-39.50
-37.34
-26.70
-7.73
16.90
43.32
68.32
90.21
108.25
121.62
129.12
130.07
126.11
121.95
123.97
137.53
163.77
198.26
232.31
256.75
265.72
258.53
238.94
211.84
181.44
149.87
117.24
82.58
45.49
7.08
-30.18
-63.52
-92.38
-116.99
-137.72
-154.51
-167.00
-174.80
-177.91
-177.21
-174.65
-174.29
-178.34
-185.70
-192.96
-197.09
-197.35
-195.62
-195.44
-200.15
-213.77
-236.15
-262.43
-285.10
-297.48
-295.79
-279.62
-251.20
-198.94
-123.56
-37.70
41.82
104.91
150.58
182.82
206.52
225.80
244.59
262.24
277.36
289.03
296.65
299.43
297.06
290.80
283.70
277.59
272.66
267.96
261.47
250.67
233.23
208.34
177.52
144.13
111.78
81.74
54.08
28.66
5.69
-14.31
-30.88
-44.21
-55.33
-65.93
-77.58
-90.13
-101.36
-108.34
-109.86
-107.90
-106.91
-111.06
-121.06
-132.96
-139.82
-135.64
-119.45
-96.82
-77.37
-69.86
-77.53
-96.80
-119.73
-138.56
-149.39
-152.91
-152.48
-151.48
-151.64
-153.27
-156.69
-162.94
-173.29
-187.55
-202.88
-214.20
-216.04
-205.18
-182.28
-151.65
-119.27
-90.40
-67.83
-51.83
-41.13
-34.32
-31.01
-31.66
-36.94
-46.60
-58.97
-71.11
-79.89
-83.26
-81.27
-76.01
-70.62
-67.77
-68.53
-72.22
-77.16
-81.86
-85.90
-90.10
-95.95
-104.41
-115.00
-125.36
-131.77
-130.09
-117.15
-91.89
-56.20
-14.54
27.36
64.31
93.29
113.85
127.87
138.15
146.61
153.02
155.01
150.15
137.84
120.48
101.96
86.27
76.02
72.17
74.59
82.71
96.37
114.63
134.73
151.66
161.58
165.63
170.51
184.86
212.65
249.75
283.85
299.63
284.93
237.34
165.57
84.76
9.33
-53.02
-100.33
-133.89
-148.01
-137.50
-104.56
-58.59
-11.76
32.12
68.95
94.84
105.10
98.71
77.50
46.35
12.12
-18.39
-39.98
-50.89
-49.26
-35.65
-15.18
2.67
10.95
9.05
1.42
-6.46
-12.00
-16.94
-26.09
-43.08
-69.20
-101.47
-133.59
-157.88
-167.72
-160.30
-132.19
-88.81
-41.27
-3.06
16.30
13.84
-6.87
-38.35
-70.50
-92.79
-99.91
-91.67
-69.93
-33.99
16.58
78.18
141.71
195.28
228.50
235.81
224.29
200.25
173.30
152.04
140.78
137.87
137.58
133.36
121.19
102.39
82.13
67.37
60.74
60.87
61.10
53.19
32.10
-1.07
-39.39
-74.32
-99.06
-112.17
-117.07
-119.07
-121.41
-123.74
-123.28
-117.08
-104.30
-85.80
-63.82
-40.81
-19.02
-0.25
13.87
21.94
23.29
18.29
8.43
-4.83
-21.04
-40.26
-61.74
-82.97
-99.89
-108.47
-106.43
-94.19
-74.37
-50.72
-24.78
5.46
43.89
92.62
148.97
204.90
249.15
271.01
262.39
222.62
159.52
86.27
16.10
-41.66
-83.08
-108.69
-121.32
-126.79
-128.60
-126.39
-118.62
-106.18
-93.34
-85.53
-86.05
-94.66
-112.15
-137.38
-167.11
-197.67
-226.54
-251.61
-270.04
-277.74
-248.72
-175.10
-75.26
19.85
91.17
138.56
171.92
200.02
225.94
246.22
250.17
230.16
188.61
134.69
80.69
36.97
7.85
-7.78
-15.47
-24.69
-41.44
-64.78
-89.11
-109.34
-118.04
-115.27
-104.16
-88.71
-73.99
-63.47
-58.22
-57.89
-61.43
-66.44
-69.50
-65.57
-50.74
-25.92
3.24
28.77
43.63
44.66
34.12
17.71
2.60
-5.95
-6.51
-0.91
8.20
18.60
28.97
39.11
48.74
57.66
65.82
73.66
81.92
92.20
105.62
121.63
138.26
152.03
159.12
157.01
146.10
129.78
114.47
106.86
107.70
115.66
127.60
139.99
149.48
156.49
156.10
144.06
118.32
79.33
28.71
-27.17
-81.02
-127.31
-163.79
-191.61
-211.96
-224.56
-227.55
-217.67
-193.40
-158.40
-121.05
-91.31
-77.41
-81.91
-101.25
-127.87
-151.84
-164.38
-161.54
-144.82
-119.73
-94.06
-74.91
-62.87
-59.31
-60.64
-58.26
-44.69
-18.86
13.34
42.41
60.36
65.90
63.49
60.16
61.80
69.67
80.24
87.73
88.04
82.25
73.99
69.93
76.49
95.13
120.41
143.61
157.63
160.58
155.96
149.67
145.51
143.56
139.61
127.46
103.84
70.09
31.73
-4.74
-34.49
-57.19
-72.09
-79.61
-82.70
-84.95
-89.62
-97.99
-111.25
-126.27
-139.23
-145.93
-139.84
-120.42
-91.42
-59.82
-32.18
-12.18
0.90
12.18
27.96
50.95
76.61
101.12
117.68
121.03
109.46
85.56
49.73
11.60
-19.15
-38.71
-48.38
-52.25
-52.78
-49.77
-41.63
-28.14
-10.39
7.15
19.09
21.82
15.23
3.12
-8.94
-15.89
-14.91
-3.95
16.34
42.55
70.20
95.03
114.39
127.18
133.91
131.43
120.26
102.43
79.81
53.64
24.34
-8.14
-44.36
-84.81
-128.58
-171.55
-201.83
-207.62
-185.73
-144.89
-99.19
-59.95
-32.22
-15.32
-4.63
4.74
15.15
26.49
37.86
48.37
57.08
61.65
58.78
46.33
24.86
-2.54
-30.83
-54.45
-69.19
-73.63
-69.20
-58.70
-44.13
-26.27
-4.97
18.15
40.11
56.35
63.14
60.09
50.78
40.80
34.47
32.30
30.87
25.51
13.26
-5.37
-26.17
-44.63
-56.88
-61.29
-58.48
-50.52
-38.75
-23.74
-6.35
11.18
24.92
30.40
22.90
1.10
-32.55
-72.68
-110.20
-136.48
-146.64
-141.34
-125.97
-108.57
-97.56
-100.12
-116.90
-144.51
-177.23
-206.47
-223.90
-225.29
-211.57
-185.22
-152.73
-118.62
-85.78
-57.22
-32.19
-7.80
17.70
44.92
73.78
104.06
139.14
180.73
224.59
268.47
312.75
357.75
403.89
451.00
496.95
541.41
580.40
602.90
603.40
583.26
546.73
500.04
449.47
375.84
276.45
189.22
121.40
61.09
3.25
-55.07
-114.10
-171.67
-224.19
-264.00
-286.80
-297.34
-299.56
-296.21
-291.88
-291.02
-297.02
-311.49
-330.97
-351.27
-371.95
-389.40
-397.78
-393.13
-372.82
-336.64
-287.59
-229.88
-169.92
-116.73
-75.01
-44.15
-20.95
0.05
23.75
52.37
85.79
121.91
156.26
185.16
206.46
210.69
191.23
150.61
100.20
51.35
9.21
-27.78
-63.03
-97.12
-126.42
-144.19
-145.30
-129.30
-101.22
-65.76
-29.37
-1.29
12.64
13.20
7.17
1.37
1.14
4.79
10.03
16.00
24.19
38.22
57.95
82.17
107.01
127.06
137.26
135.92
124.75
108.18
91.65
78.88
71.11
66.65
62.71
56.66
47.68
36.17
23.30
10.44
-1.63
-12.61
-22.78
-31.81
-39.45
-45.05
-48.19
-48.77
-47.05
-44.03
-41.15
-40.01
-40.41
-41.72
-43.10
-43.92
-43.74
-42.34
-40.12
-38.01
-37.25
-37.01
-36.66
-35.90
-34.23
-29.97
-20.14
-1.50
28.03
68.06
117.43
171.28
221.86
261.17
284.17
290.06
281.35
261.87
221.13
158.07
81.94
7.78
-52.66
-94.81
-119.58
-130.83
-133.46
-132.00
-127.52
-120.76
-113.08
-106.34
-101.60
-98.21
-93.76
-85.00
-69.06
-43.70
-10.95
22.99
50.44
66.27
70.23
66.42
60.57
57.08
57.77
60.19
59.36
50.56
32.27
6.78
-20.81
-46.64
-67.88
-83.39
-94.26
-102.57
-109.75
-115.42
-117.66
-114.50
-105.68
-92.93
-79.06
-66.45
-55.39
-43.91
-29.25
-10.08
11.78
31.59
44.02
45.61
36.58
20.59
2.89
-12.08
-22.34
-28.38
-32.15
-35.55
-39.55
-44.13
-48.85
-53.26
-57.62
-61.99
-66.25
-69.98
-72.39
-72.68
-70.60
-66.76
-62.60
-59.72
-58.87
-59.08
-57.30
-49.03
-30.02
1.63
44.01
91.33
135.56
169.06
186.99
188.61
177.18
158.22
137.51
119.45
106.40
98.91
96.31
97.41
100.76
104.84
108.08
109.03
106.67
100.72
91.66
80.67
69.21
58.53
49.38
42.07
36.64
33.10
31.39
31.13
31.63
32.10
31.93
30.98
29.66
28.72
28.75
29.68
30.53
29.94
26.83
20.99
13.15
4.71
-2.88
-8.82
-13.30
-17.75
-23.56
-31.12
-39.71
-48.00
-54.96
-60.28
-64.47
-68.51
-74.20
-82.51
-93.05
-104.55
-115.58
-124.79
-130.46
-130.13
-121.20
-103.85
-80.37
-54.99
-33.07
-19.28
-15.44
-19.63
-27.56
-35.64
-45.29
-60.09
-82.44
-111.16
-141.57
-167.64
-185.19
-193.87
-184.64
-156.60
-116.46
-73.08
-31.21
7.66
41.96
68.93
86.73
96.28
99.40
99.67
100.74
104.15
108.00
109.06
103.48
89.88
69.92
46.09
22.14
2.21
-10.68
-15.80
-14.60
-9.85
-4.36
-0.36
-0.01
-3.81
-10.51
-17.40
-22.05
-23.72
-23.54
-23.15
-23.23
-23.35
-22.21
-19.09
-15.32
-14.13
-18.87
-30.35
-45.35
-57.53
-60.37
-49.93
-26.73
4.50
36.74
63.20
79.37
83.96
78.49
66.08
50.35
34.62
21.60
13.11
9.99
11.99
17.80
25.31
32.28
36.87
38.17
36.23
31.81
26.10
20.37
15.78
13.01
12.04
12.08
11.84
10.20
6.78
2.16
-2.39
-5.69
-7.17
-6.98
-5.72
-3.96
-2.04
-0.20
1.17
1.43
-0.02
-3.26
-7.56
-11.51
-13.76
-13.77
-12.17
-10.35
-9.60
-10.34
-11.88
-12.99
-12.77
-11.27
-9.45
-8.41
-8.56
-9.26
-9.16
-7.01
-2.51
3.43
9.15
13.04
14.18
12.72
9.58
6.01
3.19
2.03
3.04
6.31
11.32
16.89
21.30
22.82
20.45
14.53
6.89
0.36
-2.35
0.17
7.29
16.53
24.64
29.15
29.60
27.78
27.05
31.09
42.53
62.35
89.66
121.96
155.61
186.36
210.38
225.14
230.18
226.93
217.76
204.62
187.91
166.72
139.84
107.14
70.36
32.71
-2.29
-32.05
-55.45
-72.65
-84.17
-90.38
-91.57
-88.37
-82.08
-74.62
-67.84
-63.08
-60.88
-60.67
-61.18
-61.19
-60.05
-57.82
-55.01
-52.34
-50.44
-50.24
-52.00
-55.22
-59.06
-62.88
-66.43
-69.74
-73.04
-76.50
-81.24
-87.24
-93.27
-98.01
-101.22
-103.74
-106.90
-111.58
-117.76
-126.30
-136.32
-145.72
-152.84
-157.71
-161.57
-165.78
-171.12
-177.67
-187.34
-199.62
-211.11
-216.97
-213.20
-197.85
-171.34
-136.41
-83.08
-15.59
51.37
103.75
137.34
155.70
164.16
166.54
164.90
160.53
152.25
140.80
128.87
119.25
112.98
109.28
106.62
103.75
100.30
94.92
88.09
81.72
77.46
75.32
74.05
72.77
70.49
66.84
60.48
50.65
37.52
22.15
6.15
-8.29
-18.84
-23.99
-23.67
-19.97
-15.31
-11.36
-8.55
-6.62
-5.06
-3.63
-2.49
-1.82
-1.78
-1.95
-1.59
-0.02
2.67
5.79
8.39
9.65
9.36
7.88
5.92
4.17
3.07
2.63
2.63
2.73
2.65
2.24
1.46
0.35
-0.98
-2.37
-3.59
-4.42
-4.76
-4.68
-4.39
-4.16
-4.14
-4.30
-4.47
-4.46
-4.19
-3.74
-3.35
-3.24
-3.54
-4.21
-5.12
-6.10
-7.07
-7.99
-8.85
-9.67
-10.47
-11.29
-12.15
-13.06
-13.95
-14.67
-14.97
-14.64
-13.57
-11.74
-9.29
-6.40
-3.29
-0.21
2.56
4.83
6.45
7.48
8.06
8.42
8.74
9.12
9.57
10.10
10.72
11.42
12.13
12.65
12.71
12.07
10.66
8.69
6.52
4.61
3.21
2.30
1.56
0.53
-1.14
-3.48
-6.22
-8.86
-10.96
-12.36
-13.22
-13.84
-14.46
-15.09
-15.53
-15.60
-15.34
-15.09
-15.26
-16.03
-17.17
-18.04
-17.85
-15.97
-12.21
-6.78
-0.16
7.11
14.59
21.97
29.06
35.63
41.42
46.19
49.87
52.83
55.84
59.81
65.20
71.53
77.30
80.58
80.01
75.61
68.87
61.93
56.36
52.29
48.55
43.61
36.82
28.86
21.38
15.83
12.47
10.19
7.27
2.46
-4.31
-12.04
-19.56
-26.43
-33.32
-41.45
-51.56
-63.09
-74.09
-82.05
-85.17
-83.27
-78.05
-72.51
-69.79
-72.21
-80.50
-93.51
-108.15
-119.91
-123.88
-116.39
-96.63
-67.62
-35.60
-7.84
10.26
17.31
16.16
12.14
10.18
12.28
16.78
19.52
16.25
5.11
-12.09
-30.23
-42.75
-44.06
-31.73
-7.40
23.73
54.61
78.59
91.26
91.50
81.23
64.28
45.03
27.23
13.46
5.13
2.70
6.00
14.21
25.77
38.32
49.06
55.33
55.55
49.83
40.04
29.10
19.87
14.09
11.85
11.75
11.73
9.99
5.74
-0.65
-7.92
-14.48
-19.16
-21.47
-21.82
-21.17
-20.54
-20.52
-21.06
-21.59
-21.40
-20.11
-17.84
-15.20
-12.82
-11.09
-9.90
-8.89
-7.68
-6.18
-4.67
-3.52
-3.02
-3.11
-3.51
-3.88
-4.01
-3.91
-3.73
-3.61
-3.54
-3.44
-3.16
-2.63
-1.91
-1.04
0.02
1.45
3.53
6.37
9.78
13.22
15.99
17.57
17.86
17.24
16.36
15.82
15.80
16.10
16.27
15.87
14.73
12.89
10.59
8.11
5.69
3.53
1.80
0.52
-0.42
-1.30
-2.43
-3.96
-5.82
-7.67
-9.07
-9.66
-9.32
-8.22
-6.70
-5.13
-3.73
-2.58
-1.56
-0.60
0.41
1.42
2.33
3.10
3.68
4.13
4.48
4.76
4.96
5.04
4.99
4.79
4.45
3.96
3.36
2.69
2.14
1.90
2.17
2.99
4.27
5.78
7.24
8.48
9.37
9.81
9.76
9.24
8.39
7.44
6.68
6.24
6.01
5.64
4.68
2.87
0.31
-2.52
-4.94
-6.40
-6.77
-6.35
-5.76
-5.57
-6.15
-7.45
-9.19
-10.94
-12.32
-13.02
-12.79
-11.45
-8.99
-5.71
-2.19
0.91
3.15
4.64
5.99
8.05
11.31
15.54
19.72
22.55
23.14
21.63
19.23
17.77
18.82
22.85
28.87
34.76
38.22
37.81
33.68
27.57
21.92
18.76
18.75
20.93
23.29
23.69
20.72
13.98
4.14
-7.31
-18.20
-25.90
-27.85
-22.57
-10.57
4.88
18.20
23.26
16.08
-2.82
-27.93
-50.84
-64.26
-65.75
-59.09
-52.31
-53.28
-65.49
-86.38
-108.93
-125.55
-131.58
-126.65
-113.50
-95.45
-74.61
-51.57
-26.68
-1.23
22.11
40.30
51.18
54.41
51.63
45.71
39.64
35.62
34.49
35.66
37.66
38.85
38.16
35.53
31.76
28.07
25.48
24.40
24.55
25.12
25.20
24.11
21.66
18.21
14.49
11.34
9.33
8.60
8.79
9.27
9.38
8.72
7.23
5.18
2.99
1.04
-0.49
-1.69
-2.89
-4.59
-7.21
-10.95
-15.67
-20.88
-25.89
-29.97
-32.62
-33.63
-33.13
-31.45
-29.00
-26.19
-23.25
-20.29
-17.19
-13.64
-9.12
-3.15
4.41
13.06
21.54
28.18
31.56
31.25
28.18
24.38
22.23
23.47
28.55
36.64
46.09
55.19
62.70
67.95
70.69
70.77
68.05
62.55
54.66
45.21
35.24
25.51
16.08
6.38
-4.44
-16.75
-29.91
-42.28
-51.79
-56.87
-57.13
-53.44
-47.55
-41.24
-35.80
-31.70
-28.77
-26.57
-24.84
-23.89
-24.70
-28.51
-36.14
-47.20
-59.51
-69.32
-72.30
-65.05
-46.55
-18.91
12.93
42.51
63.63
72.01
66.43
48.85
23.82
-2.87
-25.59
-40.25
-45.03
-40.47
-28.87
-13.43
2.54
16.32
25.99
30.65
30.32
25.89
18.91
11.25
4.65
0.16
-2.04
-2.66
-2.87
-3.77
-5.96
-9.37
-13.40
-17.28
-20.45
-22.68
-24.17
-25.32
-26.56
-28.19
-30.24
-32.61
-35.10
-37.60
-40.01
-42.24
-44.13
-45.47
-46.06
-45.74
-44.48
-42.22
-38.87
-34.22
-28.07
-20.38
-11.38
-1.64
8.13
17.25
25.30
32.11
37.67
41.98
44.90
46.29
46.12
44.60
42.23
39.61
37.27
35.49
34.20
33.16
32.05
30.66
28.94
27.01
24.98
22.96
20.96
18.96
16.93
14.82
12.60
10.26
7.78
5.25
2.81
0.65
-1.08
-2.38
-3.42
-4.48
-5.82
-7.56
-9.56
-11.46
-12.85
-13.48
-13.43
-13.11
-13.19
-14.22
-16.43
-19.47
-22.47
-24.34
-24.20
-21.79
-17.72
-13.20
-9.60
-7.75
-7.61
-8.21
-8.05
-5.86
-1.20
5.18
11.55
15.64
15.49
10.12
0.10
-12.27
-23.27
-28.76
-25.55
-12.82
6.99
28.45
44.84
50.68
44.14
28.07
9.03
-5.47
-10.12
-3.98
9.51
24.36
35.00
38.57
35.62
29.01
21.92
16.05
10.97
4.88
-3.89
-15.49
-28.16
-38.94
-45.01
-45.00
-39.70
-31.84
-25.23
-23.79
-30.35
-45.73
-68.11
-92.99
-113.84
-123.63
-116.97
-92.30
-53.34
-8.66
30.73
55.25
60.44
48.68
28.05
8.55
-2.19
-1.90
6.35
16.64
23.83
25.91
24.20
21.57
20.17
20.12
20.05
18.50
15.27
11.73
10.10
12.06
17.71
25.51
32.84
37.20
37.25
33.29
27.17
21.36
17.93
17.58
19.40
21.30
21.06
17.35
10.35
1.66
-6.52
-12.37
-15.25
-15.83
-15.59
-15.90
-17.35
-19.58
-21.66
-22.69
-22.32
-20.86
-19.01
-17.41
-16.28
-15.43
-14.41
-12.77
-10.32
-7.05
-3.11
1.31
6.04
10.95
15.92
20.83
25.54
29.90
33.77
37.04
39.61
41.40
42.30
42.21
41.08
38.99
36.26
33.36
30.82
28.97
27.86
27.18
26.41
25.11
23.03
20.28
17.23
14.30
11.77
9.72
7.99
6.27
4.28
1.88
-0.95
-4.16
-7.69
-11.38
-14.91
-17.74
-19.23
-18.91
-16.73
-13.25
-9.53
-6.58
-4.86
-4.03
-3.23
-1.85
-0.01
1.51
1.77
0.49
-1.50
-2.55
-1.10
3.30
9.68
16.26
21.86
26.24
29.86
33.23
36.32
38.47
38.90
37.32
34.43
32.51
33.70
38.74
46.61
55.24
62.62
67.55
69.87
70.22
70.82
73.42
78.18
83.62
87.53
88.17
84.76
77.73
68.54
61.02
58.72
63.22
73.35
86.05
97.64
104.84
105.62
89.36
52.39
0.16
-54.88
-101.44
-134.78
-155.75
-167.74
-174.32
-178.66
-181.34
-181.93
-179.36
-171.90
-157.24
-133.53
-102.27
-66.49
-32.00
-3.86
14.51
22.26
20.88
13.43
3.49
-6.32
-14.56
-21.05
-25.03
-25.69
-22.79
-17.08
-10.96
-6.47
-5.13
-7.26
-12.15
-17.66
-21.36
-21.51
-17.98
-12.23
-6.47
-2.94
-2.77
-5.77
-10.35
-14.22
-15.58
-13.82
-9.88
-5.58
-2.85
-2.70
-5.03
-8.72
-11.93
-13.05
-11.43
-7.76
-3.65
-0.82
0.02
-0.88
-2.46
-2.76
-0.05
6.48
15.78
25.22
31.69
33.45
30.36
24.10
18.24
16.65
22.05
34.22
49.83
63.92
72.21
71.71
58.14
30.20
-8.30
-47.81
-77.53
-89.50
-83.53
-61.63
-28.55
7.93
38.63
52.04
44.01
19.98
-9.23
-33.91
-49.58
-57.98
-63.34
-67.31
-67.26
-57.55
-34.88
-2.32
31.07
54.78
61.39
50.55
29.92
9.31
-2.76
-3.36
3.69
10.95
12.47
6.87
-2.10
-7.88
-5.05
8.56
30.92
56.72
80.08
96.84
105.11
104.72
96.36
81.23
59.91
36.50
17.30
8.76
14.45
32.50
55.52
73.32
77.11
63.41
35.25
-0.19
-34.89
-62.90
-81.55
-91.00
-92.93
-89.53
-83.08
-75.70
-69.75
-67.25
-69.04
-74.24
-80.18
-83.15
-79.61
-67.54
-47.17
-21.34
5.34
28.10
43.53
50.62
50.71
46.68
41.87
39.12
40.22
45.84
55.53
67.83
80.42
90.50
95.53
93.92
85.53
71.62
54.34
35.95
18.26
2.28
-11.69
-23.74
-34.11
-42.99
-50.46
-56.53
-61.10
-64.09
-65.49
-65.40
-64.12
-62.03
-59.51
-56.78
-53.91
-50.88
-47.70
-44.41
-41.08
-37.68
-34.01
-29.77
-24.81
-19.34
-14.04
-9.88
-7.73
-7.96
-10.18
-13.42
-16.48
-18.46
-19.10
-18.73
-18.04
-17.66
-17.83
-18.42
-19.01
-19.23
-18.93
-18.20
-17.27
-16.32
-15.29
-13.92
-11.89
-9.05
-5.51
-1.68
1.90
4.86
7.08
8.76
10.25
11.73
13.10
13.91
13.57
11.67
8.20
3.64
-1.24
-5.67
-9.21
-11.86
-13.96
-15.90
-17.81
-19.54
-20.71
-20.99
-20.36
-19.09
-17.59
-16.11
-14.65
-13.02
-11.03
-8.63
-6.00
-3.38
-0.85
1.63
4.24
7.04
9.89
12.42
14.24
15.01
14.66
13.39
11.65
10.09
9.42
10.29
13.10
17.83
23.96
30.64
36.97
42.36
46.71
50.36
53.69
56.72
58.99
59.69
58.21
54.55
49.40
43.86
38.90
34.90
31.56
28.30
24.66
20.66
16.81
13.67
11.62
10.57
10.10
9.69
8.99
7.92
6.60
5.21
3.79
2.12
-0.30
-4.13
-9.83
-17.50
-26.67
-36.47
-45.90
-54.15
-60.79
-65.78
-69.35
-71.86
-73.66
-75.13
-76.69
-78.75
-81.59
-85.26
-89.47
-93.66
-97.05
-98.85
-98.39
-95.29
-89.50
-81.28
-71.31
-60.58
-50.36
-41.90
-36.05
-32.86
-31.32
-29.52
-25.07
-15.90
-0.86
19.79
44.35
70.01
93.52
111.93
123.41
127.71
126.20
121.36
115.81
111.45
108.89
107.48
105.75
101.88
94.19
81.41
63.04
39.68
13.28
-13.12
-36.22
-53.66
-64.82
-70.88
-74.01
-76.10
-77.97
-79.44
-79.96
-79.37
-78.21
-77.24
-76.58
-75.20
-71.31
-63.31
-50.66
-33.89
-13.94
8.24
31.61
54.32
73.11
83.67
82.38
68.28
44.59
17.89
-4.69
-18.87
-24.97
-27.24
-31.14
-40.32
-55.33
-73.17
-89.18
-99.53
-102.62
-98.69
-88.58
-72.91
-51.83
-26.50
2.06
33.08
65.50
97.56
127.50
153.99
176.40
194.60
207.28
214.42
217.28
216.41
210.44
196.69
172.57
136.74
89.56
31.43
-33.79
-98.67
-154.87
-195.98
-218.37
-221.44
-207.42
-169.10
-112.56
-54.99
-10.64
17.67
33.78
41.94
44.63
43.35
39.73
34.02
28.11
25.04
26.50
31.26
36.53
39.79
40.03
37.93
33.71
29.09
26.99
29.72
37.21
47.01
54.77
55.45
45.24
22.64
-8.79
-41.03
-65.34
-77.32
-77.23
-69.70
-61.16
-56.51
-57.63
-62.95
-69.18
-73.84
-76.36
-77.08
-75.79
-70.94
-60.51
-43.88
-22.83
-1.20
16.45
26.61
28.11
21.94
10.21
-5.09
-22.71
-42.00
-61.82
-80.22
-94.76
-103.62
-106.70
-105.85
-104.20
-103.36
-104.84
-107.93
-109.69
-105.94
-93.42
-70.88
-39.04
0.04
43.49
87.45
127.36
157.89
174.41
174.08
158.01
132.26
106.38
89.73
87.84
100.74
123.27
148.09
167.30
175.57
171.89
159.27
142.68
127.36
117.38
114.53
118.65
125.83
129.84
124.66
106.77
75.98
36.06
-6.45
-49.00
-83.61
-104.46
-113.52
-118.94
-128.48
-144.78
-164.90
-183.03
-193.06
-189.61
-170.90
-138.02
-92.99
-37.00
24.81
85.23
135.83
168.96
180.43
168.81
136.18
88.06
32.17
-23.80
-73.43
-113.80
-144.75
-167.00
-182.14
-190.92
-192.04
-182.39
-158.09
-115.73
-55.94
16.59
94.03
165.01
216.78
238.56
225.15
179.94
115.59
48.86
-3.54
-29.34
-25.73
1.04
39.43
74.99
94.10
99.66
98.92
93.26
83.99
71.29
55.26
36.93
18.35
1.51
-12.92
-28.28
-48.98
-76.50
-108.16
-137.22
-155.78
-158.77
-146.48
-124.49
-102.21
-87.45
-82.22
-83.20
-84.39
-80.67
-70.24
-54.48
-36.21
-18.69
-3.94
7.76
16.39
21.43
21.91
16.79
5.99
-9.16
-26.63
-43.84
-58.12
-67.66
-71.75
-70.67
-64.97
-54.50
-37.98
-13.47
20.29
62.31
108.13
150.27
180.17
191.21
181.23
153.42
115.32
76.12
43.78
22.95
14.47
16.28
24.90
36.86
49.15
59.24
64.87
64.26
56.70
43.08
26.05
9.41
-3.09
-8.98
-8.00
-2.50
2.96
2.83
-7.50
-29.44
-59.96
-92.04
-117.19
-129.11
-126.61
-114.31
-100.47
-92.99
-95.71
-106.84
-120.30
-128.84
-127.34
-114.43
-92.17
-64.28
-34.41
-5.18
21.65
44.51
61.60
71.09
71.98
65.02
52.84
39.13
27.26
18.98
14.02
10.59
6.47
0.33
-7.52
-14.98
-18.60
-14.73
-0.84
23.17
54.32
86.68
112.74
125.74
122.05
102.66
73.10
41.45
15.35
-0.62
-6.16
-4.36
0.82
6.84
13.44
21.67
31.91
42.45
49.67
49.64
40.56
24.19
5.28
-10.76
-20.44
-23.36
-21.83
-19.58
-20.26
-25.89
-35.82
-46.66
-53.68
-52.78
-42.37
-24.40
-4.04
11.74
17.44
11.71
-1.96
-17.28
-28.24
-31.34
-25.95
-13.47
4.85
25.96
45.37
60.29
71.32
80.65
89.70
98.26
106.45
110.68
107.17
93.16
67.75
31.99
-11.70
-60.48
-110.78
-158.45
-201.32
-238.48
-268.66
-288.80
-294.86
-284.38
-258.94
-224.73
-190.61
-164.55
-149.37
-141.48
-133.05
-116.50
-88.44
-50.55
-7.57
36.01
77.93
118.82
160.45
203.49
246.16
284.58
314.47
333.06
339.71
335.36
321.57
299.18
267.80
226.18
173.57
111.27
43.66
-21.95
-76.89
-113.54
-127.97
-121.74
-101.90
-79.01
-63.68
-62.80
-77.22
-101.74
-127.36
-144.73
-147.17
-132.27
-101.72
-60.06
-13.30
32.10
69.92
94.73
102.65
92.35
65.53
26.81
-17.31
-59.94
-95.44
-120.71
-135.80
-143.65
-148.89
-155.87
-166.52
-178.95
-187.76
-186.04
-168.42
-133.82
-86.25
-33.54
15.52
54.05
78.85
90.55
92.59
89.66
86.37
86.28
91.29
101.61
115.90
131.85
146.89
158.81
166.14
168.28
165.46
158.49
148.66
137.39
125.80
114.17
101.79
87.07
68.27
44.35
15.72
-15.35
-45.07
-69.15
-84.30
-89.67
-87.49
-82.50
-80.17
-84.56
-96.52
-113.36
-129.71
-139.30
-136.87
-119.53
-87.47
-43.97
5.22
53.03
92.51
118.42
128.50
123.73
107.78
85.67
62.31
41.29
24.39
11.53
1.20
-8.81
-20.78
-36.09
-54.29
-72.73
-86.95
-92.04
-84.83
-65.60
-38.54
-10.49
11.81
24.46
27.82
25.73
23.14
23.53
27.51
33.15
37.75
39.54
38.47
35.78
32.79
30.11
27.53
24.66
21.59
19.06
18.13
19.38
22.53
26.52
29.74
30.53
27.46
19.52
6.50
-10.54
-29.06
-45.30
-55.49
-57.29
-51.03
-39.89
-28.75
-22.24
-22.88
-30.25
-41.40
-52.20
-59.00
-59.66
-53.96
-43.18
-29.50
-15.27
-2.61
6.95
12.54
14.05
12.10
7.94
3.22
-0.30
-1.20
1.12
5.90
10.76
12.18
6.84
-6.53
-25.69
-44.95
-57.27
-57.35
-44.37
-22.67
0.32
17.54
25.54
25.31
20.96
16.68
14.60
14.44
14.90
14.91
13.76
10.25
1.99
-13.57
-36.96
-64.42
-87.77
-96.91
-83.92
-46.81
9.40
74.39
136.26
184.88
213.85
220.61
205.78
172.64
126.81
75.66
26.67
-14.98
-48.21
-75.81
-102.01
-129.09
-154.67
-172.12
-173.90
-156.07
-121.36
-78.83
-39.94
-13.33
-1.31
0.05
-2.43
-3.33
-1.24
1.68
2.42
0.03
-3.39
-4.08
0.86
11.37
24.21
34.74
39.50
37.95
32.63
27.58
26.18
29.66
36.70
44.39
49.68
50.67
47.19
40.66
33.36
27.61
24.98
25.82
29.17
33.19
35.95
36.13
33.47
28.69
23.08
17.83
13.53
10.09
7.01
3.70
-0.17
-4.58
-9.32
-14.09
-18.67
-22.80
-26.21
-28.54
-29.47
-28.71
-26.19
-22.13
-17.05
-11.77
-7.23
-4.09
-2.54
-2.10
-1.97
-1.59
-1.18
-1.84
-5.00
-11.50
-20.81
-30.89
-38.91
-42.54
-41.05
-35.69
-29.00
-23.49
-20.47
-19.55
-19.08
-17.23
-13.00
-6.70
0.40
6.72
11.16
13.50
14.23
14.11
13.76
13.41
12.97
12.26
11.16
9.76
8.26
6.86
5.66
4.60
3.55
2.37
1.04
-0.38
-1.75
-2.98
-4.05
-4.92
-5.37
-4.91
-2.98
0.81
6.27
12.56
18.39
22.50
24.15
23.32
20.61
16.86
12.84
8.99
5.52
2.51
0.03
-1.78
-2.81
-3.01
-2.44
-1.31
0.05
1.27
2.07
2.47
2.78
3.52
5.16
7.80
11.08
14.30
16.77
18.19
18.80
19.21
20.08
21.75
23.98
26.16
27.61
27.94
27.17
25.74
24.16
22.88
22.08
21.79
21.92
22.31
22.68
22.59
21.55
19.15
15.42
10.89
6.47
3.05
0.86
-0.94
-4.18
-11.03
-23.03
-40.10
-60.22
-79.91
-95.36
-103.81
-104.49
-98.85
-89.90
-81.13
-75.37
-74.17
-77.61
-84.53
-92.75
-99.49
-101.96
-98.09
-87.28
-70.75
-51.33
-32.49
-17.11
-6.54
-0.29
3.29
6.01
9.00
12.49
16.05
19.20
21.86
24.31
26.87
29.35
30.92
30.75
28.69
25.71
23.65
24.37
28.82
36.49
45.06
51.29
52.78
49.33
43.17
37.86
36.72
41.23
50.57
61.23
68.48
68.80
61.70
49.94
38.16
31.17
32.17
41.89
57.53
73.43
83.41
82.81
69.98
46.34
16.37
-15.67
-41.46
-52.25
-45.51
-28.44
-13.81
-12.21
-27.03
-52.66
-77.24
-87.16
-73.73
-38.91
8.19
54.14
85.49
92.33
72.38
31.99
-15.46
-54.59
-74.25
-71.25
-50.40
-18.42
13.74
35.87
42.24
31.08
7.56
-17.89
-36.61
-46.81
-51.63
-54.60
-55.69
-52.62
-43.65
-29.75
-15.12
-5.06
-2.94
-8.14
-17.01
-24.42
-26.55
-22.39
-13.65
-4.01
2.39
3.26
-0.83
-7.32
-12.97
-15.72
-15.57
-14.14
-13.74
-15.97
-20.19
-23.40
-21.64
-11.80
6.48
30.41
54.94
74.66
85.03
83.86
71.97
52.59
30.30
9.27
-7.73
-19.79
-27.65
-32.87
-36.56
-38.61
-37.76
-32.42
-22.25
-8.57
6.25
19.99
31.52
41.64
52.23
62.84
70.40
69.79
56.59
29.67
-7.74
-49.06
-86.76
-114.71
-128.98
-128.02
-112.43
-84.34
-47.29
-6.48
31.88
62.17
78.35
79.49
70.42
58.02
47.67
41.84
39.76
38.83
36.70
32.13
26.02
20.40
17.11
17.14
21.05
28.39
37.83
46.99
52.54
51.26
41.43
22.19
-4.90
-35.26
-63.50
-85.34
-98.82
-104.53
-104.60
-101.65
-96.25
-90.09
-81.48
-66.67
-42.39
-8.41
30.93
67.58
92.50
99.75
89.62
69.01
47.02
29.91
17.81
5.68
-12.19
-36.72
-62.02
-77.54
-73.28
-47.01
-7.17
30.15
49.27
43.34
17.51
-14.68
-39.06
-47.60
-41.57
-28.78
-17.24
-9.68
-3.12
6.93
21.23
35.41
43.59
42.81
35.27
27.44
26.26
35.12
51.90
68.71
73.23
58.09
28.08
-2.32
-19.68
-19.83
-8.31
5.08
12.84
13.32
10.90
11.63
18.41
29.43
40.42
47.76
50.41
49.22
44.36
34.92
19.65
-1.45
-25.47
-47.04
-61.03
-64.62
-59.06
-49.87
-43.05
-41.70
-45.10
-50.21
-53.45
-55.00
-59.21
-67.83
-79.49
-88.68
-87.80
-71.61
-40.32
0.12
41.06
71.93
87.47
87.84
76.77
58.83
37.42
14.95
-6.26
-23.69
-35.08
-39.06
-36.66
-31.29
-25.07
-19.38
-14.24
-8.71
-1.89
6.16
14.52
21.10
23.49
20.12
10.67
-3.27
-18.36
-30.57
-36.29
-33.44
-22.32
-5.46
13.54
31.25
44.76
52.24
53.74
50.91
46.16
41.60
38.47
37.16
37.50
39.25
42.45
47.26
53.44
60.12
66.04
70.15
72.21
72.89
73.08
73.49
74.18
74.83
75.33
75.94
76.84
77.10
74.36
65.81
50.26
29.84
9.81
-3.92
-8.33
-5.75
-3.27
-9.17
-28.39
-59.62
-95.84
-127.66
-147.30
-150.89
-138.66
-113.59
-79.87
-42.42
-6.98
20.11
33.38
30.39
13.29
-11.42
-35.26
-51.07
-55.46
-49.41
-36.60
-21.26
-6.99
3.08
5.50
-3.28
-25.44
-59.53
-99.39
-135.43
-158.31
-162.90
-150.19
-125.87
-96.77
-67.63
-40.35
-15.48
5.29
18.15
18.70
5.17
-19.18
-46.12
-65.38
-68.47
-51.85
-17.57
28.12
77.09
121.47
154.49
170.91
167.21
142.18
97.58
38.46
-27.50
-91.26
-144.05
-178.87
-191.46
-180.98
-150.28
-105.64
-55.68
-9.35
26.42
48.77
59.40
63.45
66.94
73.95
84.88
96.47
103.81
103.00
93.56
79.26
67.26
65.83
81.15
114.41
160.56
209.21
247.60
264.72
254.46
217.16
158.85
89.24
19.23
-41.23
-84.61
-106.92
-108.46
-94.19
-72.82
-54.64
-48.29
-57.64
-80.38
-108.98
-133.88
-147.11
-145.15
-129.62
-105.99
-81.09
-60.83
-48.81
-46.27
-52.71
-66.51
-85.13
-104.93
-121.47
-130.60
-129.82
-119.55
-103.11
-85.44
-70.89
-61.26
-55.09
-48.60
-37.84
-20.71
2.00
27.14
50.80
69.97
83.43
91.76
96.55
99.43
101.42
102.81
103.60
104.09
105.24
108.41
114.66
123.83
134.00
141.78
143.34
135.94
119.13
95.03
67.33
39.79
15.04
-5.70
-21.82
-32.55
-36.86
-34.42
-26.81
-18.08
-13.37
-16.51
-27.85
-43.53
-57.28
-64.05
-62.99
-57.87
-54.42
-56.31
-62.77
-69.57
-72.59
-71.46
-70.66
-76.82
-93.96
-119.96
-146.65
-164.67
-169.27
-163.14
-154.40
-151.14
-156.05
-164.51
-167.48
-156.05
-127.21
-85.34
-38.91
4.67
42.62
76.49
108.83
139.39
164.91
177.98
169.43
133.17
70.76
-7.81
-86.71
-149.20
-182.45
-178.17
-137.43
-70.94
4.98
74.75
127.97
160.65
174.56
175.42
174.20
179.84
195.43
218.61
245.34
272.29
297.06
317.69
310.25
262.95
186.10
104.09
35.94
-11.28
-38.96
-53.03
-61.25
-70.66
-81.36
-90.32
-94.85
-94.34
-89.43
-81.73
-73.57
-67.25
-64.18
-61.91
-58.29
-53.34
-50.18
-50.93
-55.17
-60.41
-63.89
-63.93
-58.97
-49.59
-38.77
-30.32
-26.38
-26.78
-29.73
-33.33
-36.21
-37.11
-35.74
-32.98
-30.15
-27.82
-26.71
-26.02
-24.61
-21.58
-16.30
-8.97
-0.69
6.81
12.03
14.24
13.83
11.73
9.16
7.17
6.37
6.79
7.87
9.09
10.57
12.94
16.42
20.33
23.31
23.84
21.05
15.01
7.33
1.25
0.43
6.94
20.46
38.59
57.72
74.30
85.48
90.78
92.87
96.24
104.45
118.15
134.70
148.93
154.71
146.32
121.25
81.57
32.44
-20.94
-74.47
-124.29
-163.56
-178.07
-158.93
-112.93
-58.75
-14.72
10.19
19.17
23.89
36.71
62.26
92.88
113.57
111.95
85.54
42.81
-1.76
-35.58
-53.56
-59.08
-60.73
-65.70
-74.92
-83.48
-85.39
-76.25
-56.81
-32.26
-9.43
5.63
10.30
6.11
-2.27
-9.50
-11.72
-7.76
1.06
11.73
20.60
25.07
24.41
20.01
14.16
8.79
4.46
0.29
-5.29
-13.93
-24.44
-35.08
-43.68
-48.55
-49.21
-46.63
-42.65
-39.08
-36.94
-35.99
-35.44
-34.23
-31.82
-28.42
-24.87
-22.02
-20.20
-19.08
-17.97
-16.53
-14.91
-13.74
-13.80
-15.53
-18.74
-22.60
-26.05
-28.31
-29.33
-29.75
-30.75
-33.65
-39.30
-47.39
-55.91
-61.24
-58.96
-45.50
-19.85
15.56
55.18
92.19
120.84
138.26
144.90
143.50
137.18
128.02
116.66
102.97
87.19
70.50
54.92
42.31
33.42
27.44
22.44
16.33
7.81
-3.14
-15.45
-27.49
-37.77
-45.28
-49.56
-50.37
-47.50
-40.69
-29.84
-15.32
1.73
19.43
35.47
47.74
54.88
56.47
53.02
45.54
35.12
22.84
9.90
-2.14
-11.37
-16.15
-15.77
-11.00
-4.08
2.07
4.81
2.70
-4.24
-14.52
-25.54
-33.92
-36.16
-29.54
-13.17
11.29
39.79
67.14
88.88
102.76
109.11
109.79
106.62
100.18
89.69
73.90
52.37
26.11
-2.57
-30.70
-55.36
-74.04
-84.82
-86.60
-79.37
-64.38
-44.10
-21.55
0.43
19.90
35.79
47.47
54.13
54.38
46.52
29.39
3.57
-27.98
-60.06
-86.50
-101.93
-103.52
-91.85
-70.77
-46.38
-25.47
-13.97
-15.32
-29.34
-51.93
-75.96
-93.37
-98.07
-88.34
-67.55
-43.08
-23.67
-16.68
-26.17
-52.36
-92.05
-139.44
-187.08
-227.11
-252.75
-260.11
-249.51
-225.46
-195.11
-165.68
-141.92
-124.82
-112.02
-99.55
-84.18
-64.92
-43.34
-22.48
-5.24
7.02
14.86
20.01
24.19
28.17
31.70
34.20
35.73
37.38
40.83
47.32
56.65
66.92
75.18
78.76
76.41
68.90
58.68
49.05
43.00
42.37
47.46
57.09
69.06
80.78
89.89
94.83
95.06
90.98
83.68
74.51
64.73
55.30
46.80
39.51
33.50
28.66
24.82
21.73
19.20
17.03
15.12
13.43
11.96
10.74
9.80
9.20
9.03
9.39
10.31
11.80
13.78
16.07
18.41
20.56
22.42
23.92
25.02
25.61
25.56
24.80
23.35
21.42
19.47
18.17
17.98
18.87
20.18
20.98
20.43
18.23
14.79
10.97
7.87
6.10
5.47
5.17
4.42
2.87
0.81
-1.07
-2.02
-1.17
1.43
4.48
6.15
5.16
1.55
-3.38
-7.57
-9.11
-5.97
1.83
11.79
20.18
24.36
24.06
21.18
18.77
19.56
26.47
39.57
55.42
68.95
76.59
77.72
74.01
68.44
64.16
66.32
78.26
99.49
125.89
151.73
170.94
177.92
168.91
130.36
63.34
-12.45
-70.05
-93.73
-84.78
-55.71
-22.27
2.43
10.99
4.71
-11.23
-31.73
-53.37
-73.59
-90.23
-102.23
-107.95
-106.19
-95.46
-76.95
-55.30
-36.72
-25.83
-24.01
-29.34
-37.87
-45.56
-48.51
-45.36
-37.92
-30.01
-23.67
-20.18
-19.17
-19.12
-18.21
-14.56
-7.48
1.98
11.61
19.31
23.71
24.78
23.55
21.33
19.42
18.37
17.90
17.39
16.46
15.06
13.49
11.95
10.02
6.86
1.56
-6.41
-16.96
-29.42
-43.02
-57.01
-70.71
-83.43
-94.01
-100.93
-102.69
-98.42
-87.95
-71.95
-51.77
-29.16
-6.81
12.25
24.84
28.60
23.24
11.67
-0.83
-8.76
-8.69
-1.26
10.23
21.36
28.37
29.04
22.86
9.98
-9.53
-34.74
-63.71
-91.75
-112.71
-121.56
-116.63
-99.95
-76.25
-50.94
-23.45
3.77
28.25
49.31
67.35
81.89
91.42
96.51
96.11
90.18
79.27
65.41
51.12
38.33
26.81
17.16
9.94
5.19
3.02
2.83
4.04
5.89
7.32
7.28
5.57
2.64
-0.80
-3.72
-5.78
-6.97
-7.72
-8.78
-10.84
-13.95
-17.67
-21.29
-23.91
-25.04
-24.49
-22.50
-19.59
-16.35
-13.11
-9.97
-6.90
-3.71
-0.26
3.47
7.43
11.43
15.21
18.57
21.34
23.40
24.70
25.23
25.01
24.10
22.62
20.80
18.95
17.37
16.23
15.53
15.04
14.48
13.59
12.32
10.82
9.31
7.99
6.82
5.64
4.29
2.73
1.16
-0.16
-1.10
-1.79
-2.62
-3.96
-5.97
-8.44
-10.89
-12.92
-14.42
-15.67
-17.09
-18.98
-21.18
-23.16
-24.20
-23.77
-21.82
-18.77
-15.34
-12.15
-9.49
-7.20
-4.84
-2.00
1.48
5.33
9.03
12.04
14.10
15.28
15.90
16.28
16.57
16.65
16.31
15.46
14.21
12.90
11.93
11.54
11.69
12.03
12.09
11.49
10.18
8.41
6.71
5.56
5.12
5.14
4.99
4.04
1.93
-1.17
-4.64
-7.71
-9.78
-10.69
-10.70
-10.25
-9.71
-9.22
-8.75
-8.29
-8.07
-8.53
-10.12
-12.97
-16.73
-20.55
-23.42
-24.55
-23.73
-21.30
-17.91
-14.15
-10.28
-6.19
-1.64
3.50
9.02
14.33
18.66
21.41
22.35
21.70
20.04
18.02
16.09
14.40
12.85
11.31
9.81
8.60
8.00
8.22
9.09
10.15
10.80
10.66
9.77
8.48
7.25
6.36
5.74
5.06
3.98
2.37
0.39
-1.59
-3.22
-4.35
-5.12
-5.84
-6.78
-8.07
-9.59
-11.14
-12.50
-13.53
-14.24
-14.66
-14.81
-14.62
-14.03
-12.95
-11.39
-9.39
-7.06
-4.49
-1.77
1.00
3.74
6.34
8.72
10.79
12.48
13.76
14.66
15.30
15.85
16.50
17.33
18.28
19.15
19.65
19.51
18.67
17.28
15.64
14.11
12.98
12.29
11.88
11.43
10.64
9.46
8.05
6.77
5.91
5.45
4.99
3.96
1.94
-0.98
-4.21
-6.89
-8.35
-8.51
-7.93
-7.57
-8.29
-10.36
-13.37
-16.46
-18.73
-19.75
-19.63
-18.83
-17.78
-16.53
-14.74
-11.88
-7.65
-2.26
3.59
9.00
13.25
16.10
17.82
18.93
19.87
20.75
21.32
21.22
20.28
18.72
17.07
15.95
15.67
16.05
16.49
16.29
15.09
13.02
10.68
8.80
7.83
7.75
8.06
8.10
7.33
5.64
3.27
0.69
-1.72
-3.80
-5.70
-7.68
-9.90
-12.25
-14.42
-16.03
-16.91
-17.22
-17.45
-18.17
-19.72
-22.06
-24.68
-26.88
-27.98
-27.61
-25.81
-22.97
-19.62
-16.19
-12.90
-9.69
-6.38
-2.86
0.77
4.18
6.96
8.82
9.76
10.09
10.25
10.58
11.18
11.83
12.27
12.34
12.13
11.92
12.01
12.44
12.92
13.01
12.37
11.01
9.30
7.78
6.84
6.50
6.43
6.17
5.43
4.23
2.84
1.59
0.62
-0.13
-0.90
-1.86
-3.03
-4.27
-5.37
-6.25
-6.98
-7.79
-8.96
-10.63
-12.73
-14.87
-16.51
-17.09
-16.25
-14.06
-10.93
-7.54
-4.43
-1.85
0.34
2.47
4.82
7.38
9.81
11.61
12.47
12.37
11.62
10.65
9.80
9.20
8.70
8.10
7.32
6.44
5.69
5.26
5.20
5.28
5.17
4.49
3.13
1.27
-0.69
-2.21
-3.00
-3.07
-2.84
-2.91
-3.73
-5.40
-7.62
-9.82
-11.48
-12.38
-12.64
-12.65
-12.84
-13.50
-14.68
-16.27
-18.08
-19.97
-21.79
-23.36
-24.39
-24.48
-23.28
-20.63
-16.72
-12.11
-7.57
-3.79
-1.11
0.57
1.73
2.99
4.80
7.24
9.99
12.51
14.27
14.99
14.73
13.78
12.53
11.31
10.23
9.29
8.40
7.57
6.92
6.60
6.74
7.32
8.10
8.73
8.88
8.47
7.65
6.79
6.21
6.05
6.04
5.71
4.55
2.36
-0.61
-3.76
-6.40
-8.12
-8.98
-9.45
-10.16
-11.56
-13.70
-16.27
-18.73
-20.62
-21.70
-21.94
-21.41
-20.10
-17.93
-14.77
-10.65
-5.91
-1.10
3.13
6.32
8.38
9.56
10.25
10.79
11.30
11.66
11.68
11.32
10.74
10.26
10.21
10.73
11.68
12.65
13.14
12.79
11.58
9.81
7.96
6.49
5.61
5.19
4.89
4.35
3.43
2.22
1.02
0.11
-0.44
-0.79
-1.31
-2.33
-3.99
-6.12
-8.34
-10.22
-11.46
-12.10
-12.44
-12.89
-13.73
-14.94
-16.20
-16.98
-16.88
-15.80
-14.03
-12.04
-10.22
-8.62
-6.92
-4.67
-1.53
2.40
6.61
10.37
13.09
14.53
14.89
14.63
14.16
13.75
13.41
13.01
12.51
11.98
11.60
11.52
11.71
11.92
11.76
10.94
9.40
7.42
5.51
4.18
3.67
3.81
4.10
3.95
3.00
1.33
-0.66
-2.46
-3.75
-4.56
-5.24
-6.19
-7.60
-9.36
-11.15
-12.67
-13.84
-14.84
-15.97
-17.40
-18.96
-20.14
-20.36
-19.13
-16.40
-12.56
-8.28
-4.22
-0.75
2.11
4.62
7.14
9.87
12.81
15.75
18.40
20.58
22.24
23.49
24.51
25.44
26.33
27.15
27.85
28.47
29.16
30.14
31.60
33.55
35.77
37.95
39.87
41.60
43.57
46.38
50.39
55.40
60.56
64.60
66.38
65.45
62.32
58.37
55.38
54.82
57.37
62.63
69.16
74.93
77.80
76.21
69.62
58.53
44.06
27.25
8.58
-11.81
-33.33
-54.10
-70.71
-79.29
-77.14
-64.32
-44.00
-21.43
-2.01
10.37
13.93
8.76
-3.99
-22.37
-43.69
-64.36
-80.44
-88.80
-88.25
-80.31
-68.50
-56.99
-48.90
-45.29
-45.22
-46.62
-47.36
-46.13
-42.71
-37.77
-32.48
-27.97
-25.01
-23.81
-24.06
-25.25
-26.91
-28.84
-31.04
-33.52
-36.03
-38.01
-38.72
-37.69
-35.04
-31.52
-28.29
-26.32
-25.94
-26.76
-27.82
-28.25
-27.59
-25.99
-23.94
-21.86
-19.79
-17.35
-14.00
-9.38
-3.58
2.92
9.52
15.90
22.15
28.70
36.07
44.48
53.70
63.00
71.40
78.00
82.22
83.89
83.23
80.50
75.82
69.01
59.83
48.35
35.28
21.97
10.12
1.12
-4.55
-7.48
-9.00
-10.56
-13.09
-16.74
-21.06
-25.35
-29.12
-32.16
-34.52
-36.20
-37.07
-36.89
-35.48
-33.03
-30.14
-27.66
-26.36
-26.48
-27.57
-28.66
-28.66
-26.90
-23.43
-18.94
-14.34
-10.36
-7.24
-4.81
-2.69
-0.57
1.63
3.82
5.79
7.36
8.44
9.02
9.09
8.68
7.72
6.08
3.58
0.14
-4.12
-8.78
-13.24
-16.89
-19.40
-20.78
-21.36
-21.52
-21.54
-21.55
-21.63
-21.88
-22.57
-23.99
-26.28
-29.20
-32.25
-34.89
-36.91
-38.61
-40.80
-44.40
-49.92
-57.14
-65.11
-72.53
-78.34
-82.25
-84.82
-87.19
-90.60
-95.86
-103.20
-112.07
-121.16
-128.56
-132.07
-129.74
-120.65
-105.57
-87.09
-69.15
-55.61
-48.91
-49.04
-53.69
-59.33
-62.71
-62.02
-57.04
-48.43
-36.71
-21.85
-3.53
18.07
41.69
65.20
86.72
105.75
123.52
142.14
163.04
185.64
207.19
223.81
232.25
231.13
221.30
205.09
185.20
163.84
142.58
122.56
104.79
90.20
79.48
72.81
69.71
69.12
69.50
69.19
66.74
61.40
53.40
43.84
34.29
25.94
19.14
13.14
6.57
-1.74
-12.10
-23.68
-34.96
-44.34
-50.84
-54.29
-55.17
-54.17
-51.83
-48.56
-44.68
-40.63
-36.86
-33.71
-31.14
-28.81
-26.28
-23.42
-20.52
-18.25
-17.21
-17.61
-19.11
-21.01
-22.65
-23.72
-24.28
-24.58
-24.69
-24.42
-23.43
-21.46
-18.55
-15.08
-11.50
-8.04
-4.59
-0.82
3.51
8.29
12.95
16.72
18.99
19.61
18.98
17.85
16.94
16.71
17.24
18.32
19.67
21.11
22.62
24.31
26.26
28.46
30.78
32.97
34.76
36.02
36.76
37.12
37.19
36.96
36.33
35.13
33.25
30.64
27.37
23.50
19.13
14.46
9.85
5.75
2.55
0.32
-1.23
-2.61
-4.29
-6.42
-8.81
-11.10
-13.09
-14.89
-16.82
-19.14
-21.79
-24.35
-26.23
-27.01
-26.62
-25.39
-23.69
-21.74
-19.49
-16.71
-13.36
-9.84
-7.05
-6.03
-7.38
-10.79
-14.99
-18.19
-18.86
-16.50
-11.84
-6.46
-1.99
0.68
1.69
1.84
1.96
2.32
2.57
2.19
1.09
-0.25
-0.99
-0.52
1.03
2.80
3.65
2.84
0.44
-2.78
-5.78
-7.84
-8.82
-9.21
-9.67
-10.72
-12.35
-13.96
-14.59
-13.26
-9.43
-3.43
3.49
9.46
12.65
11.98
7.65
0.98
-6.08
-11.85
-15.52
-17.46
-18.79
-20.83
-24.42
-29.59
-35.61
-41.45
-46.19
-49.35
-50.86
-50.81
-49.31
-46.33
-41.90
-36.18
-29.44
-21.85
-13.41
-3.95
6.48
17.26
27.16
34.59
38.41
38.66
36.75
34.90
35.06
37.98
42.79
47.55
50.27
49.87
46.58
41.61
36.41
31.98
28.53
25.70
22.98
20.14
17.46
15.51
14.70
15.05
15.97
16.53
15.87
13.62
10.13
6.34
3.33
1.82
1.96
3.32
5.16
6.68
7.36
6.87
5.06
1.95
-2.36
-7.55
-13.08
-18.15
-21.87
-23.50
-22.83
-20.22
-16.59
-13.11
-10.70
-9.83
-10.35
-11.76
-13.39
-14.75
-15.56
-15.71
-15.19
-14.00
-12.18
-9.83
-7.12
-4.25
-1.57
0.48
1.38
0.65
-1.81
-5.62
-9.94
-13.84
-16.73
-18.74
-20.64
-23.40
-27.63
-33.14
-39.03
-44.10
-47.43
-48.82
-48.71
-47.85
-46.74
-45.36
-43.23
-39.76
-34.65
-28.13
-20.77
-13.25
-6.04
0.56
6.37
11.12
14.49
16.18
16.17
14.92
13.18
11.81
11.36
11.95
13.37
15.29
17.54
20.18
23.41
27.27
31.61
36.09
40.42
44.51
48.53
52.70
57.09
61.34
64.77
66.61
66.41
64.23
60.70
56.81
53.57
51.67
51.33
52.22
53.53
54.12
52.69
48.12
39.79
27.78
12.88
-3.55
-20.13
-35.85
-50.25
-63.21
-74.58
-84.07
-91.28
-95.91
-97.96
-97.93
-96.68
-95.19
-94.11
-93.63
-93.38
-92.77
-90.78
-86.31
-78.68
-68.15
-55.97
-44.02
-34.16
-27.60
-25.08
-25.97
-28.56
-30.97
-32.00
-31.36
-29.35
-26.54
-23.69
-22.88
-25.24
-30.51
-37.65
-45.84
-54.75
-64.29
-74.20
-84.04
-95.00
-106.72
-117.28
-124.64
-128.07
-127.98
-124.90
-118.75
-109.63
-101.08
-95.80
-94.70
-96.97
-100.80
-103.23
-100.70
-89.93
-56.11
-0.39
61.58
112.55
146.63
168.59
186.20
202.01
214.93
223.02
219.26
203.28
181.16
161.82
151.74
152.21
159.74
169.09
176.05
177.63
175.60
174.12
175.97
179.66
180.53
174.14
159.88
141.34
123.16
110.26
104.69
104.41
104.34
99.63
88.51
73.18
57.67
44.39
33.62
23.63
12.20
-1.87
-18.13
-35.07
-51.27
-66.52
-81.88
-98.12
-114.75
-129.86
-141.19
-147.50
-149.39
-149.17
-149.85
-153.76
-161.45
-171.56
-181.36
-187.77
-188.45
-182.60
-171.22
-156.73
-142.24
-130.41
-122.62
-118.49
-116.10
-112.65
-105.39
-92.46
-73.38
-49.14
-21.97
5.16
29.25
47.91
59.87
65.29
65.60
63.14
60.37
59.20
60.58
64.38
69.74
75.42
80.25
83.40
84.50
83.83
82.34
81.49
82.87
87.41
94.77
102.93
108.75
109.13
102.50
89.70
73.70
58.33
46.54
39.49
36.51
36.30
38.20
42.87
51.73
65.59
83.46
102.27
117.81
126.48
126.60
118.89
105.65
89.42
71.91
53.76
35.07
16.25
-1.45
-16.22
-26.48
-31.79
-33.23
-32.95
-33.30
-35.95
-41.39
-49.07
-57.94
-67.02
-75.52
-82.68
-87.61
-89.32
-87.14
-81.27
-72.97
-64.17
-56.67
-51.23
-47.26
-43.17
-37.28
-28.68
-17.80
-6.21
3.96
10.76
12.97
10.38
3.74
-5.48
-15.55
-24.91
-32.49
-37.81
-40.92
-42.14
-41.80
-40.23
-37.71
-34.64
-31.44
-28.37
-25.45
-22.38
-18.72
-14.23
-9.11
-3.90
0.76
4.60
7.80
10.95
14.64
19.12
24.12
28.93
32.75
35.00
35.51
34.44
32.26
29.43
26.30
23.02
19.60
16.11
12.74
9.88
7.90
6.97
6.82
6.89
6.56
5.51
3.94
2.37
1.25
0.66
0.11
-1.11
-3.52
-7.02
-10.88
-14.10
-15.86
-15.87
-14.40
-12.08
-9.51
-7.02
-4.57
-2.00
0.88
4.04
7.21
9.97
11.85
12.57
12.15
10.93
9.46
8.31
7.81
7.95
8.41
8.77
8.67
8.05
7.10
6.13
5.42
5.00
4.71
4.30
3.52
2.28
0.66
-1.22
-3.23
-5.26
-7.32
-9.35
-11.25
-12.85
-13.99
-14.69
-15.26
-16.26
-18.29
-21.63
-25.98
-30.50
-34.06
-35.76
-35.33
-33.24
-30.40
-27.62
-25.05
-22.12
-17.87
-11.56
-3.24
6.12
14.95
21.83
26.02
27.68
27.66
26.94
26.21
25.63
24.92
23.66
21.48
18.22
13.94
8.86
3.35
-2.14
-7.04
-10.75
-12.70
-12.58
-10.41
-6.67
-2.30
1.53
3.71
3.57
1.11
-2.94
-7.38
-10.95
-12.77
-12.56
-10.72
-8.09
-5.64
-4.20
-4.19
-5.52
-7.74
-10.13
-11.94
-12.51
-11.36
-8.22
-3.17
3.30
10.26
16.42
20.49
21.58
19.53
14.98
9.13
3.33
-1.38
-4.44
-5.87
-5.94
-5.07
-3.58
-1.75
0.11
1.63
2.39
2.05
0.57
-1.67
-3.92
-5.29
-5.14
-3.42
-0.71
2.00
3.77
4.16
3.37
2.10
1.10
0.79
1.06
1.48
1.55
0.98
-0.33
-2.34
-5.11
-8.74
-13.29
-18.50
-23.60
-27.47
-28.98
-27.48
-23.13
-16.93
-10.35
-4.76
-0.86
1.48
3.01
4.71
7.19
10.43
13.90
16.87
18.88
19.91
20.33
20.65
21.19
21.96
22.70
23.08
22.97
22.44
21.75
21.14
20.59
19.77
18.08
14.91
9.97
3.49
-3.78
-10.78
-16.48
-20.28
-22.18
-22.56
-21.92
-20.54
-18.50
-15.83
-12.86
-10.40
-9.46
-10.88
-14.76
-20.29
-26.02
-30.37
-32.30
-31.66
-29.13
-25.77
-22.58
-20.01
-17.99
-16.05
-13.65
-10.52
-6.73
-2.61
1.51
5.42
9.15
12.79
16.28
19.30
21.35
22.08
21.55
20.29
19.07
18.57
18.97
19.92
20.74
20.77
19.77
17.95
15.82
13.89
12.41
11.34
10.44
9.50
8.46
7.49
6.78
6.40
6.23
5.95
5.31
4.33
3.40
3.20
4.24
6.58
9.55
11.95
12.47
10.33
5.70
-0.28
-5.95
-9.72
-10.72
-9.03
-5.50
-1.21
3.02
6.91
10.63
14.53
18.69
22.79
26.21
28.29
28.75
27.77
25.87
23.60
21.20
18.50
15.17
11.06
6.43
1.89
-1.90
-4.62
-6.50
-8.16
-10.26
-13.10
-16.48
-19.86
-22.70
-24.78
-26.25
-27.56
-29.11
-31.09
-33.32
-35.36
-36.70
-36.92
-35.93
-34.01
-31.75
-29.77
-28.56
-28.22
-28.53
-29.07
-29.46
-29.52
-29.30
-28.92
-28.32
-27.24
-25.24
-21.98
-17.40
-11.78
-5.66
0.47
6.30
11.77
16.93
21.73
25.90
28.90
30.21
29.59
27.43
24.61
22.32
21.55
22.61
25.01
27.53
28.74
27.58
23.80
17.99
11.30
4.92
-0.32
-4.12
-6.65
-8.32
-9.52
-10.54
-11.54
-12.58
-13.59
-14.30
-14.26
-12.81
-9.34
-3.57
4.21
12.91
20.89
26.28
27.65
24.42
17.18
7.43
-2.82
-11.72
-18.08
-21.47
-22.19
-20.82
-18.05
-14.51
-10.76
-7.34
-4.77
-3.29
-2.82
-2.85
-2.61
-1.47
0.78
3.72
6.44
7.95
7.74
6.03
3.72
2.01
1.79
3.32
6.02
8.91
11.01
11.78
11.34
10.27
9.27
8.80
8.85
9.02
8.82
8.00
6.69
5.29
4.21
3.54
2.98
2.06
0.46
-1.68
-3.77
-5.13
-5.36
-4.64
-3.65
-3.23
-3.84
-5.38
-7.20
-8.49
-8.74
-7.96
-6.77
-6.09
-6.71
-8.93
-12.37
-16.01
-18.54
-18.84
-16.31
-11.08
-3.89
4.24
12.37
19.79
26.09
30.84
33.53
33.56
30.63
25.04
17.83
10.50
4.55
0.87
-0.49
-0.18
0.89
2.00
2.91
3.71
4.60
5.57
6.28
6.28
5.23
3.14
0.43
-2.20
-4.06
-4.75
-4.29
-3.10
-1.78
-0.90
-0.84
-1.75
-3.67
-6.60
-10.51
-15.28
-20.51
-25.52
-29.49
-31.70
-31.83
-30.12
-27.28
-24.21
-21.56
-19.51
-17.75
-15.76
-13.21
-10.09
-6.83
-3.93
-1.68
0.06
1.75
3.96
7.03
10.99
15.35
19.27
21.96
23.00
22.57
21.13
19.28
17.43
15.83
14.34
12.61
10.28
7.36
4.18
1.13
-1.77
-4.88
-8.40
-12.50
-17.07
-21.67
-25.59
-28.16
-29.44
-30.23
-31.63
-33.47
-35.49
-37.71
-40.35
-43.48
-46.61
-49.59
-52.63
-56.12
-58.52
-59.41
-59.87
-61.45
-64.24
-65.74
-63.63
-57.32
-48.65
-37.91
-27.34
-20.05
-17.79
-18.11
-13.56
3.19
36.62
87.26
155.63
236.40
317.81
384.47
424.07
433.40
415.63
378.42
307.40
208.63
106.87
26.25
-25.23
-64.25
-102.05
-143.59
-188.57
-233.99
-270.69
-290.91
-281.56
-240.32
-179.48
-117.36
-68.62
-37.99
-22.18
-11.91
-1.21
9.73
15.77
13.23
4.54
-5.12
-11.12
-11.66
-5.92
4.06
14.08
19.18
17.30
11.00
4.39
0.64
0.67
4.40
10.23
15.75
18.26
16.89
13.53
11.22
12.26
17.09
24.32
30.92
33.84
30.15
19.57
4.82
-9.86
-20.68
-25.76
-25.54
-21.94
-17.30
-13.53
-11.34
-10.57
-10.64
-11.14
-11.93
-13.03
-14.28
-15.45
-16.24
-16.43
-15.99
-15.19
-14.44
-14.15
-14.62
-15.85
-17.66
-19.70
-21.58
-23.06
-24.05
-24.61
-24.81
-24.65
-23.95
-22.59
-20.38
-17.23
-13.25
-8.72
-4.01
0.53
4.59
8.03
10.80
13.01
14.79
16.33
17.71
18.91
19.82
20.28
20.19
19.61
18.71
17.72
16.77
15.87
14.90
13.75
12.41
11.00
9.67
8.55
7.63
6.77
5.74
4.31
2.37
-0.04
-2.76
-5.54
-8.12
-10.37
-12.27
-13.94
-15.55
-17.26
-19.14
-21.18
-23.28
-25.33
-27.22
-28.86
-30.16
-30.98
-31.15
-30.45
-28.74
-26.04
-22.63
-18.94
-15.36
-12.07
-8.95
-5.71
-2.08
1.92
5.97
9.57
12.31
14.06
14.99
15.47
15.83
16.21
16.59
16.87
16.99
16.96
16.90
16.87
16.92
16.96
16.87
16.54
15.95
15.17
14.36
13.64
13.01
12.34
11.34
9.78
7.58
4.93
2.22
-0.12
-1.83
-2.98
-3.91
-5.11
-6.99
-9.64
-12.82
-16.01
-18.62
-20.15
-20.38
-19.34
-17.24
-14.36
-10.98
-7.29
-3.47
0.31
3.88
7.09
9.84
12.13
14.04
15.71
17.22
18.58
19.68
20.37
20.56
20.28
19.74
19.26
19.07
19.25
19.57
19.66
19.17
17.97
16.25
14.39
12.73
11.41
10.26
8.97
7.28
5.16
2.84
0.67
-1.14
-2.60
-3.97
-5.55
-7.52
-9.84
-12.27
-14.58
-16.65
-18.59
-20.58
-22.75
-24.97
-26.87
-27.90
-27.63
-25.93
-23.02
-19.40
-15.57
-11.83
-8.23
-4.65
-0.98
2.75
6.31
9.40
11.81
13.53
14.72
15.63
16.46
17.30
18.13
18.87
19.44
19.79
19.93
19.93
19.85
19.74
19.54
19.17
18.50
17.49
16.18
14.71
13.26
11.99
10.94
10.09
9.35
8.63
7.87
7.06
6.16
5.17
4.01
2.56
0.69
-1.70
-4.56
-7.68
-10.72
-13.30
-15.11
-16.03
-16.12
-15.53
-14.40
-12.82
-10.81
-8.38
-5.61
-2.61
0.43
3.34
6.02
8.42
10.62
12.68
14.66
16.54
18.17
19.41
20.16
20.47
20.50
20.43
20.29
20.05
19.60
18.91
18.07
17.25
16.64
16.29
16.06
15.66
14.85
13.63
12.21
10.96
10.17
9.92
10.03
10.11
9.73
8.70
7.24
5.84
5.06
5.13
5.89
7.04
7.96
8.09
7.25
5.86
4.63
4.28
5.20
7.39
10.96
15.43
20.05
24.17
27.72
31.04
34.54
38.45
42.71
47.75
53.11
57.91
61.07
62.23
61.73
60.72
61.00
64.64
73.80
87.79
102.99
113.10
112.13
96.40
66.14
25.44
-24.84
-76.77
-119.91
-146.58
-157.21
-157.21
-153.09
-149.78
-149.94
-153.61
-156.92
-154.26
-138.76
-108.33
-62.25
-4.56
56.19
109.10
144.13
155.93
137.92
96.74
44.66
-5.41
-44.53
-68.92
-78.96
-77.41
-67.31
-53.20
-36.52
-20.22
-7.27
0.59
3.48
3.26
2.15
2.01
3.25
5.97
8.63
9.93
9.31
6.89
4.44
3.15
3.54
5.17
7.74
10.24
11.98
12.77
12.78
12.28
11.35
10.17
9.23
9.57
11.54
14.58
17.24
17.73
14.83
8.45
0.03
-8.04
-13.41
-14.99
-13.23
-9.66
-6.08
-3.85
-3.66
-5.44
-8.67
-12.52
-16.15
-18.78
-19.78
-18.91
-16.29
-12.47
-8.20
-4.36
-1.65
-0.51
-0.89
-2.21
-3.61
-4.19
-3.51
-1.79
0.18
1.45
1.33
-0.25
-2.86
-5.80
-8.43
-10.37
-11.53
-11.99
-11.84
-11.17
-10.13
-8.94
-7.94
-7.48
-7.80
-8.84
-10.22
-11.27
-11.34
-9.96
-6.99
-2.68
2.53
8.14
13.75
19.07
23.88
27.97
31.07
32.83
32.85
30.85
26.87
21.45
15.60
10.48
6.86
4.67
3.01
0.64
-3.34
-8.84
-14.78
-19.62
-22.06
-21.73
-19.19
-15.57
-11.93
-8.86
-6.36
-4.16
-2.01
0.04
1.67
2.51
2.39
1.50
0.38
-0.26
0.11
1.59
3.76
5.83
6.97
6.71
5.16
2.93
0.79
-0.67
-1.35
-1.53
-1.64
-1.93
-2.36
-2.59
-2.25
-1.27
0.10
1.36
1.97
1.70
0.67
-0.75
-2.09
-3.12
-3.88
-4.68
-5.84
-7.49
-9.52
-11.60
-13.39
-14.68
-15.53
-16.11
-16.55
-16.78
-16.54
-15.52
-13.57
-10.86
-7.91
-5.32
-3.47
-2.31
-1.33
0.21
2.90
6.86
11.57
16.14
19.67
21.61
21.98
21.28
20.17
19.16
18.36
17.54
16.29
14.24
11.27
7.50
3.30
-0.90
-4.70
-7.82
-10.21
-12.08
-13.85
-16.02
-19.02
-23.01
-27.78
-32.84
-37.60
-41.66
-44.87
-47.36
-49.45
-51.58
-54.22
-57.85
-62.61
-67.85
-71.93
-72.55
-67.74
-57.20
-43.05
-29.40
-20.75
-19.80
-26.12
-36.18
-45.08
-48.87
-46.27
-38.94
-30.28
-23.58
-20.61
-21.19
-24.00
-27.61
-31.27
-35.00
-38.89
-42.43
-44.19
-42.30
-35.45
-23.78
-9.22
5.23
16.70
23.67
26.44
26.77
26.89
28.40
31.75
36.41
41.42
45.99
49.87
53.20
56.14
58.51
59.71
59.08
56.30
51.70
46.14
40.68
35.95
31.94
27.98
23.33
17.59
11.08
4.63
-0.76
-4.41
-6.14
-6.23
-5.20
-3.64
-2.08
-1.02
-0.77
-1.41
-2.59
-3.59
-3.42
-1.14
3.76
11.17
20.19
29.35
36.98
41.67
42.82
40.81
37.01
33.19
30.89
30.70
32.07
33.58
33.66
31.28
26.26
19.15
10.79
1.89
-7.14
-15.92
-23.82
-29.83
-32.82
-32.03
-27.52
-20.42
-12.60
-6.01
-1.94
-0.65
-1.37
-2.78
-3.75
-3.87
-3.61
-3.96
-5.76
-9.11
-13.22
-16.66
-18.03
-16.61
-12.69
-7.37
-1.96
2.61
6.11
8.93
11.61
14.40
17.00
18.64
18.49
16.15
11.83
6.41
1.04
-3.25
-5.87
-6.85
-6.60
-5.76
-4.86
-4.18
-3.77
-3.53
-3.29
-2.91
-2.36
-1.65
-0.86
-0.12
0.44
0.68
0.50
-0.17
-1.28
-2.78
-4.55
-6.48
-8.51
-10.68
-13.15
-16.17
-19.92
-24.38
-29.22
-33.86
-37.62
-39.95
-40.60
-39.57
-37.04
-33.27
-28.51
-22.95
-16.83
-10.36
-3.77
2.72
8.84
14.18
18.29
20.76
21.43
20.53
18.61
16.34
14.18
12.32
10.58
8.71
6.59
4.30
2.07
0.12
-1.40
-2.50
-3.26
-3.81
-4.32
-4.99
-6.02
-7.54
-9.42
-11.37
-13.02
-14.06
-14.32
-13.81
-12.60
-10.80
-8.50
-5.92
-3.39
-1.41
-0.44
-0.77
-2.30
-4.57
-6.75
-8.04
-7.81
-5.87
-2.56
1.46
5.38
8.56
10.73
11.97
12.55
12.72
12.57
12.02
11.01
9.56
7.94
6.53
5.67
5.51
5.91
6.44
6.61
6.04
4.64
2.68
0.69
-0.75
-1.29
-1.01
-0.37
-0.10
-0.78
-2.69
-5.76
-9.67
-14.09
-18.82
-23.81
-29.03
-34.26
-39.12
-43.15
-46.08
-47.99
-49.40
-51.09
-53.73
-57.58
-62.35
-67.30
-71.54
-74.44
-75.84
-76.07
-75.72
-75.33
-75.27
-75.63
-76.38
-77.42
-78.71
-80.22
-81.93
-83.73
-85.47
-86.96
-88.01
-88.57
-88.80
-88.98
-89.35
-89.79
-89.62
-87.95
-84.08
-78.14
-71.33
-65.47
-62.26
-62.46
-65.79
-71.22
-77.54
-83.71
-88.74
-91.35
-89.80
-82.30
-67.67
-45.89
-18.20
13.21
45.79
76.95
104.35
126.12
141.13
149.32
151.82
150.51
147.43
144.19
141.80
140.87
141.86
145.05
150.30
156.73
162.80
166.85
167.77
165.46
160.70
154.60
148.05
141.34
134.29
126.63
118.33
109.82
101.76
94.68
88.70
83.44
78.18
72.24
65.29
57.55
49.57
42.09
35.65
30.46
26.38
23.02
20.00
17.05
14.15
11.46
9.23
7.57
6.30
4.95
2.95
-0.10
-4.11
-8.44
-12.11
-14.24
-14.52
-13.38
-11.76
-10.61
-10.45
-11.18
-12.26
-13.15
-13.66
-14.01
-14.56
-15.43
-16.24
-16.29
-14.82
-11.52
-6.71
-1.21
3.97
8.10
10.95
12.85
14.43
16.28
18.62
21.17
23.24
24.08
23.21
20.64
16.89
12.71
8.78
5.52
3.03
1.26
0.13
-0.42
-0.52
-0.48
-0.74
-1.81
-3.86
-6.64
-9.41
-11.24
-11.40
-9.73
-6.76
-3.53
-1.17
-0.50
-1.78
-4.64
-8.32
-11.85
-14.43
-15.61
-15.38
-14.08
-12.22
-10.27
-8.52
-7.21
-6.50
-6.60
-7.62
-9.38
-11.28
-12.43
-12.01
-9.70
-5.94
-1.79
1.60
3.49
3.86
3.36
2.85
2.96
3.78
4.94
5.93
6.46
6.55
6.38
6.08
5.46
4.12
1.66
-1.91
-6.08
-9.94
-12.49
-13.09
-11.60
-8.34
-3.98
0.70
5.09
8.86
11.95
14.43
16.39
17.84
18.83
19.30
19.08
17.98
15.93
13.05
9.72
6.49
3.98
2.92
3.66
5.94
9.00
11.95
14.05
14.85
14.25
12.57
10.94
10.32
10.99
12.64
14.85
17.32
19.86
22.38
24.99
29.08
35.22
42.52
49.10
53.55
55.56
55.90
55.73
56.49
60.95
69.88
81.15
91.09
97.00
98.42
96.80
94.22
93.24
98.29
111.43
130.88
152.09
170.27
181.74
184.10
175.80
141.83
80.71
7.00
-58.71
-104.80
-131.39
-144.17
-148.94
-152.06
-155.56
-157.59
-157.43
-156.78
-158.41
-163.83
-172.93
-179.99
-181.97
-177.45
-165.31
-146.76
-125.22
-104.53
-86.75
-71.79
-58.57
-47.00
-37.21
-28.57
-20.85
-14.29
-9.12
-4.97
-1.04
3.18
7.07
10.19
13.01
16.28
20.33
24.84
29.09
32.35
34.30
35.00
35.34
36.60
39.53
43.77
47.93
50.24
49.37
44.96
37.53
28.54
19.71
12.50
7.57
4.67
2.79
0.72
-2.44
-6.84
-11.82
-16.20
-18.77
-18.81
-16.27
-11.74
-6.18
-0.53
4.42
8.17
10.40
10.94
9.81
7.18
3.43
-0.89
-5.16
-8.81
-11.48
-13.12
-13.96
-14.35
-14.57
-14.70
-14.68
-14.36
-13.67
-12.62
-11.22
-9.36
-6.82
-3.37
1.02
5.91
10.44
13.63
14.86
14.17
12.30
10.19
8.45
6.87
4.50
0.13
-6.99
-16.53
-27.10
-36.81
-43.99
-47.90
-48.85
-47.88
-46.12
-44.27
-42.48
-40.51
-38.19
-35.70
-33.67
-32.78
-33.47
-35.59
-38.47
-41.20
-42.99
-43.58
-43.20
-42.40
-41.65
-41.07
-40.35
-39.02
-36.77
-33.64
-29.99
-26.14
-22.26
-18.15
-13.44
-7.72
-0.81
7.19
15.90
24.70
32.91
39.97
45.60
49.82
52.87
54.87
55.57
54.34
50.39
43.37
33.72
22.77
12.30
3.87
-1.77
-4.83
-6.06
-6.24
-5.76
-4.54
-2.39
0.56
3.65
5.82
6.10
4.09
0.21
-4.49
-8.75
-11.69
-13.06
-13.28
-13.14
-13.38
-14.44
-16.48
-19.46
-23.42
-28.36
-34.17
-40.41
-46.27
-50.89
-53.65
-54.51
-54.11
-53.50
-53.59
-54.74
-56.69
-58.80
-60.61
-62.17
-64.05
-67.12
-72.05
-78.66
-85.97
-92.66
-97.84
-101.56
-104.66
-108.39
-113.77
-121.17
-129.78
-137.78
-142.81
-142.56
-135.13
-119.04
-93.83
-60.57
-21.91
18.58
57.37
91.52
118.76
137.73
148.38
151.49
148.13
139.26
126.21
111.01
96.23
84.38
77.62
78.03
86.81
103.51
123.40
138.27
141.64
133.68
119.28
103.23
88.49
75.90
65.02
55.37
47.48
42.86
42.72
47.57
54.24
58.87
58.18
50.61
36.96
20.30
4.82
-6.03
-11.10
-11.62
-9.61
-6.82
-4.86
-4.22
-4.67
-5.63
-6.64
-7.78
-9.40
-11.52
-13.88
-16.17
-18.22
-19.95
-21.30
-22.12
-22.34
-21.97
-20.98
-19.49
-17.75
-16.04
-14.57
-13.44
-12.61
-12.09
-11.98
-12.36
-13.27
-14.62
-16.13
-17.52
-18.59
-19.36
-20.06
-21.04
-22.51
-24.39
-26.27
-27.48
-27.40
-25.65
-22.31
-17.92
-13.27
-9.07
-5.74
-3.25
-1.24
0.76
3.02
5.46
7.73
9.44
10.39
10.72
10.85
11.27
12.17
13.37
14.43
14.86
14.49
13.54
12.51
11.89
11.86
12.19
12.35
11.92
10.77
9.18
7.63
6.56
6.07
5.96
5.84
5.37
4.43
3.01
1.24
-0.82
-3.14
-5.68
-8.39
-11.09
-13.59
-15.70
-17.37
-18.61
-19.59
-20.50
-21.51
-22.60
-23.53
-23.85
-23.07
-20.91
-17.46
-13.20
-8.81
-4.82
-1.48
1.38
4.09
6.92
9.83
12.51
14.51
15.60
15.88
15.79
15.86
16.43
17.49
18.66
19.46
19.54
18.91
17.88
16.92
16.40
16.38
16.63
16.71
16.27
15.21
13.68
12.05
10.63
9.55
8.69
7.81
6.71
5.34
3.88
2.58
1.57
0.79
-0.04
-1.27
-3.05
-5.31
-7.68
-9.75
-11.29
-12.34
-13.17
-14.12
-15.31
-16.50
-17.24
-17.01
-15.52
-12.88
-9.54
-6.09
-3.00
-0.44
1.75
3.87
6.15
8.57
10.86
12.62
13.61
13.86
13.72
13.68
14.09
14.98
16.00
16.61
16.39
15.28
13.62
11.93
10.67
9.98
9.65
9.30
8.65
7.64
6.43
5.33
4.48
3.86
3.19
2.23
0.85
-0.82
-2.43
-3.65
-4.27
-4.43
-4.51
-4.96
-6.09
-7.91
-10.12
-12.32
-14.17
-15.56
-16.61
-17.46
-18.12
-18.36
-17.80
-16.08
-13.15
-9.29
-5.08
-1.20
1.91
4.15
5.79
7.26
8.97
10.99
13.10
14.86
15.87
16.06
15.64
15.04
14.69
14.73
15.06
15.36
15.38
15.09
14.65
14.36
14.42
14.79
15.13
15.03
14.19
12.62
10.66
8.85
7.63
7.11
7.01
6.84
6.17
4.91
3.35
1.93
0.96
0.37
-0.25
-1.41
-3.35
-5.86
-8.41
-10.40
-11.53
-11.93
-12.05
-12.40
-13.14
-14.08
-14.67
-14.35
-12.77
-10.02
-6.58
-3.05
0.09
2.68
4.91
7.10
9.46
11.87
13.95
15.24
15.56
15.10
14.38
13.95
14.13
14.83
15.64
16.08
15.89
15.15
14.22
13.47
13.15
13.18
13.25
12.99
12.21
11.02
9.75
8.80
8.38
8.36
8.32
7.76
6.38
4.28
1.90
-0.20
-1.62
-2.38
-2.81
-3.43
-4.53
-6.06
-7.63
-8.76
-9.13
-8.90
-8.52
-8.60
-9.47
-11.04
-12.80
-14.09
-14.42
-13.68
-12.15
-10.32
-8.58
-7.01
-5.43
-3.51
-1.07
1.76
4.55
6.78
8.16
8.72
8.84
9.01
9.51
10.24
10.87
11.00
10.49
9.52
8.50
7.84
7.70
7.91
8.06
7.78
6.93
5.68
4.39
3.46
3.05
3.04
3.06
2.72
1.83
0.53
-0.81
-1.75
-2.07
-1.88
-1.58
-1.65
-2.38
-3.69
-5.21
-6.49
-7.20
-7.42
-7.50
-7.90
-8.94
-10.57
-12.41
-13.91
-14.58
-14.25
-13.10
-11.49
-9.78
-8.14
-6.53
-4.75
-2.69
-0.38
1.94
3.92
5.35
6.18
6.58
6.85
7.17
7.52
7.70
7.46
6.72
5.67
4.69
4.11
4.04
4.27
4.38
4.01
3.09
1.88
0.79
0.20
0.19
0.48
0.65
0.28
-0.74
-2.24
-3.81
-5.07
-5.80
-6.06
-6.13
-6.36
-6.95
-7.89
-8.95
-9.82
-10.31
-10.44
-10.50
-10.82
-11.63
-12.90
-14.38
-15.72
-16.60
-16.89
-16.67
-16.06
-15.13
-13.83
-12.00
-9.52
-6.48
-3.17
-0.09
2.32
3.90
4.80
5.44
6.24
7.35
8.57
9.45
9.58
8.84
7.54
6.25
5.52
5.57
6.20
6.88
7.12
6.68
5.76
4.82
4.30
4.41
4.95
5.44
5.44
4.75
3.51
2.19
1.24
0.85
0.86
0.83
0.30
-0.90
-2.61
-4.36
-5.69
-6.36
-6.52
-6.58
-6.96
-7.91
-9.34
-10.90
-12.24
-13.15
-13.68
-14.05
-14.44
-14.85
-15.02
-14.62
-13.38
-11.35
-8.81
-6.22
-3.89
-1.90
-0.07
1.84
3.94
6.09
7.89
8.97
9.15
8.62
7.81
7.18
7.02
7.28
7.65
7.79
7.51
6.89
6.24
5.90
6.04
6.50
6.88
6.80
6.06
4.77
3.32
2.13
1.54
1.56
1.86
1.92
1.38
0.17
-1.45
-3.05
-4.26
-4.92
-5.25
-5.77
-6.95
-8.88
-11.19
-13.28
-14.57
-14.87
-14.24
-13.23
-12.62
-13.00
-14.20
-15.44
-15.68
-14.16
-10.71
-5.50
0.56
6.01
9.58
11.00
11.02
10.91
11.75
14.00
17.95
22.89
27.22
29.44
29.24
27.45
25.28
23.65
23.23
25.52
31.88
42.62
56.67
71.61
83.64
88.45
83.15
63.46
33.22
3.92
-13.67
-17.72
-14.60
-12.63
-16.66
-26.21
-37.25
-44.51
-45.55
-41.87
-37.06
-33.89
-33.04
-33.45
-33.50
-32.25
-29.14
-24.80
-20.93
-19.19
-19.93
-22.34
-25.71
-28.66
-30.95
-32.84
-35.26
-39.20
-44.59
-49.54
-50.98
-46.11
-33.88
-15.94
4.28
22.68
36.01
43.03
44.67
43.14
40.76
39.05
38.42
38.69
39.37
39.94
39.86
38.98
36.95
33.68
29.33
24.26
19.06
14.48
11.25
9.96
10.90
13.73
17.55
21.01
22.76
21.87
18.25
12.56
5.92
-0.72
-6.98
-13.09
-19.55
-26.67
-34.18
-41.25
-46.79
-50.03
-50.83
-49.73
-47.52
-44.87
-42.00
-38.64
-34.34
-28.78
-21.93
-14.07
-5.55
3.35
12.47
21.73
30.83
39.20
46.12
50.97
53.69
54.89
55.66
57.15
59.94
63.74
67.48
69.82
69.80
67.24
62.84
57.76
53.10
49.50
47.00
45.20
43.51
41.31
38.01
33.13
26.27
17.23
6.14
-6.44
-19.51
-31.82
-42.18
-49.76
-54.35
-56.38
-56.75
-56.44
-56.21
-56.39
-56.94
-57.63
-58.31
-58.96
-59.68
-60.46
-61.06
-61.03
-59.90
-57.43
-53.72
-49.25
-44.62
-40.26
-36.24
-32.29
-27.97
-22.98
-17.40
-11.76
-6.87
-3.44
-1.80
-1.67
-2.31
-2.83
-2.63
-1.64
-0.26
0.93
1.53
1.60
1.69
2.51
4.54
7.78
11.68
15.46
18.44
20.37
21.47
22.19
22.90
23.63
24.10
23.87
22.63
20.38
17.51
14.57
12.09
10.34
9.27
8.51
7.56
5.94
3.40
-0.03
-4.06
-8.25
-12.25
-15.85
-19.11
-22.20
-25.29
-28.32
-31.10
-33.27
-34.57
-34.80
-33.90
-31.91
-28.85
-24.84
-20.18
-15.49
-11.61
-9.38
-9.24
-10.92
-13.39
-15.27
-15.42
-13.51
-10.19
-6.79
-4.54
-3.95
-4.49
-4.96
-4.18
-1.72
1.81
5.12
7.00
6.92
5.29
3.19
1.70
1.34
1.89
2.68
3.02
2.59
1.49
0.04
-1.50
-3.16
-5.15
-7.71
-10.83
-14.25
-17.51
-20.18
-22.06
-23.24
-23.98
-24.54
-24.99
-25.16
-24.78
-23.59
-21.55
-18.80
-15.65
-12.35
-8.97
-5.42
-1.53
2.78
7.35
11.78
15.61
18.55
20.69
22.40
24.16
26.25
28.53
30.57
31.86
32.16
31.70
31.01
30.69
31.02
31.71
32.01
31.03
28.18
23.48
17.50
11.14
5.24
0.33
-3.45
-6.17
-7.91
-8.67
-8.42
-7.23
-5.48
-3.84
-2.99
-3.43
-5.14
-7.62
-10.11
-11.90
-12.58
-12.18
-11.09
-9.89
-9.02
-8.60
-8.34
-7.66
-5.95
-2.93
1.19
5.71
9.78
12.79
14.57
15.42
15.78
15.86
15.43
14.00
11.18
7.03
2.12
-2.57
-6.14
-8.16
-8.80
-8.62
-8.33
-8.34
-8.68
-9.07
-9.06
-8.38
-7.03
-5.31
-3.66
-2.47
-1.90
-1.90
-2.19
-2.50
-2.59
-2.37
-1.80
-0.91
0.23
1.50
2.63
3.21
2.85
1.27
-1.45
-4.93
-8.57
-11.73
-13.94
-15.01
-15.00
-14.06
-12.35
-9.93
-6.85
-3.20
0.83
4.89
8.52
11.40
13.37
14.56
15.29
15.97
16.90
18.05
19.16
19.83
19.78
18.99
17.74
16.47
15.53
15.03
14.81
14.53
13.95
12.97
11.70
10.31
8.95
7.60
6.18
4.60
2.90
1.24
-0.21
-1.37
-2.38
-3.52
-5.12
-7.34
-10.12
-13.17
-16.12
-18.66
-20.68
-22.35
-23.97
-25.91
-28.34
-31.17
-33.97
-36.15
-37.15
-36.65
-34.72
-31.72
-28.08
-24.11
-19.83
-15.04
-9.57
-3.58
2.38
7.47
11.03
12.86
13.44
13.71
14.56
16.39
18.90
21.35
23.02
23.65
23.57
23.49
23.97
25.11
26.52
27.59
27.92
27.44
26.40
25.14
23.81
22.30
20.42
18.05
15.30
12.45
9.76
7.37
5.17
2.89
0.30
-2.69
-5.97
-9.32
-12.54
-15.59
-18.58
-21.72
-25.19
-28.99
-32.80
-36.08
-38.12
-38.28
-36.21
-32.05
-26.35
-20.02
-13.91
-8.65
-4.52
-1.45
0.80
2.47
3.78
4.97
6.33
8.17
10.71
13.88
17.33
20.50
22.81
24.01
24.25
24.06
24.07
24.72
25.88
26.93
27.05
25.61
22.61
18.75
15.08
12.55
11.52
11.60
11.95
11.79
10.78
9.09
7.19
5.40
3.67
1.58
-1.33
-5.30
-10.16
-15.43
-20.56
-25.16
-29.06
-32.30
-34.90
-36.79
-37.73
-37.48
-35.92
-33.19
-29.66
-25.89
-22.35
-19.22
-16.41
-13.58
-10.46
-6.99
-3.46
-0.38
1.78
2.87
3.10
3.02
3.18
3.92
5.12
6.31
6.89
6.43
4.91
2.74
0.57
-0.99
-1.66
-1.60
-1.29
-1.25
-1.73
-2.66
-3.73
-4.62
-5.19
-5.49
-5.56
-5.31
-4.45
-2.71
-0.03
3.25
6.42
8.72
9.62
9.06
7.40
5.16
2.75
0.35
-2.02
-4.32
-6.37
-7.76
-8.11
-7.28
-5.39
-2.84
-0.16
2.25
4.22
5.81
7.26
8.85
10.74
12.90
15.00
16.49
16.78
15.48
12.68
8.92
5.05
1.87
-0.23
-1.36
-2.01
-2.64
-3.44
-4.27
-4.77
-4.73
-4.27
-3.85
-4.17
-5.69
-8.53
-12.27
-16.10
-19.04
-20.32
-19.59
-17.10
-13.57
-9.99
-7.31
-6.17
-6.76
-8.85
-11.96
-15.59
-19.38
-23.10
-26.59
-29.60
-31.75
-32.52
-31.46
-28.38
-23.46
-17.32
-10.83
-4.93
-0.42
2.28
3.17
2.67
1.53
0.61
0.55
1.57
3.20
4.28
3.21
-1.41
-9.93
-21.00
-31.48
-37.11
-33.93
-19.85
4.38
35.15
67.09
94.69
113.74
122.05
119.33
106.64
85.78
58.97
28.78
-1.97
-30.43
-54.09
-71.26
-81.31
-84.74
-83.04
-78.30
-72.85
-68.82
-67.78
-70.61
-77.42
-87.77
-100.83
-115.60
-131.18
-146.90
-162.38
-177.47
-191.85
-204.57
-213.76
-216.75
-210.75
-193.86
-166.12
-129.88
-89.43
-49.94
-16.09
8.99
24.06
29.58
27.11
18.63
6.14
-8.47
-23.54
-37.46
-48.72
-55.94
-57.90
-53.81
-43.61
-28.20
-9.43
10.21
28.28
43.14
54.44
63.07
70.53
78.14
86.34
94.50
101.28
105.36
106.11
103.87
99.85
95.56
92.20
90.16
88.89
87.27
84.18
78.98
71.76
63.21
54.13
45.18
36.64
28.70
21.69
16.23
13.21
13.38
16.95
23.37
31.40
39.50
46.34
51.21
54.14
55.71
56.83
58.32
60.72
64.12
68.33
72.92
77.44
81.45
84.56
86.45
86.97
86.17
84.37
82.08
79.75
77.63
75.61
73.31
70.33
66.44
61.74
56.54
51.14
45.67
40.13
34.48
28.91
23.79
19.53
16.26
13.64
10.96
7.37
2.33
-4.24
-11.88
-19.87
-27.44
-33.89
-38.73
-41.55
-42.08
-40.27
-36.34
-30.75
-24.12
-17.04
-10.02
-3.49
2.22
6.78
10.06
12.21
13.66
14.95
16.52
18.50
20.71
22.86
24.72
26.27
27.54
28.51
29.02
28.81
27.85
26.41
25.08
24.45
24.80
25.88
26.97
27.21
26.04
23.39
19.77
15.92
12.51
9.88
7.90
6.20
4.37
2.26
0.01
-2.13
-3.98
-5.69
-7.62
-10.17
-13.45
-17.14
-20.60
-23.13
-24.38
-24.39
-23.48
-21.90
-19.58
-16.17
-11.29
-4.95
2.27
9.34
15.23
19.34
21.76
23.10
24.14
25.35
26.77
27.96
28.42
27.84
26.35
24.41
22.62
21.44
20.94
20.84
20.65
19.99
18.73
17.07
15.38
13.98
12.89
11.75
10.02
7.18
3.07
-1.99
-7.20
-11.63
-14.50
-15.60
-15.35
-14.61
-14.36
-15.31
-17.73
-21.41
-25.96
-30.91
-35.87
-40.40
-43.89
-45.63
-44.96
-41.61
-35.98
-29.08
-22.16
-16.21
-11.55
-7.71
-3.87
0.72
6.22
12.09
17.46
21.58
24.20
25.66
26.59
27.50
28.52
29.38
29.69
29.26
28.26
27.11
26.24
25.82
25.68
25.41
24.59
22.95
20.51
17.53
14.38
11.42
8.77
6.34
3.87
1.13
-1.93
-5.09
-7.91
-9.97
-11.09
-11.46
-11.60
-12.14
-13.56
-15.98
-19.14
-22.45
-25.34
-27.36
-28.37
-28.38
-27.44
-25.50
-22.36
-17.85
-12.03
-5.35
1.43
7.55
12.52
16.30
19.29
21.96
24.62
27.24
29.51
31.09
31.84
31.84
31.40
30.77
30.11
29.40
28.57
27.62
26.66
25.81
25.22
24.85
24.55
24.11
23.31
22.11
20.59
18.89
17.16
15.41
13.58
11.52
9.16
6.48
3.66
0.99
-1.09
-2.18
-2.12
-1.16
0.08
1.01
1.39
1.66
2.64
4.83
7.75
9.77
8.73
3.15
-6.81
-19.18
-30.92
-39.34
-43.16
-42.69
-39.23
-34.08
-27.97
-21.20
-14.02
-6.95
-0.72
4.18
7.79
10.55
12.89
14.79
15.76
15.23
13.01
9.50
5.42
1.27
-3.03
-8.02
-14.16
-21.32
-28.68
-35.16
-40.09
-43.60
-46.44
-49.47
-53.06
-56.87
-60.21
-62.59
-63.98
-64.79
-65.47
-66.23
-67.00
-67.65
-68.16
-68.50
-68.34
-66.89
-63.12
-56.32
-46.47
-34.43
-21.41
-8.42
4.24
16.79
29.56
42.34
54.30
64.36
71.73
76.43
79.14
80.76
81.83
82.26
81.59
79.34
75.49
70.41
64.72
58.88
53.08
47.33
41.72
36.55
32.27
29.21
27.32
26.19
25.27
24.08
22.34
19.78
16.00
10.41
2.56
-7.43
-18.69
-29.77
-39.25
-46.39
-51.50
-55.65
-60.01
-65.13
-70.73
-75.84
-79.31
-80.31
-78.56
-74.17
-67.45
-58.78
-48.60
-37.50
-26.25
-15.67
-6.38
1.30
7.45
12.39
16.50
20.08
23.21
25.81
27.62
28.45
28.30
27.45
26.38
25.56
25.33
25.78
26.87
28.51
30.78
33.91
37.87
42.22
46.01
48.08
47.57
44.31
38.92
32.62
26.71
21.96
18.32
15.10
11.37
6.46
0.30
-6.78
-14.01
-20.52
-25.73
-29.60
-32.60
-35.41
-38.81
-43.33
-49.49
-56.91
-64.38
-70.45
-74.24
-75.70
-75.51
-74.86
-74.86
-76.76
-80.12
-82.96
-83.16
-79.88
-73.70
-65.84
-57.55
-49.43
-42.73
-37.57
-33.34
-30.13
-29.26
-32.30
-39.47
-49.87
-61.83
-75.41
-89.47
-101.00
-106.40
-103.13
-90.13
-67.68
-37.72
6.08
58.77
108.33
146.83
177.58
209.28
245.77
286.46
323.72
349.35
354.85
337.03
299.29
249.28
194.92
141.81
92.40
45.87
0.14
-47.30
-95.32
-138.90
-171.88
-190.39
-194.31
-186.70
-172.68
-157.22
-144.40
-134.79
-126.00
-115.03
-100.74
-84.45
-68.89
-56.62
-48.42
-43.37
-38.88
-32.26
-22.35
-10.27
1.40
10.36
15.60
17.81
18.48
19.16
20.73
23.15
25.70
27.62
28.63
28.98
29.21
29.88
31.26
33.33
35.70
37.72
38.79
38.55
37.11
34.97
32.82
31.11
29.92
29.07
28.32
27.71
27.46
27.69
28.03
27.55
25.09
19.79
11.56
1.05
-10.52
-21.80
-31.61
-39.16
-44.04
-46.23
-46.01
-43.83
-40.16
-35.41
-29.91
-24.01
-18.11
-12.57
-7.58
-3.14
0.73
3.60
4.44
1.80
-5.36
-16.87
-30.93
-44.52
-54.52
-58.90
-57.42
-51.52
-43.57
-35.82
-29.91
-26.82
-27.06
-30.74
-37.37
-45.34
-51.93
-53.82
-48.33
-34.69
-14.62
8.13
29.12
44.80
53.50
55.63
52.85
47.07
39.77
31.72
23.30
14.76
6.52
-0.77
-6.36
-9.49
-9.66
-6.97
-2.26
3.00
7.17
9.19
9.05
7.77
6.85
7.42
9.56
12.26
13.96
13.53
10.85
7.00
3.54
1.76
1.84
2.83
3.14
1.52
-2.22
-7.05
-11.23
-13.15
-12.21
-9.08
-5.24
-2.27
-0.99
-1.22
-1.98
-2.21
-1.42
0.01
0.99
0.40
-2.33
-6.90
-12.24
-17.05
-20.34
-21.84
-21.92
-21.28
-20.53
-19.93
-19.42
-18.84
-18.21
-17.78
-17.94
-18.96
-20.75
-22.82
-24.48
-25.11
-24.46
-22.69
-20.31
-17.77
-15.32
-12.84
-10.04
-6.73
-3.15
0.07
2.11
2.35
0.68
-2.31
-5.58
-7.93
-8.44
-6.69
-2.70
3.21
10.58
18.87
27.36
35.13
41.16
44.56
44.90
42.42
37.97
32.75
27.86
23.96
21.14
19.03
17.11
14.99
12.57
9.96
7.38
4.88
2.27
-0.82
-4.82
-9.85
-15.63
-21.46
-26.38
-29.60
-30.69
-29.80
-27.52
-24.62
-21.75
-19.29
-17.35
-15.91
-15.01
-14.69
-14.94
-15.42
-15.53
-14.61
-12.27
-8.73
-4.82
-1.62
0.04
0.04
-0.90
-1.57
-0.82
1.80
5.81
9.93
12.68
13.13
11.24
7.93
4.55
2.17
1.08
0.76
0.31
-0.88
-2.75
-4.65
-5.80
-5.88
-5.35
-5.24
-6.63
-9.98
-14.91
-20.32
-25.01
-28.25
-30.17
-31.61
-33.70
-37.22
-42.23
-47.96
-53.09
-56.35
-56.95
-54.93
-51.05
-46.44
-42.24
-39.29
-38.20
-39.32
-42.71
-47.69
-52.41
-53.79
-48.27
-33.18
-8.21
24.06
58.74
90.30
114.56
129.73
136.51
137.03
133.59
127.87
120.77
112.76
104.36
96.43
89.92
85.45
82.92
81.30
78.96
74.36
66.75
56.63
45.51
35.20
27.00
21.18
17.15
13.94
10.81
7.45
3.83
-0.12
-4.65
-10.07
-16.43
-23.20
-29.33
-33.51
-34.83
-33.21
-29.59
-25.62
-22.90
-22.25
-23.26
-24.46
-24.06
-20.89
-15.07
-8.03
-1.85
1.50
1.05
-2.90
-8.82
-14.46
-17.58
-16.68
-11.44
-2.89
6.95
15.77
21.67
23.61
21.53
15.98
7.80
-2.10
-12.80
-23.19
-31.95
-37.68
-39.35
-36.74
-30.69
-22.94
-15.60
-10.44
-8.31
-8.98
-11.41
-14.40
-17.01
-18.88
-20.07
-20.74
-20.99
-20.83
-20.28
-19.52
-18.91
-18.77
-19.25
-20.20
-21.20
-21.73
-21.31
-19.71
-17.00
-13.52
-9.85
-6.45
-3.61
-1.26
0.86
2.97
4.98
6.54
7.22
6.87
5.82
4.78
4.48
5.26
6.81
8.39
9.22
9.02
8.17
7.55
7.99
9.77
12.34
14.53
15.08
13.32
9.52
4.94
1.28
0.03
1.83
6.24
11.96
17.39
21.10
22.24
20.60
16.66
11.42
6.37
3.18
3.32
7.55
15.40
25.10
33.88
38.83
37.82
30.25
17.22
1.18
-14.95
-28.52
-37.89
-42.57
-43.24
-41.23
-38.16
-35.50
-34.24
-34.74
-36.68
-39.16
-40.96
-40.86
-37.95
-31.83
-22.74
-11.55
0.29
11.07
19.26
23.96
25.29
24.37
22.88
22.39
23.66
26.27
28.90
29.88
28.03
23.19
16.18
8.38
1.09
-5.00
-9.92
-14.06
-17.79
-21.06
-23.26
-23.61
-21.60
-17.47
-12.25
-7.44
-4.39
-3.74
-5.20
-7.73
-10.05
-11.23
-11.00
-9.71
-7.92
-6.04
-4.14
-2.00
0.43
2.86
4.64
5.06
3.84
1.37
-1.40
-3.33
-3.70
-2.47
-0.27
1.99
3.61
4.35
4.49
4.49
4.72
5.17
5.55
5.48
4.81
3.70
2.52
1.69
1.39
1.52
1.75
1.77
1.44
0.83
0.23
-0.11
-0.06
0.26
0.56
0.49
-0.07
-1.07
-2.24
-3.29
-4.11
-4.83
-5.75
-7.03
-8.54
-9.79
-10.16
-9.15
-6.81
-3.66
-0.49
2.04
3.74
4.86
5.86
7.07
8.38
9.31
9.31
8.09
5.89
3.39
1.34
0.27
0.20
0.70
1.17
1.09
0.33
-0.88
-1.96
-2.20
-0.97
2.01
6.64
12.44
18.65
24.43
29.07
32.03
32.94
31.55
27.71
21.53
13.47
4.47
-4.24
-11.52
-16.74
-19.97
-21.85
-23.22
-24.64
-26.14
-27.25
-27.35
-26.07
-23.60
-20.64
-18.03
-16.35
-15.70
-15.64
-15.47
-14.63
-12.90
-10.50
-7.90
-5.62
-4.05
-3.39
-3.69
-4.92
-6.91
-9.39
-11.86
-13.69
-14.23
-13.00
-9.87
-5.14
0.61
6.70
12.61
18.09
23.13
27.81
32.04
35.47
37.50
37.63
35.74
32.35
28.42
24.99
22.68
21.41
20.58
19.54
18.09
16.69
16.19
17.27
19.87
23.02
25.17
24.92
21.75
16.21
9.58
3.24
-2.03
-6.20
-9.75
-13.14
-16.36
-18.91
-20.00
-19.00
-15.78
-10.80
-4.98
0.65
5.21
8.16
9.22
8.30
5.34
0.34
-6.47
-14.43
-22.20
-28.06
-30.33
-28.12
-21.82
-13.10
-4.41
2.04
5.03
4.78
2.63
0.31
-0.82
-0.29
1.48
3.55
5.10
5.76
5.75
5.60
5.76
6.30
6.90
7.14
6.82
6.09
5.34
4.85
4.55
3.92
2.32
-0.67
-4.88
-9.60
-13.81
-16.61
-17.52
-16.64
-14.54
-11.97
-9.54
-7.58
-5.99
-4.46
-2.63
-0.42
1.90
3.81
4.92
5.13
4.79
4.48
4.62
5.22
5.85
5.93
5.20
3.90
2.65
2.10
2.45
3.33
3.93
3.53
1.91
-0.43
-2.57
-3.63
-3.31
-2.01
-0.71
-0.40
-1.60
-4.17
-7.39
-10.29
-12.16
-12.77
-12.39
-11.68
-11.22
-11.38
-12.11
-12.99
-13.53
-13.41
-12.63
-11.52
-10.47
-9.60
-8.70
-7.32
-5.08
-2.01
1.43
4.50
6.63
7.67
7.92
7.98
8.30
8.97
9.69
10.03
9.76
8.99
8.12
7.55
7.58
8.10
8.76
9.14
8.96
8.20
7.06
5.86
4.88
4.22
3.77
3.31
2.63
1.65
0.52
-0.49
-1.11
-1.30
-1.26
-1.42
-2.15
-3.56
-5.40
-7.20
-8.54
-9.31
-9.76
-10.30
-11.25
-12.55
-13.85
-14.70
-14.79
-14.15
-13.04
-11.76
-10.45
-9.01
-7.21
-4.90
-2.08
0.94
3.74
5.84
7.05
7.44
7.30
7.07
7.12
7.57
8.27
8.92
9.21
9.06
8.67
8.41
8.58
9.21
10.01
10.43
10.04
8.80
7.11
5.64
4.99
5.29
6.16
6.91
6.96
6.14
4.75
3.37
2.42
2.01
1.86
1.53
0.75
-0.47
-1.89
-3.20
-4.23
-5.11
-6.06
-7.27
-8.70
-9.97
-10.59
-10.12
-8.47
-5.98
-3.28
-1.03
0.46
1.36
2.18
3.50
5.59
8.21
10.69
12.30
12.66
11.89
10.61
9.54
9.13
9.36
9.75
9.74
9.00
7.63
6.07
4.85
4.28
4.24
4.33
4.10
3.35
2.20
1.04
0.28
0.11
0.35
0.58
0.34
-0.61
-2.16
-3.92
-5.37
-6.15
-6.22
-5.87
-5.59
-5.88
-6.96
-8.74
-10.81
-12.74
-14.21
-15.20
-15.82
-16.15
-16.10
-15.39
-13.73
-11.09
-7.82
-4.55
-1.84
0.14
1.69
3.37
5.63
8.44
11.30
13.49
14.52
14.41
13.64
12.90
12.76
13.36
14.46
15.60
16.29
16.32
15.72
14.73
13.64
12.59
11.47
9.94
7.66
4.51
0.73
-3.08
-6.33
-8.70
-10.35
-11.80
-13.59
-15.87
-18.29
-20.19
-21.00
-20.61
-19.54
-18.73
-19.06
-20.89
-23.94
-27.46
-30.64
-32.99
-34.51
-35.53
-36.35
-36.98
-37.04
-36.01
-33.53
-29.65
-24.79
-19.60
-14.51
-9.62
-4.67
0.66
6.55
12.82
18.97
24.40
28.63
31.51
33.20
34.10
34.62
35.09
35.68
36.36
37.00
37.38
37.29
36.64
35.42
33.81
31.98
30.10
28.22
26.32
24.38
22.49
20.77
19.30
17.95
16.40
14.25
11.35
7.95
4.65
2.15
0.85
0.57
0.63
0.15
-1.47
-4.22
-7.47
-10.33
-12.07
-12.44
-11.75
-10.59
-9.51
-8.74
-8.13
-7.34
-6.09
-4.30
-2.18
0.00
2.00
3.69
5.11
6.32
7.28
7.83
7.78
7.03
5.70
4.14
2.79
2.06
2.08
2.64
3.31
3.61
3.31
2.50
1.58
0.99
0.90
1.10
1.05
0.21
-1.64
-4.16
-6.65
-8.38
-9.01
-8.74
-8.19
-8.04
-8.57
-9.65
-10.79
-11.62
-12.13
-12.76
-14.12
-16.60
-20.01
-23.59
-26.33
-27.35
-26.36
-23.78
-20.54
-17.71
-15.99
-15.45
-15.49
-15.14
-13.50
-10.24
-5.79
-1.16
2.44
4.19
3.94
2.34
0.49
-0.56
-0.20
1.44
3.57
4.95
4.23
0.31
-7.25
-17.88
-29.86
-40.17
-44.84
-39.87
-22.65
6.63
44.08
82.81
114.97
134.61
139.82
133.07
119.63
104.76
91.38
79.29
66.20
49.81
29.44
6.36
-17.08
-38.83
-57.88
-74.13
-87.59
-97.64
-103.08
-102.67
-96.11
-84.49
-70.29
-56.44
-45.34
-37.99
-33.78
-31.01
-27.79
-22.96
-16.51
-9.47
-3.28
0.94
2.98
3.51
3.75
4.81
7.20
10.63
14.28
17.32
19.22
20.02
20.12
20.02
19.98
19.96
19.69
18.95
17.74
16.28
14.91
13.82
12.87
11.66
9.74
6.94
3.50
-0.01
-2.95
-4.97
-6.18
-7.10
-8.32
-10.18
-12.60
-15.21
-17.60
-19.56
-21.22
-22.79
-24.36
-25.65
-26.08
-25.09
-22.45
-18.42
-13.74
-9.22
-5.41
-2.35
0.29
2.96
5.90
8.98
11.79
13.88
15.00
15.30
15.17
15.08
15.34
16.04
16.97
17.80
18.15
17.85
16.90
15.53
14.07
12.77
11.69
10.63
9.27
7.39
5.03
2.46
0.09
-1.79
-3.26
-4.67
-6.52
-9.03
-12.07
-15.11
-17.56
-19.07
-19.75
-20.17
-20.99
-22.66
-25.12
-27.91
-30.31
-31.72
-31.88
-30.90
-29.10
-26.65
-23.49
-19.27
-13.67
-6.66
1.28
9.25
16.22
21.45
24.81
26.72
27.87
28.83
29.77
30.45
30.55
29.90
28.68
27.30
26.23
25.73
25.79
26.15
26.45
26.43
25.89
24.78
23.08
20.90
18.41
15.86
13.54
11.63
10.20
9.12
8.18
7.09
5.56
3.37
0.38
-3.33
-7.45
-11.51
-15.02
-17.74
-19.82
-21.75
-24.12
-27.20
-30.70
-33.78
-35.38
-34.75
-31.83
-27.24
-21.95
-16.78
-11.98
-7.33
-2.39
3.07
8.79
14.07
18.20
20.80
22.03
22.45
22.72
23.25
24.05
24.78
25.03
24.60
23.59
22.39
21.41
20.94
20.91
21.05
20.92
20.26
19.02
17.42
15.74
14.19
12.71
11.07
9.00
6.41
3.50
0.64
-1.77
-3.60
-5.02
-6.51
-8.56
-11.43
-15.04
-19.01
-22.87
-26.28
-29.18
-31.67
-33.85
-35.63
-36.67
-36.54
-34.89
-31.68
-27.16
-21.84
-16.22
-10.65
-5.28
-0.11
4.88
9.62
13.92
17.55
20.29
22.08
23.05
23.51
23.82
24.25
24.82
25.35
25.51
25.14
24.30
23.29
22.48
22.06
21.83
21.31
19.96
17.61
14.48
11.20
8.45
6.59
5.46
4.48
3.01
0.64
-2.50
-5.90
-8.87
-11.00
-12.32
-13.35
-14.75
-17.05
-20.36
-24.36
-28.55
-32.41
-35.68
-38.28
-40.18
-41.22
-41.08
-39.39
-35.96
-30.88
-24.59
-17.71
-10.83
-4.34
1.58
6.93
11.76
16.11
19.91
22.99
25.25
26.68
27.44
27.79
28.01
28.17
28.16
27.71
26.62
24.96
23.08
21.45
20.41
19.93
19.58
18.68
16.71
13.55
9.60
5.60
2.28
-0.06
-1.67
-3.24
-5.57
-9.05
-13.51
-18.27
-22.49
-25.65
-27.90
-30.00
-32.91
-37.34
-43.33
-50.33
-57.40
-63.65
-68.58
-72.07
-74.37
-75.78
-76.60
-77.07
-77.43
-77.88
-78.48
-79.05
-79.01
-77.57
-73.98
-67.81
-59.08
-48.27
-36.14
-23.52
-10.97
1.30
13.44
25.70
38.03
49.84
60.04
67.45
71.40
72.27
71.51
71.02
72.30
75.52
79.46
82.13
81.93
78.53
73.09
67.56
63.68
62.05
61.99
62.14
61.40
59.57
57.37
55.72
54.91
54.22
52.27
47.88
40.87
32.32
23.99
17.37
12.85
9.60
6.15
1.36
-4.91
-11.75
-17.81
-22.01
-24.00
-24.15
-23.19
-21.75
-20.21
-18.76
-17.58
-16.88
-16.71
-16.87
-16.88
-16.18
-14.47
-11.84
-8.82
-6.00
-3.86
-2.60
-2.21
-2.47
-3.05
-3.43
-3.06
-1.54
1.13
4.41
7.37
9.10
9.29
8.38
7.51
7.99
10.72
15.80
22.50
29.42
34.86
37.11
34.82
27.35
15.12
-0.43
-17.08
-32.51
-44.84
-53.09
-57.19
-57.68
-55.38
-51.07
-45.45
-39.08
-32.45
-25.87
-19.45
-13.10
-6.66
0.03
6.94
13.82
20.15
25.14
27.97
28.14
25.79
21.81
17.56
14.31
12.69
12.54
13.11
13.54
13.24
12.03
9.97
7.32
4.50
2.19
1.17
2.08
4.89
8.63
11.59
11.97
8.85
2.57
-5.29
-12.78
-18.31
-21.28
-21.97
-21.04
-19.07
-16.35
-13.15
-10.08
-8.26
-8.98
-13.13
-20.51
-29.73
-38.60
-45.08
-48.02
-47.53
-44.72
-41.08
-37.77
-35.26
-33.31
-31.28
-28.51
-24.67
-19.97
-15.10
-10.96
-8.10
-6.22
-4.11
-0.06
7.27
17.98
30.65
42.89
52.36
57.94
60.00
60.06
59.74
59.88
60.19
59.68
57.42
53.11
47.16
40.34
33.32
26.45
19.74
13.11
6.68
0.89
-3.65
-6.40
-7.20
-6.56
-5.44
-5.09
-6.34
-9.36
-13.54
-17.90
-21.61
-24.39
-26.52
-28.49
-30.54
-32.41
-33.46
-33.03
-30.75
-26.65
-21.04
-14.37
-7.06
0.36
7.33
13.25
17.67
20.45
21.74
21.84
21.14
19.99
18.76
17.82
17.48
17.76
18.38
18.76
18.48
17.40
15.84
14.33
13.29
12.71
12.15
11.03
8.96
6.01
2.62
-0.57
-3.10
-4.84
-5.96
-6.81
-7.64
-8.49
-9.28
-9.95
-10.56
-11.42
-12.93
-15.43
-18.94
-23.19
-27.64
-31.75
-35.14
-37.72
-39.59
-40.88
-41.53
-41.38
-40.17
-37.70
-33.96
-29.11
-23.44
-17.33
-11.12
-5.13
0.39
5.22
9.25
12.44
14.87
16.64
17.92
18.86
19.61
20.26
20.83
21.26
21.45
21.30
20.79
20.03
19.21
18.58
18.29
18.34
18.58
18.74
18.61
18.13
17.34
16.32
15.11
13.61
11.73
9.45
7.00
4.82
3.36
2.92
3.26
3.54
2.48
-1.16
-7.92
-17.17
-27.14
-35.52
-40.38
-41.01
-38.14
-33.40
-28.38
-23.75
-19.19
-13.80
-7.08
0.59
7.89
13.31
15.88
15.70
13.79
11.61
10.40
10.76
12.57
15.28
18.30
21.23
23.99
26.73
29.51
32.17
34.23
35.08
34.28
31.85
28.27
24.29
20.55
17.30
14.24
10.79
6.42
1.00
-5.13
-11.26
-16.61
-20.71
-23.50
-25.38
-26.88
-28.43
-30.15
-31.89
-33.39
-34.63
-35.86
-37.59
-40.10
-43.25
-46.25
-48.00
-47.55
-44.58
-39.53
-33.34
-26.99
-21.00
-15.31
-9.53
-3.36
3.01
8.91
13.49
16.25
17.50
18.11
19.04
20.79
23.23
25.67
27.21
27.28
25.90
23.82
21.92
20.66
19.86
18.96
17.47
15.30
12.73
10.24
8.51
7.70
7.16
5.87
3.06
-1.34
-6.84
-12.76
-18.52
-22.69
-24.54
-24.71
-24.88
-26.55
-30.35
-36.10
-43.17
-50.83
-56.09
-57.04
-54.40
-50.90
-48.91
-49.08
-50.59
-52.16
-52.77
-48.39
-37.10
-21.11
-5.29
7.06
16.19
25.09
37.37
55.64
85.71
130.11
185.57
244.65
300.92
351.53
396.41
436.54
440.61
391.45
299.99
197.35
108.84
43.03
-3.59
-40.01
-76.05
-118.51
-162.87
-199.53
-220.34
-223.33
-212.59
-196.24
-182.93
-177.47
-178.35
-175.19
-158.72
-128.00
-91.24
-59.66
-40.83
-35.64
-39.16
-44.52
-44.16
-35.42
-21.50
-8.86
-2.52
-3.56
-9.68
-16.66
-21.39
-21.09
-15.46
-6.88
0.88
4.88
4.39
0.73
-3.76
-7.08
-7.87
-6.39
-4.20
-3.21
-4.52
-7.79
-11.66
-14.50
-15.38
-14.33
-12.31
-10.57
-10.06
-10.98
-12.78
-14.63
-15.73
-15.87
-15.35
-14.70
-14.37
-14.35
-14.16
-13.06
-10.98
-8.05
-4.82
-2.07
-0.41
-0.05
-0.74
-1.92
-3.11
-4.08
-4.83
-5.49
-6.08
-6.35
-5.91
-4.38
-1.67
1.98
6.07
10.06
13.54
16.39
18.71
20.73
22.63
24.42
25.96
27.06
27.59
27.62
27.37
27.07
26.80
26.46
25.91
25.20
24.54
24.33
24.95
26.56
28.88
31.34
33.31
34.47
35.03
35.37
35.74
35.92
35.19
32.63
27.50
19.86
10.69
1.75
-5.17
-8.92
-9.38
-7.55
-5.22
-4.18
-5.16
-8.13
-11.22
-12.33
-11.19
-9.57
-9.57
-11.66
-14.26
-14.98
-12.91
-9.59
-8.32
-11.51
-18.34
-24.51
-24.71
-16.75
-1.99
14.62
27.25
32.21
29.65
23.16
17.72
17.06
22.12
31.15
40.45
45.91
44.13
33.08
12.34
-16.34
-48.97
-79.85
-102.97
-114.43
-113.81
-104.38
-91.88
-82.51
-80.48
-87.05
-99.64
-112.57
-119.55
-116.11
-100.99
-76.52
-47.70
-19.73
3.26
20.09
32.74
43.84
54.93
65.90
75.13
79.94
78.20
67.98
49.16
24.32
-2.76
-27.50
-44.72
-50.31
-43.18
-21.03
11.44
43.51
67.26
82.39
94.52
109.08
128.79
146.49
152.39
138.63
103.87
54.64
-0.29
-54.22
-98.93
-124.95
-127.37
-108.56
-77.77
-50.01
-29.32
-17.39
-14.37
-18.27
-25.15
-30.18
-29.25
-21.43
-8.70
6.30
19.85
29.96
36.89
42.02
45.61
45.67
39.28
25.29
6.08
-15.40
-36.22
-54.20
-67.43
-74.47
-75.50
-71.55
-63.26
-49.94
-31.21
-4.76
28.13
64.62
104.09
143.01
174.47
188.01
178.00
144.64
94.15
36.27
-20.17
-62.81
-84.92
-89.75
-86.26
-81.55
-78.22
-75.44
-72.08
-67.92
-65.44
-66.02
-70.10
-75.12
-75.99
-68.33
-50.81
-25.69
2.74
30.22
52.32
64.88
66.11
56.29
36.34
7.96
-25.40
-57.58
-80.60
-87.49
-74.74
-42.72
4.57
60.55
117.81
169.55
210.26
236.15
245.05
236.66
213.11
178.31
136.96
93.78
53.01
18.36
-7.22
-22.23
-27.53
-26.44
-23.87
-24.06
-28.03
-32.39
-30.55
-16.47
11.43
47.83
81.77
100.59
95.28
64.06
12.58
-48.83
-109.06
-159.41
-194.64
-212.44
-212.91
-198.30
-172.91
-142.50
-112.63
-87.02
-66.65
-50.37
-36.54
-24.33
-13.69
-4.22
5.88
19.67
39.80
66.32
95.50
120.62
134.51
132.62
115.06
86.83
56.13
31.61
19.60
22.20
36.70
56.63
73.80
80.61
71.95
46.53
7.02
-40.43
-87.35
-124.93
-146.39
-149.04
-134.80
-108.76
-76.08
-39.41
1.73
48.84
101.05
153.11
196.30
222.19
226.80
212.73
187.57
159.74
134.23
110.58
84.21
50.09
6.56
-43.00
-91.20
-129.83
-153.47
-161.82
-159.69
-154.78
-154.20
-161.36
-174.28
-186.37
-188.80
-173.73
-137.32
-81.42
-13.72
53.86
108.47
140.00
143.81
121.77
80.95
30.88
-19.41
-63.51
-98.03
-121.85
-135.11
-138.78
-134.88
-126.61
-117.98
-112.77
-113.14
-119.09
-128.29
-137.17
-142.40
-141.91
-134.79
-120.74
-99.81
-72.83
-43.11
-16.03
2.29
7.36
-1.04
-17.53
-32.20
-34.20
-16.36
20.36
68.43
116.85
155.11
176.12
177.58
161.60
132.96
97.10
56.81
14.63
-26.14
-61.24
-86.79
-100.58
-102.96
-97.11
-88.21
-83.98
-88.72
-101.16
-115.61
-125.69
-128.03
-123.80
-118.10
-101.30
-71.76
-35.40
-1.58
24.04
40.70
50.22
56.36
65.03
82.83
111.80
149.61
189.24
220.41
233.36
223.56
194.74
157.74
125.14
103.92
94.85
93.42
92.74
87.50
75.48
58.14
39.54
23.52
11.87
5.03
2.84
5.09
11.34
20.78
32.05
42.78
48.67
45.42
31.32
8.96
-15.18
-33.39
-40.16
-34.54
-14.48
15.39
48.70
80.67
109.47
135.23
157.98
176.22
187.14
188.11
177.34
155.65
125.73
90.80
53.68
16.67
-18.04
-48.52
-73.58
-93.88
-110.79
-125.60
-138.15
-146.12
-145.69
-133.53
-108.82
-74.14
-34.64
4.62
40.76
73.25
102.59
128.24
147.51
156.22
150.68
129.77
96.19
55.84
15.50
-19.61
-47.61
-70.18
-91.04
-113.56
-138.90
-164.99
-187.45
-201.80
-205.45
-198.32
-181.89
-157.75
-126.99
-91.10
-53.44
-19.64
3.67
11.93
5.12
-11.89
-31.81
-48.56
-60.15
-68.84
-78.81
-92.83
-109.80
-124.52
-129.57
-118.68
-90.23
-49.06
-5.67
27.43
40.87
32.90
10.29
-14.47
-28.83
-25.20
-3.13
32.24
73.65
114.84
151.48
180.20
197.36
199.20
183.33
150.77
106.56
58.80
16.39
-13.01
-24.76
-18.02
4.12
35.17
66.62
90.11
100.11
95.88
81.88
66.02
56.47
58.21
70.91
89.20
105.06
111.33
104.51
85.86
60.26
34.00
12.19
-2.88
-11.70
-16.24
-18.23
-18.13
-15.32
-9.15
0.04
10.45
19.47
24.82
25.39
21.47
14.10
4.10
-8.35
-23.02
-38.31
-50.47
-54.54
-46.82
-27.77
-3.40
16.26
21.01
5.02
-30.35
-77.13
-124.24
-162.39
-187.45
-200.98
-207.92
-213.35
-220.05
-228.20
-236.83
-245.35
-254.28
-264.32
-274.63
-281.63
-279.40
-262.25
-227.87
-179.30
-124.43
-73.13
-33.31
-7.98
5.24
12.10
18.50
27.96
40.81
55.13
68.66
79.97
89.11
97.19
105.72
115.93
128.23
142.10
156.01
168.02
176.24
179.59
177.92
171.59
161.06
146.41
127.38
103.62
75.75
44.98
13.13
-18.03
-47.15
-73.35
-96.11
-114.84
-128.96
-136.59
-136.45
-128.01
-112.32
-92.37
-72.52
-57.72
-51.95
-57.13
-69.75
-84.19
-93.75
-93.69
-82.67
-62.96
-39.12
-16.00
1.71
14.23
21.77
25.02
23.78
17.94
8.22
-3.56
-14.83
-25.00
-29.99
-28.34
-19.32
-4.23
14.86
35.44
54.66
79.54
93.41
98.78
96.86
88.86
74.59
54.92
32.51
11.06
-6.01
-19.51
-27.48
-31.05
-23.65
-3.60
24.60
52.51
70.65
79.40
79.00
75.04
71.95
73.95
82.45
96.63
113.04
126.32
131.54
120.18
94.26
63.73
39.23
23.43
13.16
4.15
-4.51
-10.89
-13.46
-9.13
2.01
14.30
19.55
14.71
4.34
-3.21
-1.70
8.75
23.94
37.13
43.25
40.98
33.48
25.92
22.50
24.80
31.45
39.37
43.62
38.81
20.51
-11.68
-53.08
-95.37
-129.32
-148.24
-149.98
-139.08
-119.36
-95.49
-71.14
-49.10
-31.94
-22.05
-21.09
-28.76
-42.68
-57.42
-68.05
-71.65
-68.11
-59.67
-49.42
-40.29
-34.74
-34.68
-38.87
-44.92
-49.57
-49.56
-42.66
-28.42
-8.63
13.48
32.85
49.19
65.08
84.80
112.06
148.66
194.30
247.40
305.81
352.48
373.15
359.74
313.54
242.46
157.82
72.88
1.19
-47.41
-70.54
-71.59
-59.31
-43.60
-31.48
-25.06
-22.65
-21.45
-20.40
-20.73
-22.58
-25.34
-27.54
-27.76
-24.55
-18.91
-12.71
-8.55
-8.75
-13.08
-19.65
-25.54
-28.22
-26.43
-20.75
-13.12
-6.26
-2.54
-2.32
-4.51
-6.98
-7.78
-5.92
-1.89
2.78
5.89
5.37
1.30
-5.35
-12.61
-18.32
-20.82
-19.48
-14.69
-7.59
0.34
7.87
14.06
18.55
21.44
23.21
24.55
26.23
28.86
32.54
36.52
38.91
37.00
27.95
9.85
-17.19
-50.69
-86.41
-119.76
-147.42
-168.14
-182.38
-191.12
-194.80
-192.99
-185.24
-172.13
-155.96
-140.25
-128.33
-121.87
-120.17
-120.66
-120.23
-116.66
-109.35
-99.02
-86.86
-73.49
-58.77
-42.09
-23.44
-4.20
12.85
24.43
28.43
25.20
17.97
11.91
12.07
21.37
39.51
63.26
87.95
109.35
124.84
133.79
136.90
135.31
130.05
122.01
112.27
102.38
94.18
89.18
87.93
89.55
92.13
93.45
92.01
87.51
80.68
72.55
63.59
53.35
40.77
25.01
6.44
-13.31
-31.89
-47.45
-59.39
-68.39
-75.46
-80.98
-84.27
-84.09
-79.47
-70.22
-56.75
-39.56
-18.84
5.28
32.12
59.63
84.52
103.09
112.93
113.96
108.46
99.77
90.74
82.53
74.56
65.28
53.39
38.89
23.38
9.30
-1.11
-6.94
-8.64
-7.65
-5.85
-4.93
-5.48
-6.78
-7.23
-5.13
0.25
8.75
19.24
29.45
36.57
38.94
37.32
34.37
33.39
36.26
43.42
53.66
63.86
69.76
68.65
61.01
49.83
38.90
30.27
24.92
22.97
23.25
23.18
20.39
13.43
0.74
-19.33
-48.35
-84.08
-114.31
-121.37
-97.54
-53.64
-9.51
16.26
22.77
14.72
-0.25
-15.34
-25.83
-32.06
-37.00
-42.91
-49.98
-56.30
-60.34
-60.35
-55.51
-47.31
-39.92
-37.75
-43.16
-56.41
-76.25
-101.67
-130.99
-161.91
-192.39
-221.21
-247.27
-268.73
-283.33
-288.67
-283.43
-266.86
-239.01
-201.38
-157.00
-109.51
-62.00
-16.46
26.20
65.63
102.20
136.81
170.53
203.84
236.20
266.00
291.00
308.88
317.98
318.02
309.78
294.41
272.47
243.46
206.47
161.45
110.25
57.10
8.32
-29.40
-51.10
-55.96
-48.45
-36.63
-28.80
-30.28
-41.56
-58.66
-75.45
-86.25
-88.23
-82.22
-71.34
-59.12
-48.81
-43.23
-43.90
-50.34
-57.59
-56.36
-40.77
-13.62
16.38
40.20
52.99
57.95
59.79
62.32
66.68
70.93
72.22
69.64
65.18
61.20
60.88
65.69
75.09
86.42
95.37
97.39
89.37
70.26
40.95
4.50
-34.92
-72.33
-103.68
-127.54
-145.04
-158.27
-168.14
-172.91
-168.29
-150.24
-117.64
-74.41
-28.50
11.67
41.16
60.43
74.21
88.25
105.68
125.47
142.93
151.73
146.26
123.39
83.14
28.51
-34.75
-98.81
-154.86
-194.65
-211.94
-203.86
-171.81
-121.47
-62.15
-4.38
43.21
76.25
95.00
103.28
106.38
108.90
113.14
117.72
118.68
111.53
92.80
60.55
14.93
-41.35
-103.20
-164.35
-219.63
-264.78
-294.87
-304.15
-288.67
-248.74
-190.12
-122.83
-58.02
-5.82
28.02
43.67
45.09
35.79
17.03
-10.20
-42.25
-62.78
-55.41
-19.81
26.31
62.70
78.27
73.33
56.97
41.21
33.88
35.68
41.75
45.88
44.00
34.57
17.98
-4.34
-29.38
-53.32
-74.06
-90.99
-103.21
-108.10
-101.97
-81.82
-46.71
0.94
55.16
107.30
149.26
176.91
191.38
197.24
199.61
202.22
206.50
211.92
216.78
219.52
219.87
218.73
217.28
215.86
213.76
209.59
202.01
190.61
176.47
161.75
148.38
136.27
122.13
100.04
63.81
9.97
-59.73
-138.11
-214.67
-279.26
-325.24
-351.02
-359.34
-355.18
-343.62
-328.65
-313.23
-299.68
-289.98
-284.99
-283.42
-281.52
-273.56
-254.03
-220.11
-172.99
-118.04
-63.29
-16.35
18.26
40.20
52.21
57.83
59.73
59.52
59.12
61.70
72.13
95.18
132.21
178.71
224.98
260.04
276.43
273.10
253.79
225.07
193.57
163.72
136.99
113.20
92.48
75.95
64.89
58.01
52.61
46.40
38.20
27.09
12.23
-6.50
-27.91
-49.27
-69.44
-87.98
-104.53
-120.10
-137.66
-160.48
-188.78
-217.69
-226.27
-200.63
-147.53
-90.22
-50.16
-36.01
-45.01
-64.80
-82.72
-90.99
-91.31
-91.01
-93.47
-99.96
-109.46
-119.86
-128.05
-128.05
-114.21
-85.40
-43.66
8.24
66.45
125.26
177.37
216.26
241.48
255.60
260.84
259.58
255.88
254.49
258.79
269.55
264.87
233.44
181.95
126.85
79.43
42.37
13.76
-9.11
-28.26
-44.32
-53.83
-54.50
-47.91
-38.46
-30.29
-25.78
-25.47
-28.72
-34.13
-37.69
-36.70
-31.39
-24.13
-17.19
-11.77
-8.25
-6.69
-7.07
-7.97
-8.90
-10.95
-16.02
-25.21
-37.99
-52.36
-65.94
-76.02
-79.80
-76.01
-65.37
-50.06
-32.62
-15.52
-0.91
9.21
13.58
12.05
5.53
-4.11
-14.62
-23.97
-31.13
-35.18
-36.48
-35.45
-32.32
-27.39
-21.17
-14.82
-8.34
-1.77
5.09
12.04
18.34
22.58
23.38
20.52
15.42
10.86
9.35
12.16
18.49
26.02
31.76
33.22
29.71
22.91
16.47
14.76
21.42
37.70
62.06
90.84
117.90
137.42
146.20
144.42
134.58
119.63
101.23
79.61
54.52
26.60
-1.67
-26.58
-44.80
-54.94
-58.06
-57.35
-56.97
-60.67
-71.08
-89.10
-113.81
-142.58
-171.28
-194.87
-208.64
-209.71
-198.46
-179.11
-158.88
-145.97
-146.66
-162.83
-190.86
-222.55
-248.00
-259.20
-252.59
-229.58
-194.94
-153.99
-109.95
-63.25
-12.88
41.14
95.53
143.34
176.00
186.78
173.94
142.24
101.61
63.70
37.88
28.18
32.80
45.97
61.08
73.52
81.90
87.25
91.25
94.47
95.89
93.71
86.72
75.40
61.97
49.39
40.10
35.01
33.31
33.04
32.12
29.29
24.52
18.94
14.33
12.29
13.67
18.17
24.52
31.07
36.43
40.00
41.93
42.73
42.81
42.23
40.87
38.84
36.80
35.74
36.56
39.45
43.71
48.05
51.26
52.73
52.63
51.56
50.05
48.20
45.75
42.40
38.17
33.46
28.85
24.76
21.19
17.87
14.48
10.96
7.59
4.80
2.92
1.90
1.32
0.56
-1.02
-3.80
-7.77
-12.55
-17.48
-21.80
-24.88
-26.45
-26.67
-26.09
-25.44
-25.28
-25.78
-26.60
-26.96
-26.06
-23.41
-19.16
-14.07
-9.22
-5.59
-3.59
-3.01
-3.11
-2.89
-1.30
2.56
9.26
18.75
30.16
41.77
51.41
57.18
58.26
55.38
50.48
45.87
43.08
42.12
41.47
38.87
32.45
21.67
7.53
-7.85
-22.12
-33.52
-41.39
-46.10
-48.62
-50.09
-51.49
-53.50
-56.28
-59.34
-61.42
-60.71
-55.45
-44.72
-28.86
-9.44
11.51
32.22
51.65
69.12
83.71
93.90
97.69
93.63
81.70
63.79
43.27
23.79
8.10
-2.72
-9.25
-13.11
-16.05
-19.26
-23.06
-27.08
-30.82
-34.18
-37.68
-42.12
-48.02
-54.91
-61.36
-65.50
-65.98
-62.59
-56.38
-49.11
-42.53
-37.97
-36.19
-37.60
-42.28
-49.83
-59.10
-68.09
-74.28
-75.41
-70.22
-59.05
-43.79
-27.27
-12.34
-0.88
6.54
10.52
12.10
11.87
9.63
4.69
-3.36
-13.80
-24.64
-33.30
-37.83
-37.87
-34.91
-31.60
-30.50
-33.08
-39.29
-47.83
-57.05
-65.77
-73.55
-80.35
-85.77
-88.73
-87.86
-82.84
-75.41
-69.51
-69.63
-78.39
-94.65
-113.63
-129.24
-137.33
-137.68
-133.49
-128.57
-124.19
-117.59
-103.48
-77.43
-39.22
6.33
51.40
89.04
116.57
136.51
154.63
176.27
203.07
232.02
257.11
272.90
277.48
273.46
266.30
261.08
259.86
261.06
261.07
256.75
247.23
233.99
219.67
206.57
195.95
188.16
183.09
180.29
178.47
175.07
166.46
149.05
120.73
81.84
35.26
-14.54
-62.74
-105.21
-139.01
-162.81
-176.87
-183.20
-185.15
-186.59
-190.79
-199.33
-211.47
-224.47
-234.64
-238.64
-234.72
-223.32
-206.90
-189.12
-173.66
-163.18
-158.63
-159.24
-162.95
-167.21
-169.82
-169.55
-166.27
-160.82
-154.58
-148.85
-144.42
-141.30
-138.85
-136.02
-131.84
-125.77
-117.98
-109.12
-99.83
-89.93
-77.94
-61.12
-36.46
-2.26
40.52
87.94
134.19
173.88
203.88
224.09
236.50
243.20
244.92
240.90
230.22
213.17
191.70
168.30
144.35
119.27
91.47
60.43
28.75
2.11
-12.83
-11.67
5.15
32.24
61.44
85.34
99.93
105.34
104.36
100.19
94.55
87.33
77.50
64.60
49.60
34.97
23.89
19.23
22.80
34.97
54.59
78.93
103.90
124.70
136.91
137.62
126.07
103.18
70.37
28.53
-21.92
-79.75
-141.32
-199.77
-246.23
-272.61
-274.76
-254.16
-217.29
-173.09
-129.91
-93.32
-65.58
-46.24
-33.29
-23.78
-14.09
-0.10
22.11
55.11
98.69
149.31
200.82
246.08
279.15
297.08
300.60
293.82
283.05
275.27
276.30
289.01
312.26
340.90
367.12
382.96
382.90
365.68
334.37
294.70
252.68
212.48
175.66
141.68
109.17
77.05
44.97
13.23
-17.82
-48.09
-77.84
-107.45
-137.32
-167.71
-198.97
-231.71
-266.94
-305.66
-347.92
-392.03
-434.25
-469.63
-493.56
-503.38
-499.32
-484.22
-462.34
-438.02
-414.81
-395.35
-381.64
-375.14
-376.34
-383.94
-394.34
-402.02
-401.11
-387.36
-359.80
-321.07
-276.28
-230.79
-188.05
-148.64
-110.69
-71.39
-28.40
19.05
69.61
119.26
161.41
188.30
193.68
176.24
141.62
101.60
70.27
59.00
72.26
106.43
151.93
197.32
233.33
255.21
263.25
261.44
255.68
251.22
250.18
250.79
248.67
239.92
223.97
204.93
189.78
185.52
195.17
215.81
239.86
258.93
267.05
261.60
242.71
211.76
172.28
128.85
85.76
46.03
11.08
-19.74
-49.34
-81.35
-118.78
-160.00
-200.50
-236.14
-265.04
-286.08
-297.65
-297.69
-283.78
-255.29
-210.75
-149.92
-75.51
7.32
93.95
180.57
262.19
332.30
364.49
336.72
249.93
132.11
19.34
-62.09
-100.50
-102.97
-79.22
-40.16
6.76
56.57
100.86
123.46
113.96
75.39
21.74
-30.46
-70.88
-94.03
-100.37
-93.19
-77.77
-59.17
-41.55
-28.34
-21.48
-21.74
-26.67
-32.16
-34.87
-33.77
-29.13
-22.12
-14.71
-8.79
-5.81
-5.37
-5.89
-5.89
-4.99
-3.37
-1.68
-1.06
-2.63
-7.15
-14.28
-22.75
-30.93
-37.46
-41.23
-41.65
-38.84
-33.54
-26.81
-19.68
-12.88
-6.76
-1.40
3.38
7.81
11.97
15.71
18.73
20.62
21.05
19.89
17.18
13.22
8.46
3.40
-1.60
-6.32
-10.71
-14.76
-18.37
-21.39
-23.53
-24.54
-24.27
-22.74
-20.16
-16.83
-13.08
-9.10
-5.02
-0.97
2.88
6.23
8.79
10.34
10.97
10.97
10.77
10.70
10.86
11.09
11.14
10.82
10.15
9.28
8.39
7.54
6.64
5.50
3.99
2.13
0.05
-1.98
-3.75
-5.09
-5.92
-6.26
-6.13
-5.54
-4.52
-3.11
-1.39
0.50
2.40
4.09
5.39
6.14
6.21
5.54
4.14
2.09
-0.45
-3.24
-5.95
-8.21
-9.70
-10.21
-9.77
-8.58
-6.97
-5.29
-3.76
-2.40
-1.08
0.40
2.16
4.13
6.10
7.70
8.72
9.06
8.90
8.54
8.33
8.46
8.92
9.52
9.98
10.13
9.92
9.46
8.97
8.61
8.38
8.21
7.92
7.41
6.65
5.73
4.78
3.89
3.10
2.35
1.60
0.82
0.04
-0.69
-1.34
-1.93
-2.49
-3.08
-3.68
-4.19
-4.52
-4.61
-4.54
-4.50
-4.80
-5.61
-6.89
-8.31
-9.33
-9.48
-8.55
-6.74
-4.58
-2.71
-1.56
-1.19
-1.30
-1.36
-0.96
0.04
1.44
2.81
3.75
4.04
3.79
3.34
3.14
3.52
4.65
6.48
8.82
11.37
13.80
15.75
16.93
17.16
16.49
15.17
13.60
12.14
10.98
10.10
9.23
8.04
6.26
3.76
0.59
-3.09
-7.03
-11.03
-14.89
-18.50
-21.81
-24.80
-27.38
-29.45
-30.82
-31.32
-30.93
-29.78
-28.15
-26.33
-24.51
-22.70
-20.78
-18.66
-16.39
-14.27
-12.66
-11.87
-11.96
-12.70
-13.67
-14.46
-14.84
-14.84
-14.67
-14.57
-14.66
-14.87
-15.01
-14.92
-14.53
-13.93
-13.28
-12.74
-12.34
-12.02
-11.64
-11.05
-10.22
-9.25
-8.33
-7.70
-7.44
-7.44
-7.43
-7.11
-6.31
-5.14
-3.96
-3.18
-3.09
-3.68
-4.68
-5.68
-6.33
-6.47
-6.11
-5.35
-4.27
-2.86
-1.05
1.25
4.06
7.29
10.73
14.10
17.10
19.50
21.20
22.24
22.71
22.74
22.41
21.79
20.95
20.00
19.04
18.13
17.27
16.35
15.25
13.95
12.50
11.07
9.83
8.85
8.09
7.38
6.56
5.59
4.50
3.40
2.42
1.61
0.89
0.09
-0.98
-2.42
-4.18
-6.10
-7.94
-9.52
-10.79
-11.85
-12.91
-14.16
-15.69
-17.37
-18.95
-20.07
-20.43
-19.88
-18.51
-16.54
-14.24
-11.79
-9.22
-6.43
-3.32
0.10
3.64
7.00
9.85
11.97
13.30
13.97
14.15
14.05
13.82
13.52
13.12
12.50
11.50
10.01
8.07
5.89
3.85
2.36
1.63
1.40
1.10
0.05
-2.17
-5.52
-9.41
-13.03
-15.53
-16.47
-16.17
-15.41
-15.02
-15.55
-17.14
-19.62
-22.65
-25.42
-26.31
-23.22
-13.69
4.09
30.03
61.30
92.87
118.89
135.08
140.23
135.30
123.32
108.59
95.69
88.68
91.12
105.04
131.08
167.53
207.91
243.63
267.21
274.79
266.55
246.61
219.67
190.32
161.52
130.91
94.51
50.14
-1.17
-56.38
-110.93
-162.26
-207.95
-245.91
-278.78
-310.26
-342.05
-373.20
-401.93
-425.66
-444.94
-460.46
-449.47
-399.12
-316.26
-223.99
-143.27
-90.78
-55.48
-27.81
-2.88
20.15
39.22
50.03
51.49
46.88
41.49
41.36
48.11
61.46
80.16
99.67
115.49
125.59
130.73
132.75
134.36
135.66
135.94
134.11
126.89
110.94
85.16
52.12
17.58
-9.56
-20.71
-12.73
8.63
31.78
47.20
51.47
46.79
37.61
27.89
19.22
11.72
6.07
4.64
10.56
25.24
46.70
69.61
87.19
93.46
85.40
63.51
30.86
-4.96
-35.77
-56.05
-64.44
-63.51
-57.70
-51.48
-48.46
-49.97
-55.14
-62.65
-71.61
-81.00
-88.96
-92.23
-87.74
-75.92
-60.68
-47.71
-42.41
-47.37
-61.04
-78.52
-93.23
-93.66
-75.11
-43.27
-9.52
17.58
34.68
44.72
50.12
52.85
55.97
60.83
68.49
79.74
94.24
109.92
122.72
128.20
123.78
111.13
93.39
73.75
54.53
34.90
16.11
-2.03
-23.85
-53.60
-89.56
-123.86
-147.19
-151.88
-134.63
-97.97
-50.14
1.94
43.76
65.54
68.67
62.91
57.88
58.16
63.22
68.88
69.87
60.73
42.00
15.38
-16.12
-48.80
-79.05
-103.95
-122.47
-129.52
-127.11
-119.13
-109.47
-99.64
-88.55
-73.08
-49.87
-18.01
19.30
54.09
80.43
93.67
93.41
83.52
70.74
61.66
59.58
63.69
66.72
64.91
56.85
44.87
33.15
25.16
21.96
22.12
23.08
22.24
19.31
14.92
10.71
8.03
7.43
8.67
11.15
15.00
20.38
28.05
36.18
41.59
40.06
28.00
4.84
-25.84
-56.11
-77.02
-82.17
-70.89
-48.04
-22.27
-2.56
4.97
-1.47
-18.32
-39.06
-56.65
-65.81
-63.63
-50.00
-26.62
4.57
36.08
60.78
75.15
79.58
76.26
67.71
55.89
43.01
31.55
23.81
22.33
27.85
38.49
49.80
56.09
52.92
37.96
12.56
-18.64
-48.82
-72.47
-87.33
-94.73
-95.34
-92.44
-87.22
-78.44
-65.77
-47.51
-25.23
-2.65
16.89
32.51
45.58
59.42
74.36
88.49
97.98
98.29
86.98
64.77
36.00
2.95
-31.12
-62.75
-87.67
-101.39
-100.99
-86.16
-59.93
-28.47
0.19
20.66
29.05
26.26
17.69
10.28
9.51
17.26
31.69
48.79
65.64
81.28
97.17
115.38
136.45
158.54
177.86
190.23
192.39
183.34
163.46
134.16
97.22
54.89
10.20
-32.88
-70.03
-98.39
-118.16
-134.35
-155.07
-187.54
-233.79
-288.30
-338.89
-370.82
-372.58
-339.80
-277.51
-197.80
-115.54
-44.16
6.94
33.67
39.18
29.31
14.37
3.75
0.95
4.04
9.56
15.55
22.23
30.85
41.34
51.96
59.39
60.45
54.39
43.47
31.78
23.51
21.02
24.08
30.46
36.75
39.64
37.46
30.33
19.60
7.10
-4.66
-12.47
-12.55
-2.41
18.13
45.80
74.68
98.29
111.78
114.01
107.44
95.06
82.20
71.64
63.87
58.13
53.28
47.25
37.52
21.43
-2.24
-31.97
-64.04
-93.92
-118.98
-137.61
-150.23
-157.11
-156.93
-146.77
-124.17
-89.85
-48.72
-8.49
24.20
45.78
57.69
64.63
71.30
80.05
90.06
99.35
105.28
109.54
113.33
115.73
113.24
101.62
79.10
48.11
14.96
-13.18
-31.47
-40.11
-42.91
-44.14
-45.68
-46.02
-42.09
-31.97
-16.95
-0.95
10.43
13.34
7.75
-2.93
-13.27
-18.68
-17.36
-10.98
-3.31
1.56
1.59
-2.27
-6.82
-8.52
-5.51
1.49
9.55
15.39
17.11
15.22
12.34
11.09
11.89
11.97
7.17
-4.75
-21.84
-38.55
-48.74
-49.15
-41.29
-29.69
-18.53
-8.77
1.69
14.94
29.84
38.61
31.69
4.65
-36.90
-78.77
-104.84
-105.37
-81.55
-44.01
-6.69
20.40
34.32
38.26
38.00
37.97
39.42
40.98
40.83
38.37
35.01
32.95
33.02
33.55
31.48
24.12
10.62
-7.04
-25.43
-40.50
-49.54
-52.20
-50.24
-45.74
-40.47
-35.55
-31.59
-28.95
-27.57
-27.13
-27.30
-28.05
-28.75
-28.94
-28.39
-27.35
-26.30
-25.53
-25.40
-26.53
-29.57
-33.34
-35.21
-31.42
-18.25
6.25
41.60
84.25
128.49
159.65
164.89
138.80
87.36
24.57
-34.13
-76.54
-95.86
-90.71
-64.58
-23.55
23.52
68.48
105.09
128.10
134.74
125.04
101.57
68.32
30.41
-8.37
-45.15
-77.79
-105.12
-124.98
-133.92
-127.25
-100.39
-48.94
20.15
87.45
130.57
136.20
106.09
53.91
-1.86
-45.70
-70.07
-76.68
-73.22
-65.62
-56.93
-47.90
-38.54
-28.86
-18.91
-8.45
2.98
16.86
35.41
57.40
79.40
95.79
101.10
92.56
71.47
42.39
12.36
-11.26
-23.14
-21.02
-5.98
17.20
40.81
57.46
63.79
61.93
56.54
51.80
49.65
49.06
46.95
39.88
27.51
9.58
-11.68
-32.52
-49.64
-62.02
-71.54
-81.97
-96.93
-118.05
-144.47
-169.44
-185.11
-184.80
-165.61
-129.39
-81.65
-29.33
21.68
66.56
98.73
115.67
120.64
118.27
110.78
98.32
81.39
62.49
45.78
35.76
35.14
43.05
54.83
64.30
66.00
56.91
37.00
9.12
-21.22
-46.87
-61.73
-63.27
-53.00
-36.93
-23.76
-21.54
-34.05
-58.90
-88.42
-113.05
-125.05
-120.34
-99.85
-68.88
-34.97
-5.50
14.38
23.27
23.80
21.81
24.70
36.90
58.67
84.95
107.51
118.61
114.23
95.02
61.19
19.02
-22.44
-56.50
-80.66
-93.87
-93.83
-78.35
-48.77
-11.78
22.49
43.66
44.95
26.56
-5.00
-39.82
-68.59
-85.23
-86.93
-72.88
-45.79
-11.37
22.53
46.99
55.98
49.34
33.40
18.19
12.72
19.48
29.73
31.32
14.32
-22.15
-68.95
-111.50
-136.17
-135.31
-109.25
-67.80
-17.30
35.10
85.58
134.10
182.58
232.17
272.66
309.62
331.76
332.21
310.34
273.12
231.67
195.26
161.45
130.44
104.69
82.69
66.03
57.86
61.26
76.32
97.12
115.68
126.97
129.55
119.73
98.91
71.87
44.54
21.71
0.47
-20.33
-43.01
-69.08
-104.98
-152.07
-206.05
-258.92
-301.78
-334.53
-360.49
-383.51
-405.84
-435.53
-476.70
-528.31
-584.76
-637.00
-682.96
-720.33
-744.50
-707.09
-588.28
-409.41
-218.86
-73.65
33.11
114.68
180.36
235.31
279.19
303.03
301.36
277.60
241.52
213.92
208.63
227.56
259.31
288.89
300.97
298.51
288.91
284.32
285.39
286.87
285.50
268.36
230.23
173.06
107.42
46.97
3.66
-10.86
3.37
37.04
77.07
114.43
143.30
162.39
163.95
147.76
123.69
102.81
89.36
79.38
66.56
44.97
12.27
-31.01
-78.98
-123.96
-161.12
-189.53
-210.53
-224.01
-230.93
-226.41
-208.39
-178.00
-141.45
-109.02
-90.87
-92.38
-110.57
-134.94
-151.40
-148.91
-122.36
-74.82
-15.86
43.76
95.05
131.23
150.58
155.96
151.38
140.40
124.84
105.48
84.97
67.48
57.53
57.95
68.09
83.30
97.42
105.18
99.11
77.33
44.30
9.13
-19.15
-35.33
-39.21
-34.67
-28.11
-26.13
-31.81
-44.71
-61.43
-76.74
-85.28
-83.74
-72.37
-55.08
-38.05
-26.82
-26.65
-40.87
-69.38
-108.69
-153.21
-196.87
-234.04
-259.91
-270.29
-262.44
-236.37
-195.75
-147.02
-97.48
-52.77
-15.15
17.07
48.55
85.20
129.76
179.64
227.38
263.07
277.69
265.90
227.75
169.00
101.56
37.75
-12.80
-44.01
-53.44
-42.65
-17.26
14.41
43.85
68.33
86.58
97.75
102.47
103.57
105.79
114.31
133.55
165.99
215.39
278.06
341.80
391.61
416.19
412.20
383.44
338.18
259.59
153.50
43.12
-49.07
-115.36
-159.56
-186.38
-199.01
-200.74
-196.51
-187.99
-178.37
-173.70
-178.59
-193.01
-210.69
-223.40
-224.75
-212.84
-185.02
-140.12
-85.45
-29.09
17.07
47.45
65.61
83.81
100.40
118.82
132.78
133.47
116.43
80.35
34.47
-7.76
-35.38
-42.60
-26.07
12.00
65.55
127.21
189.52
246.09
290.32
313.90
311.22
283.85
237.90
181.42
122.18
66.03
15.96
-27.93
-70.88
-118.16
-172.55
-235.22
-306.52
-384.85
-464.49
-536.50
-590.01
-619.87
-623.83
-603.12
-562.37
-509.95
-455.66
-407.38
-372.06
-328.51
-270.54
-204.02
-137.91
-72.66
-3.21
67.89
144.28
221.77
292.62
346.27
379.56
389.63
382.78
368.87
356.92
353.00
356.16
361.54
360.18
346.78
321.37
289.16
255.60
223.98
196.60
173.87
156.60
143.79
134.28
125.99
116.71
103.82
85.75
63.39
38.14
10.96
-19.90
-57.40
-104.04
-159.08
-218.21
-274.11
-317.63
-341.05
-340.24
-316.44
-275.67
-226.88
-179.00
-138.91
-109.47
-89.39
-75.21
-63.89
-54.70
-49.40
-50.64
-59.12
-71.99
-82.34
-81.38
-62.47
-25.25
23.46
71.76
107.14
121.04
111.23
82.48
44.24
6.49
-23.89
-43.95
-53.86
-55.20
-49.73
-39.58
-26.65
-12.92
-0.31
9.07
14.57
17.88
22.38
34.56
55.65
80.13
100.37
112.74
117.17
115.82
111.37
106.25
102.32
100.02
100.03
100.68
99.23
91.16
72.88
43.43
4.76
-38.81
-82.46
-121.62
-153.14
-170.02
-169.07
-149.51
-112.93
-64.34
-11.50
36.66
73.30
96.07
107.72
113.42
118.81
126.42
133.17
132.57
118.54
89.50
49.18
4.85
-36.55
-69.93
-93.13
-107.70
-116.22
-120.64
-121.93
-120.85
-118.78
-117.02
-114.85
-102.68
-74.18
-32.75
8.59
37.14
48.36
45.59
36.29
27.82
23.44
20.42
13.78
1.08
-14.28
-24.44
-20.95
0.20
36.99
81.61
123.40
153.37
167.45
162.78
145.12
122.33
99.91
79.46
58.81
35.19
7.55
-23.25
-54.06
-80.25
-99.10
-110.66
-117.34
-123.54
-131.39
-139.66
-144.12
-139.20
-120.18
-85.97
-39.06
19.60
82.36
141.57
190.25
221.89
230.96
213.93
169.94
102.30
18.88
-70.63
-152.94
-215.13
-248.64
-251.69
-229.71
-193.68
-156.32
-119.19
-87.62
-62.75
-40.21
-14.76
14.05
40.91
58.96
64.70
60.29
50.44
41.81
39.06
42.96
51.24
60.07
66.56
67.96
62.03
46.06
20.21
-12.69
-47.87
-80.14
-106.45
-126.54
-143.19
-160.46
-181.88
-207.13
-232.18
-251.66
-257.10
-244.70
-215.53
-175.00
-130.32
-87.91
-50.81
-18.66
10.53
38.52
65.34
90.65
114.63
138.23
161.91
184.46
202.60
212.49
212.19
202.94
189.65
178.69
175.18
181.59
198.18
224.37
259.51
301.93
346.70
385.06
406.10
400.79
366.33
308.24
238.47
170.56
114.35
72.78
42.09
15.10
-15.04
-52.19
-96.83
-147.29
-201.03
-254.77
-304.00
-342.53
-363.71
-363.15
-342.03
-308.37
-274.79
-253.11
-248.84
-258.61
-272.50
-280.09
-276.09
-262.46
-245.63
-231.28
-220.29
-208.69
-190.89
-163.99
-130.13
-95.89
-69.37
-56.76
-60.23
-77.43
-102.80
-129.27
-150.31
-161.54
-161.68
-152.24
-136.04
-115.24
-90.10
-59.34
-21.90
20.76
63.75
100.00
122.92
129.51
121.82
106.22
90.65
81.23
79.76
83.36
86.28
82.90
70.46
50.23
26.82
6.05
-7.37
-11.27
-6.15
5.81
22.19
41.69
64.34
90.94
121.73
155.10
187.26
213.15
228.37
231.07
222.94
208.36
192.49
179.14
169.52
162.52
156.07
148.73
140.54
132.84
127.15
124.24
123.68
124.15
124.35
123.66
122.38
121.28
120.95
121.20
121.04
119.20
114.63
107.09
97.20
86.20
75.49
66.16
58.91
54.08
51.95
52.81
56.92
64.08
73.39
83.18
91.35
96.08
96.33
92.06
83.97
72.91
59.37
43.43
25.18
5.26
-14.99
-33.92
-50.48
-65.05
-79.43
-96.08
-116.73
-141.32
-167.75
-192.82
-213.75
-229.60
-241.63
-252.33
-263.71
-275.72
-285.79
-289.68
-283.15
-263.54
-230.53
-185.96
-133.10
-75.94
-18.81
33.85
77.91
110.21
129.25
135.67
132.07
122.13
109.63
97.52
87.67
80.82
76.82
74.94
74.04
72.84
70.27
65.84
59.79
52.96
46.35
40.87
37.02
34.87
34.13
34.11
33.83
32.08
27.72
20.22
10.17
-0.67
-9.89
-15.34
-16.05
-12.64
-6.97
-1.28
2.78
4.62
4.55
3.23
1.19
-1.47
-4.95
-9.37
-14.53
-19.87
-24.59
-28.00
-29.81
-30.22
-29.88
-29.43
-29.13
-28.52
-26.66
-22.56
-15.87
-7.23
1.91
9.94
15.90
19.89
22.97
26.51
31.38
37.47
43.80
48.95
51.90
52.43
51.23
49.41
47.95
47.14
46.50
45.10
42.25
37.88
32.62
27.41
22.85
18.87
14.84
10.09
4.45
-1.53
-6.84
-10.63
-12.72
-13.70
-14.63
-16.45
-19.39
-22.92
-26.03
-27.62
-27.11
-24.65
-21.04
-17.38
-14.58
-13.06
-12.69
-12.96
-13.36
-13.65
-13.91
-14.40
-15.20
-16.06
-16.38
-15.43
-12.75
-8.41
-3.06
2.31
6.85
10.13
12.28
13.81
15.16
16.38
17.06
16.51
14.26
10.41
5.62
0.96
-2.71
-5.01
-6.22
-6.99
-7.91
-9.26
-10.91
-12.58
-14.10
-15.55
-17.17
-19.06
-20.99
-22.37
-22.52
-20.98
-17.85
-13.73
-9.56
-6.14
-3.81
-2.39
-1.32
0.03
1.95
4.28
6.49
7.99
8.55
8.42
8.23
8.63
9.99
12.21
14.75
16.91
18.19
18.49
18.11
17.54
17.07
16.65
15.98
14.63
12.33
9.12
5.46
2.05
-0.52
-1.98
-2.52
-2.40
-1.97
-1.53
-1.31
-1.34
-1.61
-2.14
-3.06
-4.41
-5.43
-5.33
-3.75
-0.97
2.25
5.04
6.71
7.03
6.42
7.10
10.97
18.53
28.50
38.75
47.45
53.79
58.05
61.43
67.22
77.48
91.54
106.25
117.98
124.55
125.97
123.88
120.98
122.33
131.21
147.46
167.55
186.58
200.30
205.78
201.41
171.94
112.28
31.16
-52.34
-121.38
-169.61
-199.47
-216.79
-226.83
-231.89
-230.13
-220.13
-203.32
-184.11
-167.41
-156.37
-152.03
-155.07
-163.67
-173.62
-180.61
-180.96
-172.22
-153.19
-124.40
-87.05
-48.82
-17.47
3.38
14.34
18.59
19.48
19.01
17.67
15.33
12.13
10.09
12.71
21.53
35.18
49.22
58.11
57.68
46.99
28.23
6.45
-12.89
-25.44
-28.99
-23.79
-11.92
3.42
18.53
29.67
34.44
29.96
16.55
-2.48
-22.79
-40.67
-53.58
-59.74
-59.21
-51.37
-36.97
-18.82
-1.24
11.40
16.94
16.71
14.35
14.99
22.28
36.02
53.22
70.19
83.72
91.49
91.80
83.52
66.21
41.86
16.01
-5.44
-16.53
-14.34
-0.50
19.72
39.87
53.88
59.06
56.66
50.84
46.43
46.23
49.81
54.06
54.07
43.54
18.32
-21.55
-71.76
-125.53
-176.51
-220.71
-256.70
-275.63
-272.24
-247.36
-208.06
-163.46
-120.59
-83.36
-53.25
-30.03
-12.62
-0.86
5.52
7.07
4.53
-1.32
-9.39
-18.47
-25.22
-25.80
-18.31
-3.06
17.34
38.75
56.73
68.10
71.84
69.31
63.14
55.43
47.57
40.53
35.29
31.97
31.16
33.06
37.38
43.19
48.90
52.81
53.82
51.71
47.17
41.62
36.52
32.87
30.85
29.73
28.35
25.77
21.75
16.77
11.90
8.16
6.15
5.83
6.54
7.22
6.78
4.49
0.31
-4.96
-9.90
-13.05
-13.47
-11.24
-7.43
-3.55
-0.85
0.23
0.16
-0.17
-0.08
0.49
1.03
0.83
-0.60
-3.27
-6.79
-10.58
-14.02
-16.44
-17.06
-15.19
-10.34
-2.58
7.43
18.55
29.41
38.68
45.28
48.60
48.64
46.00
41.51
35.68
28.21
18.30
5.67
-8.37
-20.54
-26.61
-23.42
-10.83
7.84
27.19
42.44
51.67
56.42
60.14
65.86
74.30
83.66
90.98
94.08
92.84
89.17
85.73
84.28
84.59
84.45
80.84
71.55
56.43
37.51
18.07
1.15
-11.64
-20.36
-26.10
-30.02
-32.70
-34.21
-34.73
-35.02
-36.34
-39.96
-46.50
-55.61
-66.21
-76.97
-86.77
-94.97
-101.30
-105.89
-109.25
-112.33
-116.38
-122.66
-132.06
-144.72
-160.16
-177.48
-195.60
-213.49
-230.25
-245.19
-257.99
-268.93
-278.92
-289.37
-301.48
-315.48
-329.96
-341.92
-347.50
-343.09
-326.57
-297.80
-258.43
-211.02
-158.03
-101.07
-40.74
22.72
88.25
153.12
212.81
262.27
297.74
318.43
326.97
328.38
327.66
327.60
327.74
325.19
316.81
301.34
280.29
257.17
235.50
217.10
201.43
186.53
170.61
153.44
136.51
122.21
112.26
106.68
103.73
100.89
96.20
89.14
80.69
72.52
66.05
61.75
59.19
57.46
55.71
53.35
50.04
45.52
39.64
32.52
24.70
17.13
10.94
6.94
5.38
5.94
7.87
10.39
12.89
14.86
15.80
15.06
12.09
6.75
-0.34
-7.92
-14.48
-18.96
-21.20
-21.79
-21.68
-21.47
-21.21
-20.66
-19.80
-19.08
-19.34
-21.21
-24.60
-28.65
-32.17
-34.34
-35.12
-35.16
-35.19
-35.55
-35.97
-35.82
-34.70
-32.71
-30.43
-28.47
-27.07
-25.94
-24.49
-22.18
-18.97
-15.31
-11.95
-9.55
-8.38
-8.31
-8.84
-9.45
-9.79
-9.77
-9.62
-9.68
-10.24
-11.47
-13.20
-15.05
-16.59
-17.51
-17.77
-17.59
-17.29
-17.12
-17.10
-17.15
-17.22
-17.44
-18.08
-19.37
-21.26
-23.36
-25.04
-25.76
-25.43
-24.47
-23.63
-23.65
-24.76
-26.70
-28.80
-30.34
-30.93
-30.60
-29.74
-28.81
-28.07
-27.49
-26.86
-25.96
-24.63
-22.95
-21.12
-19.44
-18.26
-17.72
-17.66
-17.77
-17.69
-17.29
-16.83
-16.84
-18.02
-20.97
-25.66
-31.47
-37.57
-43.34
-48.57
-53.42
-57.92
-61.83
-64.78
-66.23
-66.58
-67.76
-72.65
-83.43
-100.00
-118.74
-134.16
-141.31
-136.79
-119.98
-93.02
-59.72
-24.26
8.95
36.99
57.70
70.23
77.31
83.96
94.61
110.68
130.17
147.95
160.27
164.74
160.68
150.99
140.22
132.46
130.62
136.96
152.02
177.06
211.25
239.22
246.44
227.32
188.31
140.79
101.26
66.76
33.32
-0.76
-34.71
-66.55
-91.63
-107.09
-113.40
-113.43
-111.69
-109.77
-107.91
-105.80
-101.41
-92.50
-78.67
-61.80
-45.03
-32.12
-24.03
-20.36
-20.14
-21.33
-21.90
-21.18
-19.94
-19.56
-21.54
-25.47
-30.13
-34.14
-35.97
-34.53
-29.91
-23.32
-16.48
-11.24
-8.25
-7.33
-7.70
-8.17
-7.56
-5.41
-1.96
2.07
5.83
9.04
11.84
14.43
16.69
18.13
18.04
16.07
12.63
8.92
6.41
6.03
7.65
10.12
11.96
12.20
10.88
8.99
7.79
8.00
9.35
10.80
11.20
9.95
7.43
4.71
2.97
2.78
3.85
5.21
5.85
5.28
3.74
2.01
0.89
0.64
0.88
0.85
-0.08
-1.99
-4.41
-6.56
-7.81
-8.08
-7.85
-7.92
-8.87
-10.72
-12.77
-13.93
-13.17
-10.09
-5.18
0.25
4.64
6.92
6.99
5.77
4.62
4.60
6.02
8.34
10.57
11.80
11.75
10.89
10.05
9.84
10.39
11.48
12.72
13.79
14.39
14.32
13.50
11.79
9.10
5.54
1.85
-0.81
-1.29
0.75
4.51
8.01
8.43
2.80
-10.91
-31.60
-54.80
-73.66
-83.03
-82.37
-74.91
-64.80
-54.90
-46.13
-37.89
-29.37
-20.57
-12.79
-7.82
-6.71
-9.13
-13.43
-17.58
-19.74
-19.19
-16.28
-12.52
-9.91
-10.36
-15.87
-26.95
-42.83
-60.74
-75.99
-82.72
-76.57
-56.60
-25.81
9.83
43.61
70.02
86.06
91.11
86.90
76.24
62.70
50.44
43.55
45.12
55.98
74.48
93.32
105.98
108.77
102.14
89.60
75.52
63.38
55.00
50.50
48.76
47.99
45.71
39.44
27.44
9.80
-10.88
-30.01
-42.95
-46.43
-39.44
-24.33
-6.32
8.19
13.89
8.12
-8.33
-31.59
-56.16
-76.87
-90.34
-95.56
-93.47
-86.17
-76.10
-65.27
-54.99
-43.34
-29.58
-13.35
5.76
28.08
53.56
81.05
108.07
131.15
147.05
154.01
152.51
145.98
139.11
134.93
132.59
127.31
112.72
84.84
45.07
-0.60
-42.26
-70.27
-79.54
-71.45
-51.99
-27.97
-3.79
18.97
37.51
49.00
50.59
40.00
16.28
-18.97
-61.52
-106.01
-148.29
-189.80
-232.15
-274.26
-311.88
-340.01
-355.69
-359.77
-356.59
-331.69
-281.82
-214.91
-144.35
-79.42
-23.27
23.09
58.21
81.34
93.80
95.85
90.25
82.18
77.15
78.48
86.44
97.98
108.69
114.65
111.35
97.95
77.87
56.01
35.46
18.01
4.89
-1.34
2.65
17.49
41.19
70.28
99.06
121.30
135.09
138.93
131.60
111.56
77.02
29.06
-24.69
-71.96
-100.26
-102.49
-80.76
-45.81
-12.24
8.91
9.86
-3.79
-17.66
-19.20
-5.70
15.32
32.05
36.07
27.12
11.91
0.25
-1.42
7.23
22.44
39.76
56.62
72.71
88.87
104.54
117.72
124.20
119.50
97.78
62.86
23.78
-9.97
-32.37
-43.94
-49.14
-53.88
-62.78
-73.32
-80.60
-77.72
-60.77
-31.38
1.84
27.77
36.96
25.52
-2.74
-38.45
-71.70
-96.63
-107.66
-105.90
-96.84
-86.66
-78.95
-73.15
-66.30
-55.60
-41.20
-22.54
-0.62
24.34
51.70
80.19
109.27
138.61
166.75
190.02
204.07
199.05
171.04
120.84
53.28
-21.91
-92.91
-149.81
-187.68
-206.90
-211.48
-206.87
-191.99
-171.50
-151.75
-136.80
-127.40
-123.50
-124.95
-131.42
-135.84
-131.05
-113.04
-80.44
-35.42
16.83
68.81
112.69
147.02
175.07
200.54
224.85
248.30
270.31
289.44
303.92
296.46
261.54
207.93
151.18
102.28
64.80
37.57
17.65
2.11
-10.97
-19.56
-21.62
-17.49
-10.08
-2.70
1.92
1.71
-4.94
-18.88
-37.98
-59.96
-83.19
-106.14
-125.58
-136.53
-134.39
-117.81
-90.26
-58.06
-29.45
-9.80
-1.14
-1.31
-5.25
-8.22
-7.98
-4.70
1.22
9.77
21.63
37.19
55.70
75.46
94.26
110.29
122.76
131.89
137.67
139.04
133.67
118.82
93.56
59.84
22.18
-14.03
-44.61
-68.04
-85.79
-97.43
-104.38
-107.82
-108.11
-105.29
-99.95
-93.89
-89.72
-89.87
-95.42
-105.92
-118.93
-130.99
-138.98
-141.18
-137.55
-129.04
-116.70
-100.85
-81.34
-57.72
-30.30
-1.27
25.50
45.62
56.41
57.75
51.83
41.55
29.33
16.81
4.84
-5.60
-13.14
-15.61
-11.82
-3.05
6.96
13.33
12.53
3.10
-14.86
-41.33
-75.88
-117.83
-164.95
-211.74
-249.74
-269.39
-264.44
-235.19
-189.13
-136.29
-85.64
-42.42
-8.23
13.96
23.62
23.33
21.05
18.08
15.30
15.79
20.69
32.59
52.96
81.84
116.86
153.44
185.32
207.87
218.93
219.08
211.86
201.97
193.78
189.13
186.57
182.16
172.97
158.46
140.42
122.11
106.11
93.39
82.88
72.27
59.25
43.38
26.13
10.29
-0.33
-1.99
8.16
30.49
62.15
96.76
126.39
143.73
144.31
127.48
95.90
54.26
7.76
-39.18
-83.66
-124.07
-159.56
-188.87
-209.43
-217.40
-209.08
-183.36
-143.73
-98.53
-58.31
-31.58
-20.95
-22.41
-27.95
-30.12
-25.83
-17.13
-8.87
-4.94
-5.72
-7.92
-6.72
1.29
16.28
35.20
53.43
66.91
73.63
73.99
70.45
65.54
60.45
54.61
46.53
35.26
21.41
7.44
-3.12
-6.60
-1.59
10.41
25.84
41.10
54.22
64.98
73.88
80.96
86.12
88.68
88.18
84.95
80.07
74.38
67.19
56.04
33.66
-2.07
-46.10
-87.72
-116.64
-127.55
-120.93
-101.52
-76.29
-52.66
-35.88
-28.78
-31.14
-39.95
-50.52
-58.54
-62.10
-62.21
-61.48
-61.29
-61.34
-59.61
-54.21
-44.79
-33.34
-23.52
-18.87
-20.97
-28.31
-37.99
-47.07
-53.49
-56.61
-56.64
-53.72
-47.33
-36.42
-19.91
1.77
26.94
52.53
75.62
94.20
107.62
116.59
120.71
121.74
117.74
106.34
86.44
60.30
32.86
9.15
-8.42
-21.80
-35.85
-54.96
-76.47
-93.12
-93.84
-71.08
-28.02
21.21
57.25
65.19
42.92
0.28
-47.46
-85.67
-106.42
-110.71
-105.25
-98.64
-96.97
-100.85
-106.32
-108.43
-104.45
-93.35
-79.23
-67.81
-61.68
-64.03
-75.31
-91.29
-104.77
-109.43
-103.50
-92.90
-82.64
-76.36
-75.56
-78.56
-82.05
-83.21
-81.18
-76.50
-70.36
-62.68
-52.83
-40.25
-24.79
-7.77
7.86
18.78
23.23
21.95
18.40
16.75
20.29
30.77
48.17
71.02
97.35
125.27
153.04
179.07
201.56
218.92
230.67
237.58
241.02
242.29
241.84
239.03
232.84
222.74
209.56
195.53
183.49
175.35
172.00
173.09
177.21
182.24
185.79
185.49
179.19
165.19
141.94
109.64
70.50
27.75
-15.12
-54.87
-89.04
-116.15
-135.48
-147.48
-151.14
-144.41
-126.94
-102.00
-76.54
-59.49
-58.94
-79.26
-120.26
-174.51
-229.08
-271.27
-292.59
-290.39
-267.25
-229.23
-176.13
-116.89
-64.31
-25.38
0.55
17.27
27.08
30.38
27.75
21.34
13.71
9.03
13.30
28.35
52.48
81.34
109.40
130.86
140.58
134.53
107.72
66.32
21.62
-15.51
-39.13
-49.38
-50.75
-48.82
-47.79
-48.29
-47.53
-43.69
-37.37
-31.21
-27.99
-28.90
-32.82
-37.14
-38.59
-34.50
-25.55
-15.29
-8.03
-6.24
-9.22
-13.76
-16.40
-15.61
-12.13
-8.84
-8.35
-10.93
-14.19
-14.74
-10.56
-2.13
7.80
16.22
21.31
23.13
23.29
23.56
24.65
25.97
26.31
24.96
22.76
21.72
23.91
30.10
38.87
46.90
50.34
46.47
34.62
16.49
-5.09
-27.63
-49.42
-68.89
-83.65
-90.15
-84.74
-65.90
-35.69
-0.11
32.82
56.41
67.99
69.48
65.71
61.69
58.19
52.81
43.60
30.15
14.51
-0.01
-11.24
-19.34
-26.12
-33.10
-39.72
-43.55
-42.10
-34.56
-22.51
-9.46
0.86
5.99
5.48
0.76
-5.86
-12.57
-18.38
-23.24
-27.32
-30.52
-32.46
-32.54
-30.11
-24.89
-17.22
-7.57
4.35
17.97
31.81
43.19
49.09
47.88
40.16
29.35
18.07
8.01
-1.74
-14.45
-33.67
-60.33
-90.71
-116.37
-128.90
-123.68
-101.89
-70.16
-37.04
-9.07
11.52
27.13
40.36
51.88
60.85
66.15
67.46
66.37
66.34
71.61
85.25
105.75
127.20
141.39
140.89
121.84
85.64
38.62
-12.69
-55.42
-80.70
-87.62
-81.94
-72.17
-65.70
-66.29
-73.02
-80.73
-83.36
-75.73
-55.80
-25.00
12.01
48.85
79.79
99.12
105.59
102.02
91.26
74.95
54.52
32.70
14.29
2.44
-0.86
3.53
11.80
18.36
19.15
13.41
3.40
-7.86
-19.27
-31.46
-46.14
-62.44
-77.83
-87.14
-83.71
-61.83
-19.57
39.04
105.68
169.78
221.30
253.01
262.06
249.80
220.59
179.96
131.92
79.70
25.36
-30.14
-86.49
-143.28
-199.37
-252.17
-296.98
-328.41
-340.04
-327.63
-291.97
-240.29
-184.79
-138.79
-111.75
-98.02
-90.95
-82.34
-67.55
-47.44
-25.66
-4.40
17.24
41.47
68.53
93.87
111.28
115.63
106.19
86.82
63.56
41.63
23.88
11.72
6.13
9.93
25.16
52.01
85.67
116.67
134.23
130.93
106.29
67.06
25.01
-8.33
-26.07
-27.75
-17.80
-2.37
13.47
27.20
38.11
46.10
50.86
52.09
50.29
47.91
48.77
55.73
68.81
84.41
95.96
96.33
80.34
46.69
-1.70
-58.79
-116.98
-168.21
-204.70
-220.58
-212.99
-183.52
-138.68
-89.09
-46.88
-22.08
-19.14
-32.50
-51.83
-64.54
-63.66
-51.03
-33.62
-18.12
-8.00
-3.41
-2.87
-5.63
-11.32
-19.66
-27.52
-30.40
-23.98
-6.22
21.38
54.06
85.35
106.40
112.19
104.46
88.94
71.56
56.16
44.08
35.16
28.68
24.12
21.45
20.61
20.87
21.16
20.53
18.60
15.69
12.47
9.70
8.19
8.30
9.58
11.13
12.04
11.77
10.35
8.27
6.24
5.11
5.41
6.98
9.19
11.25
12.55
12.87
12.33
11.33
10.51
10.29
10.92
12.51
15.03
18.16
21.13
22.64
21.19
15.74
6.14
-6.63
-20.59
-33.41
-43.10
-48.56
-49.79
-47.76
-43.32
-37.41
-30.82
-24.17
-18.01
-12.79
-8.81
-6.10
-4.37
-3.18
-2.11
-1.02
-0.07
0.45
0.31
-0.39
-1.20
-1.60
-1.28
-0.39
0.59
1.10
0.87
-0.02
-1.13
-1.97
-2.23
-1.84
-0.98
0.09
1.18
2.20
3.13
3.99
4.73
5.23
5.39
5.13
4.48
3.58
2.69
1.98
1.47
0.99
0.27
-0.88
-2.47
-4.23
-5.76
-6.66
-6.75
-6.19
-5.34
-4.58
-4.18
-4.24
-4.62
-5.34
-6.20
-6.97
-7.42
-7.42
-6.96
-6.25
-5.60
-5.36
-5.70
-6.55
-7.67
-8.79
-9.73
-10.49
-11.25
-12.18
-13.34
-14.61
-15.67
-16.21
-16.03
-15.14
-13.70
-11.95
-10.08
-8.15
-6.17
-4.15
-2.17
-0.41
0.99
1.99
2.73
3.47
4.43
5.65
6.92
7.91
8.34
8.14
7.49
6.72
6.14
5.90
5.93
6.05
6.09
5.98
5.80
5.71
5.85
6.27
6.91
7.59
8.15
8.45
8.47
8.20
7.64
6.79
5.64
4.24
2.75
1.35
0.26
-0.40
-0.66
-0.71
-0.85
-1.40
-2.52
-4.19
-6.09
-7.75
-8.70
-8.68
-7.73
-6.24
-4.72
-3.61
-3.09
-2.98
-2.86
-2.21
-0.65
1.91
5.22
8.69
11.67
13.60
14.31
14.09
13.49
13.14
13.34
14.00
14.67
14.86
14.30
13.04
11.40
9.71
8.13
6.57
4.88
3.01
1.06
-0.73
-2.14
-3.16
-4.01
-5.00
-6.34
-8.00
-9.75
-11.32
-12.52
-13.39
-14.08
-14.83
-15.75
-16.86
-17.99
-18.92
-19.39
-19.17
-18.09
-16.09
-13.27
-9.86
-6.14
-2.40
1.22
4.68
7.97
11.13
14.07
16.69
18.89
20.65
22.00
22.95
23.52
23.71
23.57
23.29
23.19
23.57
24.51
25.79
26.92
27.43
27.15
26.38
25.80
26.07
27.51
29.82
32.31
34.17
34.85
34.35
33.18
32.09
31.77
32.64
34.67
37.53
40.67
43.30
44.55
43.75
40.89
36.96
34.18
35.41
42.95
56.73
73.19
85.84
87.61
73.84
44.56
4.90
-36.83
-71.86
-94.11
-101.46
-95.10
-78.01
-54.08
-28.08
-5.67
7.44
7.79
-4.57
-25.60
-48.28
-65.12
-71.43
-67.05
-55.63
-41.78
-27.59
-12.60
4.47
23.61
42.41
56.53
61.50
54.98
34.95
5.19
-25.72
-49.32
-62.68
-68.41
-70.69
-71.99
-72.36
-70.64
-65.50
-57.44
-48.92
-43.39
-43.45
-49.53
-59.61
-69.93
-76.96
-76.95
-68.88
-55.05
-39.82
-27.34
-19.75
-16.89
-17.24
-19.25
-22.14
-26.59
-34.01
-45.20
-59.45
-74.69
-88.48
-98.98
-104.83
-105.49
-101.56
-94.90
-88.33
-84.83
-86.11
-91.35
-96.69
-96.21
-84.27
-58.03
-19.05
26.98
72.17
109.13
133.22
143.15
140.32
127.30
106.80
81.57
54.76
30.38
12.84
5.74
10.34
24.65
43.90
62.31
75.44
81.76
82.91
82.54
84.45
90.79
101.16
112.93
122.30
125.71
120.86
107.33
86.60
62.15
38.78
21.58
15.03
21.97
42.39
72.55
105.55
133.30
149.78
153.04
144.95
130.12
113.94
100.94
93.33
91.15
92.72
96.10
99.29
99.30
93.19
79.22
57.72
29.74
-3.78
-42.39
-84.49
-126.33
-163.12
-189.16
-199.35
-190.52
-163.60
-121.96
-74.97
-33.22
3.08
36.03
64.25
78.21
70.26
37.34
-16.28
-79.15
-135.08
-168.54
-171.28
-144.69
-97.68
-41.48
13.80
61.69
99.35
126.64
144.03
150.10
141.51
115.77
74.49
23.21
-30.38
-79.60
-120.49
-152.45
-171.98
-176.46
-167.25
-149.65
-129.45
-109.47
-90.09
-71.02
-52.21
-34.47
-19.96
-10.67
-6.98
-7.69
-10.23
-12.16
-12.03
-9.36
-4.67
0.20
3.16
2.84
-1.65
-10.82
-24.34
-41.29
-58.95
-72.63
-77.25
-69.34
-47.15
-16.40
14.50
37.71
48.91
49.00
42.89
36.32
32.97
33.15
34.44
34.11
30.88
25.23
19.16
15.02
14.30
17.28
23.18
31.37
41.10
51.39
60.04
63.42
57.33
39.24
10.39
-23.53
-53.80
-72.28
-75.06
-64.09
-46.12
-28.62
-15.99
-8.23
-2.49
4.74
15.09
27.70
40.67
51.69
59.10
61.88
60.48
53.26
40.17
23.56
8.49
0.92
4.60
20.05
44.41
72.27
96.21
109.13
105.55
83.90
47.77
4.41
-36.15
-64.11
-73.75
-66.59
-47.13
-24.41
-7.69
-2.31
-9.85
-27.56
-48.99
-64.95
-70.33
-68.90
-69.61
-81.59
-100.11
-115.69
-118.59
-102.48
-62.13
-1.81
65.86
124.73
161.76
171.39
154.55
118.24
72.66
25.29
-12.09
-32.32
-37.88
-35.72
-30.04
-22.36
-12.53
-0.66
11.51
21.49
26.27
24.60
17.30
8.01
-1.73
-12.29
-24.53
-38.43
-51.65
-60.84
-62.24
-53.15
-34.36
-12.44
2.82
4.98
-10.56
-41.38
-78.79
-110.45
-124.90
-116.13
-86.62
-45.06
-2.15
32.19
51.21
50.99
29.98
-6.72
-45.17
-71.00
-77.10
-64.54
-40.06
-11.67
14.08
34.41
50.23
63.53
74.25
80.05
78.45
68.64
53.23
37.21
26.37
24.82
32.90
46.81
60.70
69.43
69.48
59.50
39.05
9.05
-27.31
-64.01
-93.04
-106.81
-101.81
-82.99
-59.28
-42.26
-39.57
-50.49
-66.08
-74.34
-67.06
-44.35
-14.48
11.17
23.89
22.06
10.96
-1.51
-10.02
-14.48
-18.99
-28.21
-43.62
-62.49
-79.23
-88.56
-88.72
-82.40
-75.37
-73.66
-80.71
-96.03
-116.20
-136.67
-153.56
-164.69
-169.29
-167.11
-158.18
-142.94
-122.42
-98.31
-72.28
-45.20
-16.85
13.71
47.07
82.58
118.04
150.45
176.99
195.98
207.23
211.56
210.10
203.70
192.88
178.22
160.77
142.30
125.08
111.26
102.12
97.58
96.26
96.06
95.01
91.96
86.78
80.13
72.85
65.45
57.98
50.20
41.93
33.30
24.82
17.16
10.81
5.99
2.53
0.13
-1.51
-2.59
-3.16
-3.28
-3.03
-2.59
-2.15
-1.80
-1.51
-1.11
-0.44
0.51
1.51
2.17
2.13
1.22
-0.40
-2.33
-4.08
-5.30
-5.89
-6.04
-6.09
-6.42
-7.25
-8.65
-10.45
-12.37
-14.17
-15.77
-17.23
-18.69
-20.22
-21.70
-22.86
-23.46
-23.43
-22.96
-22.43
-22.20
-22.40
-22.92
-23.47
-23.79
-23.81
-23.72
-23.79
-24.22
-24.99
-25.83
-26.33
-26.09
-24.93
-22.95
-20.47
-17.83
-15.27
-12.80
-10.21
-7.33
-4.10
-0.77
2.27
4.63
6.12
6.88
7.24
7.58
8.08
8.64
8.96
8.84
8.28
7.63
7.32
7.66
8.63
9.84
10.76
11.02
10.59
9.76
9.02
8.71
8.89
9.28
9.43
8.99
7.85
6.27
4.73
3.70
3.35
3.53
3.84
3.91
3.57
2.88
2.15
1.78
2.05
3.07
4.90
7.60
11.30
16.19
22.31
29.60
37.80
46.52
55.30
64.06
73.13
83.19
94.85
107.89
121.37
133.68
143.18
148.96
151.75
153.83
158.16
166.93
179.82
194.04
204.55
205.36
191.24
159.90
112.83
54.82
-7.48
-68.13
-122.16
-166.58
-200.68
-225.83
-244.31
-259.15
-273.56
-290.10
-310.24
-331.71
-349.09
-355.87
-347.46
-322.87
-285.65
-242.79
-197.51
-157.39
-127.54
-107.84
-92.09
-75.58
-55.87
-32.25
-4.40
28.51
66.84
110.85
158.59
204.57
240.05
256.50
248.94
218.41
172.18
120.93
76.52
47.96
38.85
47.09
67.43
93.96
122.45
150.80
177.72
202.19
222.50
236.04
239.73
231.69
211.73
181.99
145.66
104.66
58.87
6.53
-53.69
-120.71
-188.55
-247.25
-284.28
-289.92
-262.89
-212.07
-153.53
-104.06
-75.75
-71.85
-88.32
-114.85
-139.11
-151.84
-151.24
-142.06
-129.40
-118.99
-108.10
-93.09
-70.20
-37.93
1.85
45.30
86.69
120.86
142.95
149.72
133.82
94.93
42.05
-11.00
-51.69
-77.20
-85.86
-76.39
-46.41
1.00
59.18
119.04
166.38
189.16
185.00
162.72
134.85
110.42
92.09
78.99
