1.593521778000000000e+09
-2.999999999999999889e-02
5.059999999999999609e+00
1.791000000000000014e+01
7.934000000000000341e+01
2.282500000000000000e+02
-4.865000000000000000e+02
-5.900000000000000355e+00
1.561500000000000057e+02
4.657999999999999829e+01
3.330000000000000071e+00
-3.149999999999999911e+00
-1.474000000000000021e+01
2.907000000000000028e+01
1.891000000000000014e+01
1.662000000000000099e+01
-1.506000000000000050e+01
-8.119999999999999218e+00
-7.889999999999999680e+00
-7.900000000000000355e-01
1.406000000000000050e+01
9.799999999999999822e-01
-1.376999999999999957e+01
5.889999999999999680e+00
4.419999999999999929e+00
-7.660000000000000142e+00
-4.950000000000000178e+00
1.456000000000000050e+01
4.910000000000000142e+00
-1.748999999999999844e+01
-2.490000000000000213e+00
7.750000000000000000e+00
-9.419999999999999929e+00
-3.200000000000000067e-01
1.052999999999999936e+01
-2.999999999999999889e-02
-1.360999999999999943e+01
1.521000000000000085e+01
2.600000000000000089e-01
-1.785999999999999943e+01
9.570000000000000284e+00
1.425000000000000000e+01
-2.649999999999999911e+00
-1.653000000000000114e+01
1.528999999999999915e+01
-8.599999999999999867e-01
6.831999999999999318e+01
2.389399999999999977e+02
-1.779099999999999966e+02
-2.974800000000000182e+02
2.890299999999999727e+02
8.173999999999999488e+01
-1.110600000000000023e+02
-1.514799999999999898e+02
-5.182999999999999829e+01
-7.221999999999999886e+01
6.431000000000000227e+01
8.270999999999999375e+01
8.476000000000000512e+01
4.635000000000000142e+01
-4.307999999999999829e+01
-9.279000000000000625e+01
1.378700000000000045e+02
-1.121700000000000017e+02
1.828999999999999915e+01
9.262000000000000455e+01
-1.263900000000000006e+02
-1.750999999999999943e+02
-7.780000000000000249e+00
-6.643999999999999773e+01
1.860000000000000142e+01
1.297800000000000011e+02
-1.273100000000000023e+02
-1.643799999999999955e+02
6.349000000000000199e+01
1.559600000000000080e+02
-8.962000000000000455e+01
7.660999999999999943e+01
-1.039000000000000057e+01
1.339099999999999966e+02
-9.918999999999999773e+01
-3.082999999999999829e+01
3.446999999999999886e+01
2.492000000000000171e+01
-1.772299999999999898e+02
1.391399999999999864e+02
4.494700000000000273e+02
-2.918799999999999955e+02
-7.501000000000000512e+01
9.210000000000000853e+00
1.139999999999999902e+00
7.110999999999999943e+01
-4.704999999999999716e+01
-3.422999999999999687e+01
8.193999999999999773e+01
-6.906000000000000227e+01
-2.080999999999999872e+01
-2.925000000000000000e+01
-4.885000000000000142e+01
-3.001999999999999957e+01
1.007600000000000051e+02
3.162999999999999901e+01
-1.330000000000000071e+01
-1.304600000000000080e+02
-1.415699999999999932e+02
1.007399999999999949e+02
-1.000000000000000021e-02
-4.535000000000000142e+01
9.990000000000000213e+00
1.019999999999999929e+01
-1.150999999999999979e+01
-7.009999999999999787e+00
2.282000000000000028e+01
6.235000000000000142e+01
3.271000000000000085e+01
-6.118999999999999773e+01
-8.723999999999999488e+01
-1.776699999999999875e+02
1.665399999999999920e+02
7.531999999999999318e+01
-1.135999999999999943e+01
7.879999999999999893e+00
-4.679999999999999716e+00
-7.990000000000000213e+00
-2.099999999999999922e-01
1.207000000000000028e+01
-1.383999999999999986e+01
7.110000000000000320e+00
7.560999999999999943e+01
-1.203999999999999915e+01
-9.351000000000000512e+01
1.951999999999999957e+01
4.503000000000000114e+01
1.408999999999999986e+01
-2.158999999999999986e+01
-3.879999999999999893e+00
1.322000000000000064e+01
3.529999999999999805e+00
-2.580000000000000071e+00
3.959999999999999964e+00
7.440000000000000391e+00
-7.450000000000000178e+00
1.553999999999999915e+01
1.876000000000000156e+01
2.326000000000000156e+01
-1.135000000000000000e+02
3.765999999999999659e+01
9.330000000000000071e+00
-1.566999999999999993e+01
4.410000000000000142e+00
7.068999999999999773e+01
-5.713000000000000256e+01
-7.229999999999999716e+01
-2.887000000000000099e+01
-5.959999999999999964e+00
-4.413000000000000256e+01
3.767000000000000171e+01
2.498000000000000043e+01
-5.820000000000000284e+00
-1.771999999999999886e+01
-2.326999999999999957e+01
3.500000000000000000e+01
-2.523000000000000043e+01
2.805000000000000071e+01
1.009999999999999964e+01
1.034999999999999964e+01
-1.628000000000000114e+01
3.960999999999999943e+01
1.723000000000000043e+01
-1.673000000000000043e+01
9.679999999999999716e+00
6.261999999999999744e+01
7.334999999999999432e+01
-1.819300000000000068e+02
-2.105000000000000071e+01
-2.939999999999999947e+00
-7.759999999999999787e+00
1.664999999999999858e+01
7.929999999999999716e+00
5.478000000000000114e+01
5.671999999999999886e+01
6.340999999999999659e+01
-8.315000000000000568e+01
6.782999999999999829e+01
-5.653000000000000114e+01
-2.976999999999999957e+01
-1.842000000000000171e+01
8.759999999999999787e+00
-1.953999999999999915e+01
7.040000000000000036e+00
4.235999999999999943e+01
2.066000000000000014e+01
-1.750000000000000000e+01
-9.365999999999999659e+01
-1.590000000000000036e+01
1.018799999999999955e+02
-7.937000000000000455e+01
6.828000000000000114e+01
-7.290999999999999659e+01
1.966899999999999977e+02
1.767000000000000171e+01
2.908999999999999986e+01
-5.650999999999999801e+01
2.194000000000000128e+01
-1.059399999999999977e+02
1.007399999999999949e+02
7.598000000000000398e+01
-9.298999999999999488e+01
-1.821399999999999864e+02
-3.540000000000000036e+00
-1.291999999999999993e+01
-7.023999999999999488e+01
-7.175000000000000000e+01
4.378000000000000114e+01
-8.000000000000000000e+00
-1.202999999999999972e+02
2.726000000000000156e+01
1.220499999999999972e+02
4.056000000000000227e+01
-4.040000000000000036e+00
8.970000000000000284e+01
-2.948600000000000136e+02
1.604499999999999886e+02
-7.689000000000000057e+01
-1.330000000000000071e+01
-1.665200000000000102e+02
9.129000000000000625e+01
6.826999999999999602e+01
-1.368700000000000045e+02
1.199999999999999956e+00
2.314000000000000057e+01
2.253000000000000114e+01
-2.287999999999999901e+01
3.220000000000000195e+00
1.753999999999999915e+01
-9.690999999999999659e+01
-7.581000000000000227e+01
1.679999999999999938e+00
4.439000000000000057e+01
1.782999999999999829e+01
-2.212999999999999901e+01
-4.253999999999999915e+01
1.410999999999999943e+01
-2.979999999999999982e+00
8.990000000000000213e+00
7.799999999999999822e+00
2.287999999999999901e+01
-1.102999999999999936e+01
-9.948999999999999488e+01
2.185999999999999943e+01
4.317000000000000171e+01
8.340999999999999659e+01
-7.373000000000000398e+01
4.224000000000000199e+01
-1.701000000000000156e+01
-2.019000000000000128e+01
-2.764999999999999858e+01
5.659000000000000341e+01
7.042000000000000171e+01
5.253999999999999915e+01
-4.239000000000000057e+01
-7.328000000000000114e+01
2.123000000000000043e+01
-8.310000000000000497e+00
-2.546999999999999886e+01
-8.779999999999999716e+01
-3.665999999999999659e+01
-3.628999999999999915e+01
4.245000000000000284e+01
7.435999999999999943e+01
-1.386599999999999966e+02
-6.990000000000000213e+00
5.290000000000000036e+00
1.421800000000000068e+02
6.345000000000000284e+01
2.647200000000000273e+02
-1.089800000000000040e+02
-1.298199999999999932e+02
9.654999999999999716e+01
6.732999999999999829e+01
-6.299000000000000199e+01
-1.544000000000000057e+02
1.694300000000000068e+02
1.741999999999999886e+02
-6.125000000000000000e+01
-5.517000000000000171e+01
-3.014999999999999858e+01
6.370000000000000107e+00
2.046000000000000085e+01
3.243999999999999773e+01
1.135699999999999932e+02
-9.429999999999999716e+00
4.459999999999999964e+00
-3.182000000000000028e+01
-2.932999999999999829e+01
1.449000000000000057e+02
-1.544999999999999929e+01
5.302000000000000313e+01
-2.553999999999999915e+01
5.236999999999999744e+01
5.413000000000000256e+01
-2.933999999999999986e+01
-2.527500000000000000e+02
1.485999999999999943e+01
5.867999999999999972e+01
4.679999999999999716e+01
1.031000000000000050e+01
1.798000000000000043e+01
-2.020000000000000018e+00
2.117999999999999972e+01
1.517299999999999898e+02
-3.173000000000000043e+01
-4.850999999999999801e+01
2.355000000000000071e+01
-4.302000000000000313e+01
2.323999999999999844e+01
-1.127099999999999937e+02
7.926999999999999602e+01
-8.000000000000000444e-01
-1.310999999999999943e+01
2.262000000000000099e+01
2.729999999999999982e+00
-2.316000000000000014e+01
1.527999999999999936e+01
8.410000000000000142e+00
-9.220000000000000639e+00
-6.190000000000000391e+00
8.599999999999999645e+00
-1.590000000000000080e+00
-1.294999999999999929e+01
1.650000000000000000e+01
8.050000000000000711e+00
-1.336999999999999922e+01
1.782000000000000028e+01
1.067999999999999972e+01
-1.441999999999999993e+01
-1.290000000000000036e+01
1.213000000000000078e+01
2.839999999999999858e+00
-1.651000000000000156e+01
1.161999999999999922e+01
-6.899999999999999467e-01
-1.467999999999999972e+01
1.729999999999999982e+00
6.919999999999999929e+00
-6.099999999999999867e-01
-1.792999999999999972e+01
1.025999999999999979e+01
2.220000000000000195e+00
-1.493999999999999950e+01
1.452999999999999936e+01
7.419999999999999929e+00
-9.359999999999999432e+00
2.109999999999999876e+00
2.916000000000000014e+01
6.232000000000000028e+01
-3.332999999999999829e+01
-8.043999999999999773e+01
-2.501000000000000156e+01
-2.594000000000000128e+01
2.214999999999999858e+01
3.528000000000000114e+01
-3.707000000000000028e+01
-7.240000000000000213e+00
-4.120000000000000107e+00
-3.225000000000000000e+01
-1.032000000000000028e+02
-6.202000000000000313e+01
2.238100000000000023e+02
6.918999999999999773e+01
-5.428999999999999915e+01
-1.760999999999999943e+01
-8.199999999999999512e-01
2.430999999999999872e+01
2.350000000000000000e+01
-1.914000000000000057e+01
-1.078999999999999915e+01
-2.500000000000000000e-01
-1.396000000000000085e+01
-2.082999999999999829e+01
-3.950000000000000178e+00
4.160999999999999943e+01
6.339999999999999858e+00
-2.350000000000000000e+01
-9.830000000000000071e+00
-3.314000000000000057e+01
5.600000000000000533e-01
2.726999999999999957e+01
5.167000000000000171e+01
-8.406999999999999318e+01
-4.402000000000000313e+01
-4.584000000000000341e+01
-9.470000000000000284e+01
2.192599999999999909e+02
1.598799999999999955e+02
-1.812999999999999901e+01
-1.813600000000000136e+02
-2.196999999999999886e+01
8.450000000000000000e+01
3.650999999999999801e+01
3.507000000000000028e+01
-8.760999999999999943e+01
1.297000000000000064e+01
-2.544999999999999929e+01
3.550999999999999801e+01
3.939999999999999947e+00
-4.570000000000000284e+00
8.669999999999999929e+00
-1.125000000000000000e+01
-2.505000000000000071e+01
2.148000000000000043e+01
1.110000000000000098e+00
-1.135999999999999943e+01
-5.070000000000000284e+00
4.160000000000000142e+00
-2.746999999999999886e+01
1.991000000000000014e+01
3.490000000000000213e+00
-2.028999999999999915e+01
5.419999999999999929e+00
1.794999999999999929e+01
3.200000000000000178e+00
6.910000000000000142e+00
1.889999999999999902e+00
-3.535999999999999943e+01
-2.723999999999999844e+01
2.460999999999999943e+01
-9.519999999999999574e+00
1.717999999999999972e+01
-2.609999999999999876e+00
1.133999999999999986e+01
-3.770000000000000018e+00
-1.236999999999999922e+01
1.782999999999999829e+01
4.299999999999999933e-01
-2.948999999999999844e+01
1.750000000000000000e+00
7.360000000000000320e+00
-3.771000000000000085e+01
-3.790999999999999659e+01
3.784200000000000159e+02
-1.173599999999999994e+02
1.917999999999999972e+01
3.092000000000000171e+01
-1.192999999999999972e+01
-2.405000000000000071e+01
1.478999999999999915e+01
9.669999999999999929e+00
-1.914000000000000057e+01
-8.949999999999999289e+00
1.689999999999999858e+01
2.220000000000000195e+00
-1.098000000000000043e+01
1.973999999999999844e+01
2.839999999999999858e+00
-2.789999999999999858e+01
1.563000000000000078e+01
1.471000000000000085e+01
-7.679999999999999716e+00
8.419999999999999929e+00
1.725000000000000000e+01
5.839999999999999858e+00
2.417000000000000171e+01
8.779000000000000625e+01
-1.536100000000000136e+02
-6.892000000000000171e+01
9.929999999999999716e+00
9.570000000000000284e+00
-5.440000000000000391e+00
-4.190000000000000391e+00
-8.939999999999999503e+00
2.796999999999999886e+01
-1.962000000000000099e+01
-2.600000000000000089e-01
-2.589999999999999858e+00
-1.159999999999999964e+01
2.099999999999999922e-01
7.500000000000000000e+00
-4.735999999999999943e+01
-3.617999999999999972e+01
-4.229999999999999716e+01
5.320000000000000284e+01
-7.600000000000000089e-01
2.019000000000000128e+01
1.078999999999999915e+01
-3.750000000000000000e+00
1.160999999999999943e+01
-3.770000000000000018e+00
-8.509999999999999787e+00
-1.682999999999999829e+01
6.589999999999999858e+00
-1.432000000000000028e+01
-2.560000000000000053e+00
5.910000000000000142e+00
-1.408999999999999986e+01
-7.443999999999999773e+01
-8.856999999999999318e+01
-8.370999999999999375e+01
1.505099999999999909e+02
1.413400000000000034e+02
3.046000000000000085e+01
-1.424000000000000021e+01
-1.151999999999999957e+01
1.271000000000000085e+01
-9.730000000000000426e+00
-7.209999999999999964e+00
2.959999999999999964e+00
-1.159999999999999964e+01
9.720000000000000639e+00
1.484999999999999964e+01
8.115000000000000568e+01
8.070999999999999375e+01
-1.819699999999999989e+02
-1.040000000000000036e+00
4.792999999999999972e+01
-1.876999999999999957e+01
-1.148000000000000043e+01
1.043999999999999950e+01
-4.885000000000000142e+01
-4.320000000000000284e+01
1.590000000000000036e+01
-1.770000000000000018e+00
-1.306000000000000050e+01
-5.350000000000000000e+01
-1.083900000000000006e+02
1.377299999999999898e+02
1.336800000000000068e+02
2.030000000000000071e+01
-1.617000000000000171e+01
-1.235999999999999943e+01
-1.792000000000000171e+01
1.336999999999999922e+01
5.959999999999999964e+00
-2.050000000000000000e+01
1.250999999999999979e+01
1.662999999999999901e+01
-4.000000000000000083e-02
-9.539999999999999147e+00
1.600000000000000000e+01
3.189999999999999947e+00
-1.660999999999999943e+01
1.309999999999999964e+01
1.513000000000000078e+01
-2.500000000000000000e-01
-6.580000000000000071e+00
1.564000000000000057e+01
8.320000000000000284e+00
-8.519999999999999574e+00
4.549999999999999822e+00
8.060000000000000497e+00
-1.580000000000000071e+00
-1.309999999999999964e+01
7.700000000000000178e+00
6.500000000000000222e-01
-1.050000000000000000e+01
-8.999999999999999667e-02
6.879999999999999893e+00
8.299999999999999600e-01
-1.405000000000000071e+01
8.970000000000000639e+00
6.799999999999999822e+00
-5.769999999999999574e+00
-5.500000000000000000e+00
2.364999999999999858e+01
-1.263000000000000078e+01
-1.919000000000000128e+01
2.267999999999999972e+01
2.426000000000000156e+01
-1.308999999999999986e+01
-1.407000000000000028e+01
6.981999999999999318e+01
-6.440000000000000391e+00
-6.046000000000000085e+01
-3.439999999999999947e+00
1.546000000000000085e+01
8.509999999999999787e+00
-3.479999999999999716e+01
-6.790000000000000036e+00
2.680000000000000160e+00
-2.453999999999999915e+01
1.855000000000000071e+01
2.817999999999999972e+01
-5.139999999999999680e+00
9.779999999999999361e+00
-8.330000000000000071e+00
-1.800000000000000044e+00
-1.234999999999999964e+01
1.978000000000000114e+01
2.899999999999999911e+00
-2.833999999999999986e+01
1.102999999999999936e+01
2.792000000000000171e+01
-5.969999999999999751e+00
-1.391000000000000014e+01
2.425000000000000000e+01
1.077999999999999936e+01
-3.772999999999999687e+01
3.100000000000000089e+00
-1.729999999999999982e+00
7.400000000000000355e+00
7.259999999999999787e+00
-3.439999999999999947e+00
-9.990000000000000213e+00
-1.732000000000000028e+01
-2.100000000000000000e+01
-1.969999999999999973e+00
-1.311800000000000068e+02
2.405999999999999872e+01
2.828000000000000114e+01
8.889000000000000057e+01
3.139999999999999858e+01
8.696999999999999886e+01
2.891000000000000014e+01
-4.027000000000000313e+01
2.285999999999999943e+01
2.339000000000000057e+01
-1.714000000000000057e+01
2.310000000000000142e+01
1.707000000000000028e+01
-1.531000000000000050e+01
-7.709999999999999964e+00
2.710999999999999943e+01
-5.089999999999999858e+00
-2.550000000000000000e+01
3.183999999999999986e+01
1.889000000000000057e+01
1.659999999999999920e+00
-2.119999999999999929e+01
-8.019999999999999574e+00
-6.623000000000000398e+01
4.234000000000000341e+01
4.732999999999999829e+01
-2.976999999999999957e+01
-3.750000000000000000e+01
2.555999999999999872e+01
2.196000000000000085e+01
-5.690999999999999659e+01
-4.942999999999999972e+01
-6.768000000000000682e+01
1.949199999999999875e+02
-1.260000000000000000e+02
1.848000000000000043e+01
3.710999999999999943e+01
-1.051999999999999957e+01
7.299999999999999822e-01
-2.705999999999999872e+01
3.977000000000000313e+01
6.849999999999999645e+00
-1.123000000000000043e+01
-1.224000000000000021e+01
-2.448000000000000043e+01
-5.580000000000000071e+00
2.785999999999999943e+01
-2.637999999999999901e+01
-1.226999999999999957e+01
4.549999999999999822e+00
-2.501000000000000156e+01
-3.820000000000000284e+01
1.335900000000000034e+02
2.700000000000000000e+01
-2.958999999999999986e+01
-1.757999999999999829e+01
-3.935000000000000142e+01
-2.028000000000000114e+01
8.599999999999999867e-01
7.990000000000000213e+00
2.060000000000000142e+01
-2.851999999999999957e+01
-1.155000000000000071e+01
8.380000000000000782e+00
-7.730000000000000426e+00
-3.330000000000000071e+00
1.689999999999999947e+00
-3.290000000000000036e+00
7.070000000000000284e+00
-2.200000000000000178e+00
-1.151999999999999957e+01
-1.547000000000000064e+01
-9.869999999999999218e+00
2.267999999999999972e+01
-2.029999999999999805e+00
5.339999999999999858e+00
-8.199999999999999512e-01
4.549999999999999822e+00
-2.629999999999999893e+00
2.450000000000000178e+00
-1.216000000000000014e+01
-5.080000000000000071e+00
7.580000000000000071e+00
-1.110000000000000098e+00
-1.478999999999999915e+01
7.120000000000000107e+00
4.990000000000000213e+00
-4.230000000000000426e+00
5.589999999999999858e+00
4.280000000000000249e+00
-6.150000000000000355e+00
-1.108999999999999986e+01
1.335999999999999943e+01
-8.699999999999999289e+00
-3.299000000000000199e+01
1.282000000000000028e+01
3.381000000000000227e+01
8.499999999999999778e-01
-6.089999999999999858e+00
2.080000000000000071e+00
-9.009999999999999787e+00
-2.635999999999999943e+01
4.899999999999999911e-01
4.407999999999999829e+01
-5.788000000000000256e+01
-1.651000000000000156e+01
1.998000000000000043e+01
-6.179999999999999716e+00
-1.374000000000000021e+01
1.696999999999999886e+01
-3.259999999999999787e+00
-3.187999999999999901e+01
2.976999999999999957e+01
1.841000000000000014e+01
-1.982000000000000028e+01
8.789999999999999147e+00
2.091000000000000014e+01
-5.019999999999999574e+00
-2.716000000000000014e+01
2.482000000000000028e+01
5.459999999999999964e+00
-3.567999999999999972e+01
1.991000000000000014e+01
1.957999999999999829e+01
-2.789999999999999858e+01
-7.848000000000000398e+01
6.003999999999999915e+01
6.199000000000000199e+01
6.150000000000000355e+00
-1.687999999999999901e+01
7.370000000000000107e+00
-1.707999999999999829e+01
6.940000000000000391e+00
9.970000000000000639e+00
-2.196999999999999886e+01
-4.107999999999999829e+01
3.064999999999999858e+01
1.973999999999999844e+01
-2.651999999999999957e+01
2.173999999999999844e+01
1.215000000000000036e+01
-1.292999999999999972e+01
-2.344000000000000128e+01
2.144999999999999929e+01
1.173000000000000043e+01
-3.814000000000000057e+01
1.257000000000000028e+01
1.424000000000000021e+01
-3.585999999999999943e+01
8.910000000000000142e+00
1.896000000000000085e+01
-2.471000000000000085e+01
-4.839000000000000057e+01
4.365400000000000205e+02
-1.962400000000000091e+02
-8.859999999999999432e+00
-6.389999999999999680e+00
-1.586999999999999922e+01
-4.080000000000000071e+00
2.442000000000000171e+01
3.133999999999999986e+01
-7.549999999999999822e+00
-1.150999999999999979e+01
4.590999999999999659e+01
-1.125699999999999932e+02
6.798000000000000398e+01
1.464900000000000091e+02
-1.826999999999999957e+01
-1.540000000000000036e+01
1.880099999999999909e+02
-6.601999999999999602e+01
-5.757999999999999829e+01
9.378000000000000114e+01
1.005900000000000034e+02
-5.036999999999999744e+01
3.160999999999999943e+01
-1.087600000000000051e+02
5.009000000000000341e+01
-8.142000000000000171e+01
-1.266099999999999994e+02
7.360000000000000320e+00
1.463000000000000078e+01
-1.012999999999999972e+02
1.947400000000000091e+02
1.133999999999999986e+01
1.094699999999999989e+02
-1.107900000000000063e+02
1.506800000000000068e+02
-1.818899999999999864e+02
-1.097999999999999972e+02
7.365000000000000568e+01
6.662000000000000455e+01
1.218999999999999950e+01
-8.349999999999999645e+00
-2.009799999999999898e+02
-7.312999999999999545e+01
1.420999999999999943e+02
-7.334999999999999432e+01
-9.368999999999999773e+01
-2.833999999999999986e+01
-1.951000000000000156e+01
1.263199999999999932e+02
1.471000000000000085e+01
3.881000000000000227e+01
-2.876000000000000156e+01
-2.842000000000000171e+01
2.424600000000000080e+02
-2.533999999999999986e+01
-2.540000000000000036e+00
-1.468999999999999950e+01
9.849999999999999645e+00
-1.218700000000000045e+02
2.519999999999999929e+01
1.023799999999999955e+02
-1.331000000000000050e+01
5.963000000000000256e+01
-6.940000000000000391e+00
3.436999999999999744e+01
2.039000000000000057e+01
-2.582999999999999829e+01
-1.309900000000000091e+02
2.619999999999999929e+01
2.064699999999999989e+02
-8.823000000000000398e+01
5.978999999999999915e+01
4.095000000000000284e+01
4.115999999999999659e+01
-2.119399999999999977e+02
9.279999999999999716e+01
2.801999999999999957e+01
3.388000000000000256e+01
-4.671000000000000085e+01
2.172800000000000011e+02
-2.146699999999999875e+02
-2.201100000000000136e+02
1.787100000000000080e+02
4.639999999999999858e+01
-2.006299999999999955e+02
-1.280500000000000114e+02
2.695500000000000114e+02
-2.578000000000000114e+01
-1.601999999999999957e+01
5.530000000000000249e+00
1.833999999999999986e+01
2.142000000000000171e+01
-4.479999999999999716e+01
-1.588799999999999955e+02
9.553000000000000114e+01
9.125000000000000000e+01
1.433000000000000007e+01
3.656000000000000227e+01
2.119000000000000128e+01
-2.487999999999999901e+01
-3.009999999999999787e+00
4.211999999999999744e+01
-5.934000000000000341e+01
6.378999999999999915e+01
-5.490999999999999659e+01
-7.540999999999999659e+01
-3.329999999999999716e+01
-8.284000000000000341e+01
-3.921999999999999886e+01
2.598600000000000136e+02
1.207300000000000040e+02
-2.346399999999999864e+02
-1.545800000000000125e+02
4.052000000000000313e+01
9.146999999999999886e+01
7.750000000000000000e+01
7.037000000000000455e+01
-3.328999999999999915e+01
2.763000000000000114e+02
4.496999999999999886e+01
-4.935600000000000023e+02
-3.598000000000000114e+02
1.416200000000000045e+02
2.486699999999999875e+02
8.576000000000000512e+01
-2.107500000000000000e+02
-7.921999999999999886e+01
-4.154999999999999716e+01
-4.990000000000000213e+00
-1.288000000000000078e+01
-6.320000000000000284e+00
6.230000000000000426e+00
5.500000000000000000e+00
4.089999999999999858e+00
-5.290000000000000036e+00
9.519999999999999574e+00
2.350000000000000089e+00
-5.610000000000000320e+00
2.810000000000000053e+00
1.516999999999999993e+01
-2.480000000000000071e+01
-1.186999999999999922e+01
-1.274000000000000021e+01
-3.180000000000000160e+00
1.409999999999999964e+01
1.394999999999999929e+01
-2.419999999999999929e+00
-1.653999999999999915e+01
1.351999999999999957e+01
-1.302999999999999936e+01
6.129999999999999716e+01
2.672099999999999795e+02
-2.787799999999999727e+02
-2.879999999999999893e+00
1.343600000000000136e+02
4.678999999999999915e+01
-4.959999999999999964e+00
-7.592000000000000171e+01
5.285000000000000142e+01
-2.029999999999999805e+00
5.815999999999999659e+01
-9.964000000000000057e+01
6.490999999999999659e+01
1.500000000000000000e+01
4.969999999999999751e+00
5.589000000000000057e+01
-9.473000000000000398e+01
9.829000000000000625e+01
2.626000000000000156e+01
1.833400000000000034e+02
-3.708199999999999932e+02
1.555000000000000071e+01
3.746000000000000085e+01
8.220000000000000284e+01
-1.569300000000000068e+02
1.133299999999999983e+02
-1.694999999999999929e+01
-5.509999999999999787e+00
-4.128999999999999915e+01
-6.690000000000000391e+00
1.061999999999999922e+01
-2.875000000000000000e+01
1.284900000000000091e+02
1.347400000000000091e+02
1.305699999999999932e+02
2.979999999999999982e+00
4.081000000000000227e+01
-7.154000000000000625e+01
1.206400000000000006e+02
-2.121999999999999886e+01
-3.496999999999999886e+01
-2.244000000000000128e+01
-8.693000000000000682e+01
-6.895000000000000284e+01
3.103399999999999750e+02
1.197300000000000040e+02
-3.835099999999999909e+02
1.146800000000000068e+02
2.843199999999999932e+02
1.623899999999999864e+02
-2.240099999999999909e+02
4.375999999999999801e+01
1.051800000000000068e+02
-8.373999999999999488e+01
-1.957500000000000000e+02
1.015600000000000023e+02
1.335500000000000114e+02
-1.863799999999999955e+02
-2.908999999999999986e+01
1.200000000000000000e+01
-1.181599999999999966e+02
-3.285099999999999909e+02
3.530000000000000000e+02
1.038199999999999932e+02
-2.268799999999999955e+02
2.346000000000000085e+01
-3.099999999999999978e-01
1.000300000000000011e+02
-1.150000000000000000e+01
-9.312999999999999545e+01
3.628999999999999915e+01
1.451200000000000045e+02
-1.441200000000000045e+02
-1.529399999999999977e+02
6.028999999999999915e+01
-1.265400000000000063e+02
3.852000000000000313e+01
2.243700000000000045e+02
-5.218999999999999773e+01
-2.800899999999999750e+02
-1.292700000000000102e+02
1.062199999999999989e+02
4.168999999999999773e+01
1.487299999999999898e+02
1.070900000000000034e+02
9.206000000000000227e+01
-1.928199999999999932e+02
3.385000000000000142e+01
6.584000000000000341e+01
-1.533999999999999986e+01
-2.800000000000000000e+01
2.651000000000000156e+01
2.741000000000000014e+01
-2.762000000000000099e+01
-1.542999999999999972e+01
9.599999999999999645e-01
-2.098000000000000043e+01
8.630000000000000782e+00
2.049999999999999822e+00
-9.699999999999999734e-01
7.748000000000000398e+01
1.719399999999999977e+02
-1.520300000000000011e+02
1.901000000000000156e+01
-2.898999999999999844e+01
-3.696999999999999886e+01
6.620999999999999375e+01
5.406000000000000227e+01
-8.335999999999999943e+01
3.875000000000000000e+01
5.281000000000000227e+01
5.830000000000000071e+00
-1.700000000000000122e-01
1.855000000000000071e+01
-1.083000000000000007e+01
8.459000000000000341e+01
-3.634000000000000341e+01
-1.601599999999999966e+02
-3.265699999999999932e+02
3.276600000000000250e+02
1.122600000000000051e+02
3.964000000000000057e+01
-3.400000000000000244e-01
-3.217000000000000171e+01
-1.896999999999999886e+01
-1.658999999999999986e+01
-2.542999999999999972e+01
-2.462999999999999901e+01
-3.757000000000000028e+01
-1.367899999999999920e+02
1.647400000000000091e+02
6.676000000000000512e+01
-6.179999999999999716e+01
-3.453000000000000114e+01
1.442999999999999972e+01
8.000000000000000000e+00
6.400000000000000133e-01
-1.008999999999999986e+01
9.839999999999999858e+00
8.009999999999999787e+00
-1.278999999999999915e+01
-7.598999999999999488e+01
5.597999999999999687e+01
9.800000000000000711e+00
-9.556000000000000227e+01
1.540099999999999909e+02
-2.796999999999999886e+01
-3.400099999999999909e+02
8.218000000000000682e+01
1.748999999999999844e+01
-4.581000000000000227e+01
2.244000000000000128e+01
-5.388000000000000256e+01
-1.059000000000000057e+02
1.900200000000000102e+02
-1.368000000000000114e+02
2.248499999999999943e+02
-2.162000000000000099e+01
-9.026000000000000512e+01
9.426000000000000512e+01
-1.043799999999999955e+02
-1.167000000000000028e+02
-1.314000000000000057e+01
-2.644399999999999977e+02
5.296000000000000085e+01
1.404199999999999875e+02
1.263900000000000006e+02
-1.437299999999999898e+02
1.628000000000000114e+01
-1.590000000000000080e+00
3.365999999999999659e+01
-6.210000000000000142e+01
-5.660999999999999943e+01
1.063400000000000034e+02
6.518999999999999773e+01
-6.781000000000000227e+01
-7.650000000000000000e+01
7.101999999999999602e+01
1.955300000000000011e+02
-5.486999999999999744e+01
-2.712699999999999818e+02
9.029999999999999361e+00
-4.882000000000000028e+01
-6.240000000000000213e+00
2.312999999999999901e+01
1.648999999999999844e+01
6.168999999999999773e+01
-9.460000000000000853e+00
-7.570000000000000284e+00
-1.163700000000000045e+02
7.160999999999999943e+01
-6.629000000000000625e+01
3.270000000000000284e+01
-8.714000000000000057e+01
-3.014000000000000057e+01
-8.234000000000000341e+01
1.172000000000000064e+01
-2.370000000000000107e+00
4.668999999999999773e+01
-6.454000000000000625e+01
5.406000000000000227e+01
2.053000000000000114e+01
6.980000000000000426e+00
1.574000000000000021e+01
-6.099999999999999645e+00
-2.000000000000000042e-02
3.580000000000000071e+00
-4.240000000000000213e+00
-1.049000000000000021e+01
-4.099999999999999756e-01
6.049999999999999822e+00
4.240000000000000213e+00
-6.240000000000000213e+00
1.314000000000000057e+01
-3.160000000000000142e+00
-1.917000000000000171e+01
2.294999999999999929e+01
2.982000000000000028e+01
3.696000000000000085e+01
-7.801000000000000512e+01
4.469999999999999751e+00
-6.550000000000000000e+01
-1.723999999999999844e+01
-8.610999999999999943e+01
5.475999999999999801e+01
1.222999999999999972e+02
1.449499999999999886e+02
-8.448999999999999488e+01
-1.628000000000000114e+01
7.448999999999999488e+01
-1.996000000000000085e+01
-5.895000000000000284e+01
3.087999999999999901e+01
-5.379999999999999716e+01
6.047999999999999687e+01
-3.614999999999999858e+01
-1.001099999999999994e+02
-3.788000000000000256e+01
-5.164999999999999858e+01
-2.149999999999999911e+00
7.425000000000000000e+01
-2.730999999999999872e+01
2.389000000000000057e+01
-8.070999999999999375e+01
4.707000000000000028e+01
1.021200000000000045e+02
1.081000000000000050e+01
1.510000000000000009e+00
-1.416999999999999993e+01
-2.380999999999999872e+01
-4.099999999999999645e+00
8.630000000000000782e+00
3.350000000000000089e+00
3.779999999999999716e+01
1.798199999999999932e+02
-2.735600000000000023e+02
-5.586999999999999744e+01
3.885000000000000142e+01
5.886999999999999744e+01
-1.391100000000000136e+02
1.338199999999999932e+02
1.348499999999999943e+02
-1.305500000000000114e+02
1.476299999999999955e+02
-9.235999999999999943e+01
-2.707200000000000273e+02
-8.606000000000000227e+01
2.119600000000000080e+02
1.340999999999999943e+02
-1.903999999999999915e+01
2.689000000000000057e+01
6.918000000000000682e+01
-1.208499999999999943e+02
-3.927000000000000313e+01
-5.870000000000000107e+00
3.711999999999999744e+01
-3.689000000000000057e+01
1.040000000000000036e+00
-3.267999999999999972e+01
6.339000000000000057e+01
1.216000000000000014e+01
-4.889000000000000057e+01
1.586999999999999922e+01
-5.646999999999999886e+01
4.809999999999999609e+00
1.983999999999999986e+01
-7.731999999999999318e+01
3.331000000000000227e+01
5.407999999999999829e+01
-1.368999999999999950e+01
6.540999999999999659e+01
-1.244999999999999929e+01
2.630000000000000071e+01
-8.593000000000000682e+01
2.376999999999999957e+01
2.403000000000000114e+01
-7.280000000000000249e+00
1.300000000000000044e+00
1.456000000000000050e+01
1.330000000000000071e+01
1.407000000000000028e+01
-3.450000000000000178e+00
-1.642000000000000171e+01
1.250000000000000000e+00
9.470000000000000639e+00
3.970000000000000195e+00
1.705999999999999872e+01
1.210900000000000034e+02
-2.988899999999999864e+02
6.662000000000000455e+01
5.659000000000000341e+01
-3.362799999999999727e+02
-5.707999999999999829e+01
9.368000000000000682e+01
7.681000000000000227e+01
-8.195000000000000284e+01
-2.044999999999999929e+01
2.355999999999999872e+01
6.895000000000000284e+01
1.992000000000000171e+01
-4.189000000000000057e+01
-1.678000000000000114e+01
1.388000000000000078e+01
-1.149999999999999911e+00
2.251000000000000156e+01
3.721000000000000085e+01
-5.540999999999999659e+01
-7.440000000000000391e+00
3.210000000000000142e+01
3.557999999999999829e+01
8.145999999999999375e+01
-9.203000000000000114e+01
2.110000000000000142e+01
-1.596000000000000085e+01
-3.724000000000000199e+01
-2.319999999999999840e+00
-6.370000000000000107e+00
4.056000000000000227e+01
1.894999999999999929e+01
5.997999999999999687e+01
2.562999999999999901e+01
-1.789600000000000080e+02
2.332199999999999989e+02
9.481000000000000227e+01
-4.743999999999999773e+01
5.546000000000000085e+01
2.928000000000000114e+01
-6.000999999999999801e+01
1.325000000000000000e+01
7.120000000000000107e+00
-1.263000000000000078e+01
6.599999999999999645e+00
9.109999999999999432e+00
4.000000000000000222e-01
-9.000000000000000222e-01
1.342999999999999972e+01
1.007000000000000028e+01
-9.039999999999999147e+00
4.463000000000000256e+01
-1.758999999999999986e+01
-9.250000000000000000e+00
9.200000000000000400e-01
2.639999999999999858e+01
1.887999999999999901e+01
-1.063000000000000078e+01
5.209999999999999964e+00
3.952000000000000313e+01
4.360999999999999943e+01
-2.546999999999999886e+01
2.160000000000000142e+01
-1.980999999999999872e+01
-1.623000000000000043e+01
-9.089999999999999858e+00
2.542000000000000171e+01
9.909000000000000341e+01
-1.083599999999999994e+02
4.650999999999999801e+01
2.955000000000000071e+01
-4.028999999999999915e+01
-1.159699999999999989e+02
3.965999999999999659e+01
-2.992000000000000171e+01
4.588000000000000256e+01
-4.225999999999999801e+01
-3.354999999999999716e+01
2.883999999999999986e+01
-3.371999999999999886e+01
1.054399999999999977e+02
-1.007699999999999960e+02
-4.385999999999999943e+01
3.645000000000000284e+01
3.050000000000000000e+01
-5.972999999999999687e+01
6.431000000000000227e+01
5.730000000000000426e+00
5.089999999999999858e+00
-2.255000000000000071e+01
4.628999999999999915e+01
-5.300999999999999801e+01
-6.623000000000000398e+01
-9.231999999999999318e+01
8.639000000000000057e+01
1.655000000000000071e+01
-1.127399999999999949e+02
-4.717000000000000171e+01
1.664999999999999858e+01
-2.016000000000000014e+01
2.378000000000000114e+01
5.085999999999999943e+01
-5.650999999999999801e+01
-1.435999999999999943e+01
3.100000000000000000e+01
3.732000000000000028e+01
-8.173999999999999488e+01
1.555000000000000071e+01
1.957000000000000028e+01
7.343000000000000682e+01
-3.100000000000000000e+01
1.368000000000000114e+02
-2.341200000000000045e+02
-3.378000000000000114e+01
3.599900000000000091e+02
-3.690999999999999659e+01
-1.888799999999999955e+02
-1.498799999999999955e+02
-2.486200000000000045e+02
3.240000000000000000e+02
-5.199000000000000199e+01
2.544000000000000128e+01
5.517999999999999972e+01
-8.976000000000000512e+01
-7.170999999999999375e+01
-9.600000000000000000e+01
-1.153999999999999915e+01
5.710999999999999943e+01
9.835999999999999943e+01
-1.471000000000000085e+01
1.017999999999999972e+01
-9.301999999999999602e+01
-9.750000000000000000e+00
-1.875000000000000000e+01
1.666100000000000136e+02
-2.057299999999999898e+02
3.471999999999999886e+01
4.138000000000000256e+01
8.732999999999999829e+01
-6.115999999999999659e+01
-1.176599999999999966e+02
4.559000000000000341e+01
1.338100000000000023e+02
1.045900000000000034e+02
-2.558799999999999955e+02
8.745999999999999375e+01
1.037999999999999972e+02
-7.709999999999999964e+00
-5.910000000000000142e+00
2.851000000000000156e+01
7.100000000000000000e+01
3.210999999999999943e+01
-6.277000000000000313e+01
9.631999999999999318e+01
-9.789999999999999147e+00
2.476000000000000156e+01
4.517999999999999972e+01
-1.344300000000000068e+02
3.148000000000000043e+01
3.870000000000000284e+01
4.385999999999999943e+01
-1.770399999999999920e+02
3.511999999999999744e+01
-3.217000000000000171e+01
9.946999999999999886e+01
-1.174200000000000017e+02
3.549999999999999822e+00
3.167999999999999972e+01
-1.142600000000000051e+02
5.821000000000000085e+01
1.083900000000000006e+02
2.121000000000000085e+01
-1.150000000000000000e+01
-1.130400000000000063e+02
1.630000000000000071e+01
-1.782999999999999829e+01
1.394999999999999929e+01
-4.267999999999999972e+01
2.392999999999999972e+01
-6.570000000000000284e+01
-3.625000000000000000e+01
3.565999999999999659e+01
9.223999999999999488e+01
-1.168700000000000045e+02
1.421000000000000085e+01
3.037999999999999901e+01
2.808999999999999986e+01
4.240000000000000213e+00
4.990000000000000213e+00
-2.609999999999999876e+00
1.241000000000000014e+01
-9.300000000000000488e-01
-7.280000000000000249e+00
6.790000000000000036e+00
-5.531000000000000227e+01
-5.939000000000000057e+01
8.151999999999999602e+01
2.785000000000000142e+01
-1.855000000000000071e+01
3.371999999999999886e+01
1.779499999999999886e+02
-2.158600000000000136e+02
-4.640999999999999659e+01
-7.900000000000000355e+00
-9.132999999999999829e+01
-7.734999999999999432e+01
-1.142600000000000051e+02
1.319900000000000091e+02
1.704600000000000080e+02
5.560999999999999943e+01
-1.017900000000000063e+02
-8.512000000000000455e+01
-7.842000000000000171e+01
1.565000000000000000e+02
2.271999999999999886e+01
-1.859000000000000057e+02
-1.986500000000000057e+02
2.810000000000000053e+00
9.715000000000000568e+01
-5.006000000000000227e+01
-2.555000000000000071e+01
8.740999999999999659e+01
-7.792000000000000171e+01
1.009200000000000017e+02
2.296999999999999886e+01
-5.603000000000000114e+01
-1.486999999999999922e+01
2.558999999999999986e+01
-3.835000000000000142e+01
-2.859999999999999876e+00
-7.620000000000000107e+00
6.999999999999999556e-01
8.237999999999999545e+01
5.209999999999999964e+00
1.483999999999999986e+01
3.569999999999999840e+00
-4.492000000000000171e+01
3.410999999999999943e+01
1.464000000000000057e+01
1.400000000000000000e+01
-5.068999999999999773e+01
5.396000000000000085e+01
-3.610999999999999943e+01
6.364999999999999858e+01
-9.439000000000000057e+01
1.267999999999999972e+01
4.461999999999999744e+01
-7.543000000000000682e+01
9.878000000000000114e+01
-8.600000000000000000e+01
-2.696000000000000085e+01
9.375000000000000000e+01
-6.199999999999999956e-01
-3.735000000000000142e+01
3.035999999999999943e+01
7.330000000000000071e+00
-5.274000000000000199e+01
-1.122000000000000064e+01
5.099999999999999645e+00
4.954999999999999716e+01
-4.635999999999999943e+01
-5.440000000000000391e+00
7.399999999999999911e-01
4.390999999999999659e+01
8.351000000000000512e+01
-3.675999999999999801e+01
-1.285000000000000000e+02
-1.986500000000000057e+02
-1.165799999999999983e+02
2.062899999999999920e+02
-5.767000000000000171e+01
-3.183999999999999986e+01
4.599000000000000199e+01
2.764000000000000057e+01
-8.990000000000000568e+01
-1.090000000000000080e+00
2.435000000000000142e+01
1.558999999999999986e+01
1.216000000000000014e+01
4.950000000000000000e+01
1.011999999999999922e+01
5.103999999999999915e+01
-6.039000000000000057e+01
-7.517000000000000171e+01
8.118000000000000682e+01
1.831999999999999886e+02
-7.043999999999999773e+01
-3.222999999999999687e+01
-6.014000000000000057e+01
-2.364999999999999858e+01
7.019999999999999574e+00
1.658199999999999932e+02
7.679000000000000625e+01
4.750000000000000000e+00
-9.206999999999999318e+01
4.719999999999999751e+00
-1.164000000000000057e+01
-8.949999999999999289e+00
3.225000000000000000e+01
4.500000000000000000e+00
-3.871999999999999886e+01
1.776999999999999957e+01
-6.495000000000000284e+01
-3.263000000000000256e+01
3.624000000000000199e+01
2.673999999999999844e+01
3.611999999999999744e+01
-7.800000000000000000e+01
-2.491000000000000014e+01
3.123000000000000043e+01
-1.880999999999999872e+01
1.056000000000000050e+01
-3.550999999999999801e+01
-5.540000000000000036e+00
1.026999999999999957e+01
-2.073999999999999844e+01
-2.185000000000000142e+01
-2.589999999999999858e+01
-1.926000000000000156e+01
6.281000000000000227e+01
1.496500000000000057e+02
2.014900000000000091e+02
-5.153700000000000045e+02
-3.078000000000000114e+02
3.409499999999999886e+02
1.936399999999999864e+02
-8.734999999999999432e+01
8.278000000000000114e+01
3.465999999999999659e+01
2.807000000000000028e+01
4.780000000000000249e+00
8.740000000000000568e+01
-8.782999999999999829e+01
-8.360999999999999943e+01
6.114999999999999858e+01
-1.830999999999999872e+01
-1.249800000000000040e+02
2.725000000000000000e+01
1.921000000000000085e+01
2.971000000000000085e+01
1.935000000000000142e+01
1.004399999999999977e+02
-2.591000000000000014e+01
-3.854999999999999716e+01
-6.059999999999999609e+00
6.620999999999999375e+01
3.839999999999999858e+01
-9.676999999999999602e+01
-8.489000000000000057e+01
1.546000000000000085e+01
-6.669999999999999929e+00
-4.242000000000000171e+01
1.317999999999999972e+01
3.527000000000000313e+01
1.501999999999999957e+01
1.468999999999999950e+01
-6.235000000000000142e+01
1.177999999999999936e+01
-6.070000000000000284e+00
-6.120000000000000284e+01
5.322999999999999687e+01
1.637000000000000099e+01
-1.870000000000000107e+00
-3.080999999999999872e+01
1.290000000000000036e+00
6.027000000000000313e+01
-2.228000000000000114e+01
-2.037000000000000099e+01
3.567000000000000171e+01
1.000000000000000000e+00
1.639999999999999858e+01
-1.038000000000000078e+01
-5.889999999999999680e+00
3.450000000000000178e+00
1.520000000000000018e+00
3.003999999999999915e+01
-1.233000000000000007e+01
-6.022999999999999687e+01
5.620000000000000107e+00
1.919000000000000128e+01
7.399999999999999911e-01
-1.805999999999999872e+01
-3.360000000000000142e+01
2.310000000000000053e+00
2.712000000000000099e+01
1.948000000000000043e+01
-2.794000000000000128e+01
-6.426999999999999602e+01
1.330000000000000071e+01
7.156000000000000227e+01
6.959999999999999964e+00
-3.189999999999999858e+01
7.648000000000000398e+01
-4.628000000000000114e+01
3.430000000000000160e+00
-3.153999999999999915e+01
-1.393999999999999950e+01
6.352000000000000313e+01
7.656999999999999318e+01
1.764900000000000091e+02
-2.435699999999999932e+02
-1.088799999999999955e+02
5.950000000000000178e+00
6.032999999999999829e+01
1.089300000000000068e+02
2.317999999999999972e+01
1.749699999999999989e+02
-1.332299999999999898e+02
-3.096000000000000085e+01
1.542400000000000091e+02
-2.971999999999999886e+01
-6.781000000000000227e+01
1.236200000000000045e+02
-7.509999999999999787e+00
-1.306000000000000050e+01
1.407000000000000028e+01
8.910000000000000142e+00
-1.658300000000000125e+02
-5.953999999999999915e+01
-8.806999999999999318e+01
1.837599999999999909e+02
-5.589999999999999858e+00
-1.021000000000000085e+01
-8.696999999999999886e+01
8.175000000000000000e+01
-4.543999999999999773e+01
-1.236999999999999922e+01
3.642000000000000171e+01
-1.216000000000000014e+01
1.917999999999999972e+01
-9.492000000000000171e+01
-1.991000000000000014e+01
-2.905000000000000071e+01
-5.852000000000000313e+01
-8.679999999999999716e+00
8.062999999999999545e+01
9.679999999999999716e+00
-5.625000000000000000e+01
5.679999999999999716e+01
-1.033000000000000007e+01
9.185999999999999943e+01
-5.779999999999999716e+01
-6.154999999999999716e+01
1.128299999999999983e+02
4.590999999999999659e+01
-1.450000000000000000e+02
6.831000000000000227e+01
2.908999999999999986e+01
7.259999999999999787e+00
-3.105000000000000071e+01
-1.058000000000000007e+01
-4.206000000000000227e+01
-7.093999999999999773e+01
-9.179999999999999716e+01
1.193100000000000023e+02
-1.524900000000000091e+02
-1.111099999999999994e+02
1.943600000000000136e+02
4.135999999999999943e+01
-4.986999999999999744e+01
6.401000000000000512e+01
7.417000000000000171e+01
2.799999999999999822e+00
-3.381000000000000227e+01
-1.172999999999999972e+02
-7.765000000000000568e+01
3.291499999999999773e+02
-7.150000000000000355e+00
-4.259999999999999787e+00
1.017999999999999972e+01
6.549999999999999822e+00
-3.982999999999999829e+01
1.601000000000000156e+01
6.571999999999999886e+01
1.152300000000000040e+02
-1.573000000000000043e+01
2.128000000000000114e+01
-8.623999999999999488e+01
-1.758999999999999986e+01
8.432999999999999829e+01
-1.543999999999999950e+01
5.634000000000000341e+01
-6.478000000000000114e+01
-3.303999999999999915e+01
-1.514000000000000057e+01
-2.335000000000000142e+01
6.520000000000000284e+01
1.880999999999999872e+01
4.600000000000000200e-01
1.271000000000000085e+01
-7.829999999999999716e+01
5.131000000000000227e+01
1.840000000000000080e+00
-5.385000000000000142e+01
-1.084999999999999964e+01
-8.240000000000000213e+00
9.339000000000000057e+01
-2.176000000000000156e+01
-5.834000000000000341e+01
-3.620000000000000107e+00
-2.899999999999999911e+00
1.008799999999999955e+02
-4.849000000000000199e+01
-2.901000000000000156e+01
3.819999999999999840e+00
4.174000000000000199e+01
6.781000000000000227e+01
-6.160999999999999943e+01
9.269999999999999574e+00
3.736999999999999744e+01
-1.268999999999999950e+01
1.748000000000000043e+01
-6.200999999999999801e+01
3.060000000000000053e+00
2.910000000000000142e+01
-5.000000000000000000e-01
1.812999999999999901e+01
-4.422999999999999687e+01
5.750000000000000000e+01
2.080000000000000071e+00
5.669999999999999929e+00
-1.973999999999999844e+01
-4.488000000000000256e+01
2.160999999999999943e+01
1.666000000000000014e+01
2.378000000000000114e+01
-4.838000000000000256e+01
-4.135999999999999943e+01
5.832000000000000028e+01
-1.450999999999999979e+01
1.099000000000000021e+01
-3.778000000000000114e+01
-1.791000000000000014e+01
2.646000000000000085e+01
-1.409999999999999920e+00
2.285000000000000142e+01
-2.198000000000000043e+01
-3.975999999999999801e+01
1.350000000000000000e+01
1.894000000000000128e+01
2.128000000000000114e+01
-1.421399999999999864e+02
3.017999999999999972e+01
-4.146999999999999886e+01
-3.259999999999999787e+00
6.629000000000000625e+01
-9.980000000000000426e+00
-3.130000000000000071e+01
4.660999999999999943e+01
7.019999999999999574e+00
2.687999999999999901e+01
-8.001000000000000512e+01
3.332999999999999829e+01
2.310000000000000142e+01
1.860999999999999943e+01
1.102999999999999936e+01
1.705500000000000114e+02
-1.377899999999999920e+02
4.067000000000000171e+01
-4.304999999999999716e+01
-1.864000000000000057e+01
3.284000000000000341e+01
1.225000000000000000e+02
-1.240100000000000051e+02
-5.921000000000000085e+01
-4.367999999999999972e+01
-2.878999999999999915e+01
1.744199999999999875e+02
-3.055999999999999872e+01
9.678000000000000114e+01
1.228700000000000045e+02
8.695999999999999375e+01
-8.262999999999999545e+01
-2.190500000000000114e+02
1.158599999999999994e+02
4.556000000000000227e+01
-1.025999999999999979e+01
-8.945999999999999375e+01
6.235000000000000142e+01
-4.778000000000000114e+01
2.520000000000000018e+00
1.258000000000000007e+01
-5.864999999999999858e+01
1.283199999999999932e+02
6.250000000000000000e+00
1.910999999999999943e+01
-9.165000000000000568e+01
-3.513000000000000256e+01
-7.453000000000000114e+01
-5.388000000000000256e+01
3.098999999999999844e+01
8.890000000000000568e+00
1.032699999999999960e+02
1.826000000000000156e+01
-5.482999999999999829e+01
6.157999999999999829e+01
-4.834000000000000341e+01
6.829999999999999716e+01
-5.378000000000000114e+01
5.100000000000000089e-01
2.223000000000000043e+01
3.232000000000000028e+01
-6.662000000000000455e+01
-4.289999999999999858e+01
6.364999999999999858e+01
-7.962000000000000455e+01
8.660999999999999943e+01
-2.208999999999999986e+01
-3.378999999999999915e+01
7.830000000000000071e+00
-7.625000000000000000e+01
6.918000000000000682e+01
-2.173000000000000043e+01
-1.198000000000000043e+01
3.456000000000000227e+01
1.016000000000000014e+01
-3.525000000000000000e+01
-7.834999999999999432e+01
7.406000000000000227e+01
-6.779000000000000625e+01
9.160999999999999943e+01
1.840000000000000080e+00
-5.704999999999999716e+01
2.730000000000000071e+01
-5.221000000000000085e+01
5.139999999999999858e+01
-1.751000000000000156e+01
-3.279999999999999716e+01
2.551999999999999957e+01
1.880000000000000071e+01
8.939999999999999503e+00
2.080000000000000071e+00
-1.361599999999999966e+02
-4.282000000000000028e+01
2.966000000000000014e+01
2.355999999999999872e+01
-2.662000000000000099e+01
-1.566999999999999993e+01
-4.520000000000000284e+01
3.699000000000000199e+01
-2.525000000000000000e+01
3.543999999999999773e+01
-1.637999999999999901e+01
8.618999999999999773e+01
-7.345999999999999375e+01
-6.168999999999999773e+01
6.679999999999999716e+00
1.996999999999999886e+01
2.941000000000000014e+01
-5.503999999999999915e+01
-7.448999999999999488e+01
4.728999999999999915e+01
7.700000000000000178e+00
2.735999999999999943e+01
2.000000000000000111e-01
-6.169999999999999929e+00
8.629999999999999716e+01
-5.242000000000000171e+01
9.832999999999999829e+01
-7.528000000000000114e+01
-5.100000000000000000e+01
-2.598000000000000043e+01
-1.944000000000000128e+01
9.200000000000000400e-01
3.796999999999999886e+01
-1.224000000000000021e+01
-1.106000000000000050e+01
-1.349000000000000021e+01
-9.964000000000000057e+01
1.056000000000000050e+01
-4.635000000000000142e+01
1.385200000000000102e+02
-1.882000000000000028e+01
-3.765999999999999659e+01
3.689000000000000057e+01
1.356100000000000136e+02
-1.381100000000000136e+02
6.218999999999999773e+01
7.039000000000000057e+01
-8.257999999999999829e+01
1.780000000000000027e+00
8.830000000000000071e+00
-5.984000000000000341e+01
4.457999999999999829e+01
1.951999999999999957e+01
-7.129999999999999893e+00
-3.157999999999999829e+01
-1.455000000000000071e+01
7.256000000000000227e+01
-9.250000000000000000e+00
-2.832000000000000028e+01
1.099000000000000021e+01
-3.471000000000000085e+01
8.876999999999999602e+01
9.550000000000000711e+00
-1.628000000000000114e+01
-3.807999999999999829e+01
-1.757000000000000028e+01
7.556999999999999318e+01
-1.330000000000000071e+00
-2.889000000000000057e+01
6.790000000000000036e+00
-2.253000000000000114e+01
3.971999999999999886e+01
-2.342000000000000171e+01
-1.767999999999999972e+01
2.853999999999999915e+01
1.307000000000000028e+01
1.333000000000000007e+01
-3.943999999999999773e+01
1.593999999999999950e+01
3.688000000000000256e+01
4.169999999999999929e+00
-3.427000000000000313e+01
2.589999999999999858e+00
1.108900000000000006e+02
2.876999999999999957e+01
-2.719000000000000128e+01
4.147999999999999687e+01
9.070000000000000284e+00
1.840000000000000080e+00
-2.076999999999999957e+01
-3.270000000000000284e+01
-2.467000000000000171e+01
-1.751000000000000156e+01
-7.495000000000000284e+01
1.527999999999999936e+01
2.912000000000000099e+01
7.668000000000000682e+01
1.794000000000000128e+01
2.846999999999999886e+01
-7.740000000000000213e+00
5.485000000000000142e+01
-2.455999999999999872e+01
3.359999999999999876e+00
1.985999999999999943e+01
-1.700000000000000122e-01
-2.901000000000000156e+01
-2.728000000000000114e+01
-4.053999999999999915e+01
6.709999999999999432e+01
1.477999999999999936e+01
-2.816000000000000014e+01
-1.305000000000000071e+01
-1.696000000000000085e+01
3.840999999999999659e+01
2.026000000000000156e+01
-8.889000000000000057e+01
-7.509999999999999787e+00
1.115000000000000036e+01
5.578999999999999915e+01
-1.356000000000000050e+01
-1.467999999999999972e+01
-1.433100000000000023e+02
5.222999999999999687e+01
3.035999999999999943e+01
-2.735999999999999943e+01
-5.331000000000000227e+01
-2.073000000000000043e+01
2.050000000000000000e+01
-2.635999999999999943e+01
4.813000000000000256e+01
-4.192999999999999972e+01
8.250000000000000000e+00
5.661999999999999744e+01
-7.248000000000000398e+01
7.500000000000000000e+01
1.209999999999999964e+00
-1.957999999999999829e+01
-2.267000000000000171e+01
-6.485999999999999943e+01
9.265000000000000568e+01
-2.346999999999999886e+01
-4.767000000000000171e+01
5.325000000000000000e+01
4.980000000000000426e+00
4.103000000000000114e+01
-1.950000000000000000e+01
-3.680000000000000160e+00
6.469999999999999751e+00
2.651000000000000156e+01
-3.260999999999999943e+01
-3.596999999999999886e+01
4.410999999999999943e+01
-2.850000000000000000e+01
2.298999999999999844e+01
-3.632999999999999829e+01
-1.523000000000000043e+01
6.848999999999999488e+01
-7.001000000000000512e+01
-7.389999999999999680e+00
-1.316000000000000014e+01
-9.864000000000000057e+01
-6.517000000000000171e+01
-8.490999999999999659e+01
-1.263000000000000078e+01
-2.951000000000000156e+01
-3.535000000000000142e+01
-2.555999999999999872e+01
-3.689000000000000057e+01
-2.328999999999999915e+01
-4.522999999999999687e+01
2.169999999999999929e+00
4.886999999999999744e+01
-5.500000000000000444e-01
-4.729999999999999716e+01
-6.217999999999999972e+01
8.117000000000000171e+01
-8.000000000000000444e-01
-1.744000000000000128e+01
7.870000000000000284e+01
1.394999999999999929e+01
-8.223000000000000398e+01
1.172900000000000063e+02
-8.226999999999999602e+01
8.390999999999999659e+01
-7.137999999999999545e+01
1.082199999999999989e+02
-2.302400000000000091e+02
2.189000000000000057e+01
7.573999999999999488e+01
-8.537999999999999545e+01
1.305500000000000114e+02
-8.026000000000000512e+01
-9.817000000000000171e+01
6.881999999999999318e+01
-4.106000000000000227e+01
3.629999999999999716e+01
6.568999999999999773e+01
-5.386999999999999744e+01
5.525999999999999801e+01
-1.378799999999999955e+02
4.725999999999999801e+01
-1.188400000000000034e+02
-4.260999999999999943e+01
7.471999999999999886e+01
-2.898999999999999844e+01
2.304699999999999989e+02
1.689399999999999977e+02
-3.947999999999999687e+01
-5.490999999999999659e+01
1.434999999999999964e+01
5.639999999999999680e+00
4.320000000000000284e+00
-1.716000000000000014e+01
-1.239999999999999991e+00
3.064999999999999858e+01
4.878999999999999915e+01
-5.171999999999999886e+01
-2.455000000000000071e+01
-1.265000000000000036e+01
-5.693999999999999773e+01
4.307999999999999829e+01
5.592999999999999972e+01
-1.980999999999999872e+01
-1.860000000000000142e+01
-6.709000000000000341e+01
-8.000000000000000444e-01
8.242000000000000171e+01
-1.889999999999999858e+01
-2.330000000000000071e+01
3.778999999999999915e+01
-2.475000000000000000e+01
9.730000000000000426e+00
2.633999999999999986e+01
-4.179999999999999716e+01
-2.160000000000000142e+00
2.487999999999999901e+01
-1.735999999999999943e+01
-3.560000000000000142e+01
1.217999999999999972e+01
2.548999999999999844e+01
1.163000000000000078e+01
2.898999999999999844e+01
-1.004099999999999966e+02
-1.199999999999999956e+00
1.253700000000000045e+02
-8.818000000000000682e+01
-1.842999999999999972e+01
8.599999999999999645e+00
7.464000000000000057e+01
-3.692000000000000171e+01
1.294999999999999929e+01
-5.731000000000000227e+01
-3.123000000000000043e+01
2.119999999999999929e+01
-3.549000000000000199e+01
5.992000000000000171e+01
-9.320000000000000284e+00
-3.447999999999999687e+01
-2.337000000000000099e+01
-5.367000000000000171e+01
1.202000000000000028e+02
-2.017999999999999972e+01
-4.503999999999999915e+01
-1.570000000000000062e+00
1.280000000000000027e+00
7.845999999999999375e+01
-2.351000000000000156e+01
-2.421000000000000085e+01
-5.300000000000000266e-01
1.744999999999999929e+01
6.706000000000000227e+01
-7.014000000000000057e+01
-1.742999999999999972e+01
3.892000000000000171e+01
5.396999999999999886e+01
-6.712000000000000455e+01
-5.343999999999999773e+01
5.725999999999999801e+01
-1.857999999999999829e+01
8.340000000000000568e+01
2.560999999999999943e+01
-5.215999999999999659e+01
-7.935999999999999943e+01
1.233000000000000007e+01
1.423600000000000136e+02
-4.264999999999999858e+01
-1.008799999999999955e+02
5.734000000000000341e+01
5.803000000000000114e+01
-3.930000000000000160e+00
-1.006299999999999955e+02
2.980000000000000071e+01
-1.483999999999999986e+01
9.679000000000000625e+01
-4.600000000000000200e-01
-5.439999999999999858e+01
-9.593000000000000682e+01
-2.207000000000000028e+01
1.112600000000000051e+02
-7.484000000000000341e+01
3.570000000000000284e+01
2.519999999999999929e+01
-4.309999999999999609e+00
4.099999999999999645e+00
-1.436999999999999922e+01
-6.389000000000000057e+01
3.360000000000000142e+01
-5.503999999999999915e+01
3.346000000000000085e+01
-4.540000000000000036e+00
6.375999999999999801e+01
-3.746000000000000085e+01
-5.106000000000000227e+01
-1.939999999999999858e+01
-5.293999999999999773e+01
1.423799999999999955e+02
8.699999999999999956e-01
1.600000000000000033e-01
5.770000000000000284e+01
2.523999999999999844e+01
-1.042999999999999972e+01
-9.881999999999999318e+01
1.480000000000000071e+01
1.066000000000000014e+01
-7.376000000000000512e+01
2.210500000000000114e+02
-8.879999999999999716e+01
-4.400000000000000022e-01
1.432000000000000028e+01
8.939999999999999503e+00
-4.592000000000000171e+01
4.809999999999999609e+00
-1.056299999999999955e+02
2.555000000000000071e+01
9.006999999999999318e+01
-4.136999999999999744e+01
-4.239000000000000057e+01
-5.950999999999999801e+01
1.394499999999999886e+02
2.700000000000000178e+00
-5.004999999999999716e+01
-1.109800000000000040e+02
-1.071000000000000085e+01
-9.171999999999999886e+01
1.304099999999999966e+02
1.735000000000000142e+01
9.510999999999999943e+01
2.156699999999999875e+02
1.421000000000000085e+01
4.040000000000000036e+00
-3.625999999999999801e+01
3.600000000000000000e+01
-5.685999999999999943e+01
5.661999999999999744e+01
-4.282000000000000028e+01
6.465000000000000568e+01
2.272800000000000011e+02
-2.479900000000000091e+02
-1.225000000000000000e+01
1.860999999999999943e+01
1.338000000000000078e+01
2.112299999999999898e+02
-9.212000000000000455e+01
2.216000000000000014e+01
3.439999999999999947e+00
-1.057000000000000028e+01
1.185400000000000063e+02
-1.957999999999999829e+01
1.798000000000000043e+01
-1.799999999999999933e-01
1.812999999999999901e+01
1.596200000000000045e+02
-3.550999999999999801e+01
-2.244000000000000128e+01
4.207000000000000028e+01
-8.349999999999999645e+00
3.689999999999999947e+00
-5.629999999999999716e+01
1.221000000000000085e+01
4.330000000000000071e+00
2.630999999999999872e+01
-3.760000000000000142e+01
-1.500999999999999979e+01
3.915999999999999659e+01
-6.950000000000000178e+00
3.092999999999999972e+01
-2.176999999999999957e+01
-6.576999999999999602e+01
7.330000000000000071e+00
4.100000000000000000e+01
1.944999999999999929e+01
-1.785999999999999943e+01
-1.548000000000000043e+01
-3.752000000000000313e+01
3.214999999999999858e+01
1.156000000000000050e+01
-8.650000000000000000e+01
-3.717999999999999972e+01
1.432000000000000028e+01
4.857999999999999829e+01
1.477999999999999936e+01
-4.586999999999999744e+01
-1.698000000000000043e+01
1.041000000000000014e+01
-7.549999999999999822e+00
5.422999999999999687e+01
-3.814999999999999858e+01
-1.366000000000000014e+01
2.614000000000000057e+01
-3.384000000000000341e+01
1.564000000000000057e+01
6.956999999999999318e+01
-6.565000000000000568e+01
4.559999999999999609e+00
-1.070000000000000062e+00
-4.536999999999999744e+01
1.549199999999999875e+02
-2.644999999999999929e+01
-7.106999999999999318e+01
-5.764000000000000057e+01
1.177600000000000051e+02
-5.040999999999999659e+01
1.186999999999999922e+01
2.105000000000000071e+01
-3.114000000000000057e+01
-4.939999999999999858e+01
2.817000000000000171e+01
-1.679999999999999938e+00
-6.523000000000000398e+01
2.178999999999999915e+01
1.189999999999999947e+00
-7.637999999999999545e+01
9.548999999999999488e+01
-1.944000000000000128e+01
-3.645000000000000284e+01
3.634000000000000341e+01
-5.007999999999999829e+01
5.557999999999999829e+01
-1.089000000000000057e+01
-4.764000000000000057e+01
3.589999999999999858e+00
5.049000000000000199e+01
-5.929999999999999716e+00
5.520000000000000284e+01
-6.623000000000000398e+01
-3.488000000000000256e+01
-1.892999999999999972e+01
-3.603999999999999915e+01
1.212199999999999989e+02
2.478000000000000114e+01
-4.532000000000000028e+01
6.410000000000000142e+00
2.080999999999999872e+01
3.949000000000000199e+01
-2.042000000000000171e+01
-4.857999999999999829e+01
3.631000000000000227e+01
-4.202000000000000313e+01
-2.101999999999999957e+01
5.595000000000000284e+01
-2.144999999999999929e+01
-3.675000000000000000e+01
-1.712999999999999901e+01
2.882000000000000028e+01
6.021000000000000085e+01
-7.339999999999999858e+00
-7.362000000000000455e+01
-1.247000000000000064e+01
-1.108999999999999986e+01
3.037000000000000099e+01
6.642000000000000171e+01
-2.996000000000000085e+01
-3.889000000000000057e+01
-1.270300000000000011e+02
-3.667999999999999972e+01
-3.852000000000000313e+01
-8.331999999999999318e+01
-6.110000000000000320e+00
6.656000000000000227e+01
-2.036800000000000068e+02
4.161700000000000159e+02
-6.910999999999999943e+01
-2.932099999999999795e+02
1.153900000000000006e+02
-1.280999999999999943e+02
-2.876999999999999957e+01
2.860199999999999818e+02
-9.070000000000000284e+01
-4.217999999999999972e+01
2.928000000000000114e+01
1.683999999999999986e+01
-2.764999999999999858e+01
2.800000000000000266e-01
1.105000000000000071e+01
-1.066999999999999993e+01
3.930000000000000160e+00
9.499999999999999556e-01
-9.990000000000000213e+00
1.159999999999999964e+01
4.799999999999999822e-01
-1.241000000000000014e+01
1.209999999999999964e+01
6.700000000000000400e-01
-1.552999999999999936e+01
1.064000000000000057e+01
3.319999999999999840e+00
-1.022000000000000064e+01
6.740000000000000213e+00
8.039999999999999147e+00
-5.610000000000000320e+00
-7.339999999999999858e+00
8.199999999999999289e+00
-1.320000000000000062e+00
-1.159999999999999964e+01
1.108000000000000007e+01
1.919999999999999929e+00
-1.476999999999999957e+01
7.709999999999999964e+00
5.849999999999999645e+00
-9.900000000000000355e+00
-1.830000000000000071e+00
9.289999999999999147e+00
-3.029999999999999805e+00
-6.379999999999999893e+00
1.099000000000000021e+01
2.439999999999999947e+00
-7.570000000000000284e+00
9.099999999999999645e+00
1.689999999999999947e+00
-1.705999999999999872e+01
3.359999999999999876e+00
7.000000000000000666e-02
-5.690000000000000391e+00
1.515000000000000036e+01
9.130000000000000782e+00
-1.463000000000000078e+01
-1.559999999999999964e+01
-1.676000000000000156e+01
-5.650000000000000355e+00
5.682000000000000028e+01
-9.131000000000000227e+01
-5.469999999999999751e+00
-2.128000000000000114e+01
3.378000000000000114e+01
5.469999999999999751e+00
4.297999999999999687e+01
-1.293999999999999950e+01
-1.114000000000000057e+01
2.459999999999999964e+00
2.999999999999999889e-01
-1.057000000000000028e+01
6.650000000000000355e+00
3.686999999999999744e+01
1.671999999999999886e+01
-1.676999999999999957e+01
-4.064000000000000057e+01
1.300999999999999979e+01
-8.900000000000000355e+00
1.498000000000000043e+01
-3.615999999999999659e+01
3.393999999999999773e+01
9.730000000000000426e+00
2.669999999999999929e+00
-3.066000000000000014e+01
7.230000000000000426e+00
4.349000000000000199e+01
-1.121700000000000017e+02
-1.391000000000000014e+01
2.657000000000000028e+01
-5.360000000000000320e+00
1.228999999999999915e+01
1.085999999999999943e+01
-2.000000000000000000e+00
-1.194999999999999929e+01
4.209999999999999964e+00
-7.610000000000000320e+00
-1.561999999999999922e+01
2.414000000000000057e+01
7.740000000000000213e+00
-2.921999999999999886e+01
-1.325999999999999979e+01
5.297999999999999687e+01
-1.425000000000000000e+01
1.370000000000000107e+00
-5.106000000000000227e+01
-1.478999999999999915e+01
6.349000000000000199e+01
-4.764000000000000057e+01
-9.269999999999999574e+00
4.024000000000000199e+01
-4.121999999999999886e+01
5.057999999999999829e+01
-2.982999999999999829e+01
-4.202000000000000313e+01
2.271000000000000085e+01
-2.100000000000000089e+00
2.798999999999999844e+01
-5.495000000000000284e+01
-7.565999999999999659e+01
4.213000000000000256e+01
-6.040000000000000036e+00
-7.059000000000000341e+01
2.610000000000000142e+01
5.250000000000000000e+00
2.982999999999999829e+01
-9.119999999999999218e+00
-6.730000000000000426e+00
6.700000000000000000e+01
-7.982999999999999829e+01
-5.807000000000000028e+01
2.114000000000000057e+01
6.204999999999999716e+01
-1.646999999999999886e+01
-1.964999999999999858e+01
8.687999999999999545e+01
-4.057000000000000028e+01
-2.746000000000000085e+01
5.467999999999999972e+01
-1.348000000000000043e+01
-2.453000000000000114e+01
7.912999999999999545e+01
3.459000000000000341e+01
-1.098000000000000043e+01
-1.867000000000000171e+01
2.139000000000000057e+01
5.075999999999999801e+01
-1.329300000000000068e+02
-1.310999999999999943e+01
-1.125000000000000000e+01
-4.225999999999999801e+01
2.637999999999999901e+01
3.660000000000000142e+00
-6.929999999999999716e+00
-4.175000000000000000e+01
1.653999999999999915e+01
1.614000000000000057e+01
2.478999999999999915e+01
5.585999999999999943e+01
-1.191200000000000045e+02
-1.953000000000000114e+01
6.403000000000000114e+01
-1.333999999999999986e+01
5.313000000000000256e+01
2.339999999999999858e+00
-5.850999999999999801e+01
2.292000000000000171e+01
-3.239000000000000057e+01
5.103999999999999915e+01
1.921999999999999886e+01
-4.942000000000000171e+01
-1.042500000000000000e+02
-1.048000000000000043e+01
1.338899999999999864e+02
-7.353000000000000114e+01
-5.324000000000000199e+01
-1.252999999999999936e+01
3.979999999999999982e+00
1.463100000000000023e+02
-1.629799999999999898e+02
-3.335000000000000142e+01
1.633300000000000125e+02
-5.567000000000000171e+01
-1.062000000000000028e+02
-1.699499999999999886e+02
-3.736999999999999744e+01
-9.262000000000000455e+01
1.179800000000000040e+02
-1.343600000000000136e+02
1.867800000000000011e+02
1.372800000000000011e+02
3.342999999999999972e+01
-1.429900000000000091e+02
-7.735999999999999943e+01
2.536899999999999977e+02
4.017000000000000171e+01
-2.526999999999999957e+01
-5.790000000000000036e+00
-7.500000000000000000e-01
-3.020000000000000018e+00
-5.540000000000000036e+00
-3.910000000000000142e+00
4.190000000000000391e+00
-1.370000000000000107e+00
-1.131000000000000050e+01
5.519999999999999574e+00
4.500000000000000111e-01
-6.889999999999999680e+00
1.550000000000000044e+00
7.669999999999999929e+00
-3.720000000000000195e+00
-9.880000000000000782e+00
1.168999999999999950e+01
7.169999999999999929e+00
-1.239999999999999991e+00
-5.860000000000000320e+00
5.009999999999999787e+00
-4.099999999999999756e-01
-1.021000000000000085e+01
1.520000000000000018e+00
2.850000000000000089e+00
-3.729999999999999982e+00
5.500000000000000000e+00
1.241000000000000014e+01
6.030000000000000249e+00
2.451000000000000156e+01
1.454199999999999875e+02
-1.984000000000000057e+02
7.415999999999999659e+01
-8.668999999999999773e+01
-3.829999999999999716e+01
5.232999999999999829e+01
-1.042999999999999972e+01
3.870000000000000107e+00
-7.906000000000000227e+01
7.800000000000000266e-01
7.950000000000000178e+00
4.410999999999999943e+01
4.810999999999999943e+01
2.282999999999999829e+01
-3.550000000000000000e+01
-1.623000000000000043e+01
-4.400000000000000355e+00
-6.199999999999999956e-01
-4.353000000000000114e+01
2.333999999999999986e+01
-5.999999999999999778e-02
1.535999999999999943e+01
8.589999999999999858e+00
1.249000000000000021e+01
2.367000000000000171e+01
-1.486999999999999922e+01
-1.355000000000000071e+01
2.959999999999999964e+00
1.719999999999999973e+00
9.699999999999999289e+00
1.783999999999999986e+01
1.043999999999999950e+01
-8.089999999999999858e+00
-1.953999999999999915e+01
-2.269999999999999929e+01
4.482000000000000028e+01
1.011999999999999922e+01
-1.191999999999999993e+01
1.100000000000000006e-01
-6.870000000000000107e+00
1.659999999999999920e+00
-3.815999999999999659e+01
1.506000000000000050e+01
-5.232000000000000028e+01
-3.682000000000000028e+01
8.001000000000000512e+01
-3.743999999999999773e+01
5.149000000000000199e+01
-2.178999999999999915e+01
-5.467999999999999972e+01
5.078999999999999915e+01
-5.910000000000000142e+01
4.025000000000000000e+01
-2.383999999999999986e+01
-3.325000000000000000e+01
4.378999999999999915e+01
-2.241000000000000014e+01
4.652000000000000313e+01
-3.356000000000000227e+01
-4.639000000000000057e+01
-1.469999999999999973e+00
-1.000000000000000021e-02
-5.669999999999999929e+00
1.199399999999999977e+02
-8.185999999999999943e+01
-4.136999999999999744e+01
-1.610999999999999943e+01
-2.746999999999999886e+01
1.082900000000000063e+02
1.942000000000000171e+01
-5.335000000000000142e+01
-1.597000000000000064e+01
-2.757000000000000028e+01
5.796999999999999886e+01
1.182000000000000028e+01
-6.434000000000000341e+01
2.780000000000000071e+01
-9.039999999999999147e+00
5.936999999999999744e+01
-6.667000000000000171e+01
-5.595000000000000284e+01
2.185999999999999943e+01
-2.830999999999999872e+01
8.271999999999999886e+01
-3.126000000000000156e+01
-3.103000000000000114e+01
-1.136999999999999922e+01
-6.937999999999999545e+01
1.415200000000000102e+02
-1.381000000000000050e+01
-7.306999999999999318e+01
2.764999999999999858e+01
-1.448000000000000043e+01
1.906200000000000045e+02
-8.934999999999999432e+01
-2.467000000000000171e+01
3.409000000000000341e+01
1.489999999999999991e+00
9.065000000000000568e+01
-7.571999999999999886e+01
-3.745000000000000284e+01
4.609000000000000341e+01
3.656000000000000227e+01
-5.899999999999999689e-01
-8.873000000000000398e+01
-7.650000000000000355e+00
-2.346000000000000085e+01
5.315999999999999659e+01
8.285999999999999943e+01
-1.222500000000000000e+02
6.723999999999999488e+01
1.696999999999999886e+01
6.443000000000000682e+01
-3.563000000000000256e+01
-6.764000000000000057e+01
-1.015000000000000036e+01
-3.123000000000000043e+01
1.087300000000000040e+02
-6.256000000000000227e+01
2.341000000000000014e+01
3.800000000000000044e-01
5.046999999999999886e+01
2.282999999999999829e+01
-1.056299999999999955e+02
-2.799999999999999822e+00
-6.092000000000000171e+01
1.743899999999999864e+02
-1.072199999999999989e+02
-2.228000000000000114e+01
1.716000000000000014e+01
4.620000000000000284e+01
-7.800000000000000266e-01
-8.687999999999999545e+01
3.007999999999999829e+01
-2.037000000000000099e+01
1.341299999999999955e+02
-1.247300000000000040e+02
-2.107000000000000028e+01
-1.163000000000000078e+01
4.471000000000000085e+01
1.070100000000000051e+02
-9.565000000000000568e+01
-5.336999999999999744e+01
1.016999999999999993e+01
4.757000000000000028e+01
-1.000000000000000056e-01
-1.140999999999999943e+02
2.903000000000000114e+01
-3.463000000000000256e+01
7.714000000000000057e+01
3.239999999999999858e+01
-6.618000000000000682e+01
-4.150000000000000000e+01
-3.436999999999999744e+01
1.235199999999999960e+02
-6.014000000000000057e+01
-6.296000000000000085e+01
2.289999999999999858e+01
-3.180000000000000160e+00
1.889499999999999886e+02
-1.138900000000000006e+02
-6.743999999999999773e+01
3.972999999999999687e+01
4.742000000000000171e+01
1.664000000000000057e+01
-7.987000000000000455e+01
3.778999999999999915e+01
-2.303999999999999915e+01
5.843999999999999773e+01
4.046000000000000085e+01
-8.971999999999999886e+01
6.269999999999999574e+00
-1.826999999999999957e+01
8.637999999999999545e+01
2.120000000000000107e+00
-4.988000000000000256e+01
-3.392999999999999972e+01
-2.366000000000000014e+01
1.579399999999999977e+02
-6.092999999999999972e+01
-7.418000000000000682e+01
-6.330000000000000071e+00
9.140000000000000568e+00
1.029200000000000017e+02
-1.020400000000000063e+02
-4.020000000000000284e+01
8.830000000000000071e+00
3.749000000000000199e+01
4.057000000000000028e+01
-8.756000000000000227e+01
-1.477999999999999936e+01
-3.178999999999999915e+01
1.287700000000000102e+02
-8.999999999999999667e-02
-1.268199999999999932e+02
3.629999999999999893e+00
3.654999999999999716e+01
1.232600000000000051e+02
-1.001800000000000068e+02
-3.076000000000000156e+01
6.900000000000000355e+00
1.458999999999999986e+01
1.446000000000000085e+01
-5.504999999999999716e+01
-2.071999999999999886e+01
-5.456000000000000227e+01
2.118499999999999943e+02
-7.015000000000000568e+01
-8.332999999999999829e+01
5.779999999999999716e+01
3.105000000000000071e+01
9.765000000000000568e+01
-1.066400000000000006e+02
3.169000000000000128e+01
-4.939999999999999858e+01
2.557000000000000028e+01
2.203999999999999915e+01
-7.120000000000000284e+01
-6.700000000000000400e-01
-2.526000000000000156e+01
1.240300000000000011e+02
-5.046000000000000085e+01
-6.046999999999999886e+01
4.689000000000000057e+01
6.309000000000000341e+01
1.037900000000000063e+02
-8.929999999999999716e+01
-4.642000000000000171e+01
-2.839999999999999858e+01
3.390000000000000124e+00
-2.139000000000000057e+01
-7.479999999999999716e+01
-1.530000000000000071e+01
-1.803999999999999915e+01
1.581599999999999966e+02
-2.387000000000000099e+01
-7.634999999999999432e+01
1.039000000000000057e+01
-1.848999999999999844e+01
1.200100000000000051e+02
-6.890999999999999659e+01
-6.029999999999999716e+01
-6.019999999999999574e+00
-3.878999999999999915e+01
1.135600000000000023e+02
-7.500000000000000000e+01
1.376999999999999957e+01
5.171000000000000085e+01
2.366000000000000014e+01
1.231000000000000050e+01
-8.284000000000000341e+01
8.504999999999999716e+01
-3.110000000000000142e+01
4.779999999999999716e+01
-1.292999999999999972e+01
-5.897999999999999687e+01
1.231000000000000050e+01
-5.085999999999999943e+01
1.651299999999999955e+02
-5.053000000000000114e+01
6.973000000000000398e+01
-1.294499999999999886e+02
-8.709000000000000341e+01
-7.340999999999999659e+01
-5.049999999999999822e+00
-7.581999999999999318e+01
7.629999999999999893e+00
2.457999999999999829e+01
-1.116000000000000014e+01
3.478999999999999915e+01
-1.089500000000000028e+02
-2.219000000000000128e+01
3.777000000000000313e+01
-1.565999999999999943e+02
3.374000000000000199e+01
9.080000000000000071e+00
3.596000000000000085e+01
1.601000000000000156e+01
-1.141700000000000017e+02
-7.359000000000000341e+01
-2.248000000000000043e+01
1.476500000000000057e+02
-6.039999999999999858e+01
4.835000000000000142e+01
5.199000000000000199e+01
-4.650000000000000000e+01
-2.437100000000000080e+02
-1.022000000000000028e+02
4.321999999999999886e+01
-2.780999999999999872e+01
-8.943000000000000682e+01
3.007000000000000028e+01
7.769999999999999574e+00
-2.021999999999999886e+02
-2.611800000000000068e+02
2.279900000000000091e+02
7.115000000000000568e+01
3.814000000000000057e+01
1.863700000000000045e+02
-2.321399999999999864e+02
1.292999999999999972e+01
2.583899999999999864e+02
2.601999999999999957e+01
-8.075000000000000000e+01
-7.829000000000000625e+01
-2.432999999999999829e+01
3.220000000000000284e+01
1.313000000000000078e+01
-1.116999999999999993e+01
1.050000000000000000e+01
-6.420999999999999375e+01
1.140300000000000011e+02
-1.049800000000000040e+02
6.750000000000000000e+01
2.071100000000000136e+02
-8.240000000000000213e+00
-1.752800000000000011e+02
4.832000000000000028e+01
-7.331999999999999318e+01
-4.364999999999999858e+01
-1.773999999999999844e+01
2.573999999999999844e+01
-1.817999999999999972e+01
3.008999999999999986e+01
-1.164899999999999949e+02
-2.021999999999999886e+01
3.286999999999999744e+01
4.561999999999999744e+01
2.646999999999999886e+01
-1.809300000000000068e+02
-6.881000000000000227e+01
-1.574900000000000091e+02
9.178000000000000114e+01
1.633999999999999986e+01
1.693199999999999932e+02
1.099000000000000021e+01
8.607999999999999829e+01
-6.665999999999999659e+01
5.907000000000000028e+01
-2.130000000000000071e+01
-5.303000000000000114e+01
5.260000000000000142e+01
1.358000000000000007e+01
7.435999999999999943e+01
-8.114000000000000057e+01
-1.850000000000000000e+01
-5.695000000000000284e+01
1.269800000000000040e+02
-6.167000000000000171e+01
-7.667000000000000171e+01
6.878000000000000114e+01
-2.933999999999999986e+01
1.071299999999999955e+02
-1.274099999999999966e+02
5.571999999999999886e+01
-3.222999999999999687e+01
6.631999999999999318e+01
-3.271000000000000085e+01
-9.318999999999999773e+01
6.559000000000000341e+01
4.040000000000000036e+00
8.934999999999999432e+01
-1.257699999999999960e+02
4.360999999999999943e+01
-2.532999999999999829e+01
5.800000000000000000e+01
1.648000000000000043e+01
-9.328000000000000114e+01
7.700000000000000178e+00
-6.456000000000000227e+01
1.660300000000000011e+02
-1.232199999999999989e+02
1.753999999999999915e+01
3.452000000000000313e+01
2.842000000000000171e+01
8.390999999999999659e+01
-1.166200000000000045e+02
-2.378999999999999915e+01
-5.728000000000000114e+01
1.723400000000000034e+02
-1.216299999999999955e+02
2.473000000000000043e+01
-2.033999999999999986e+01
1.015900000000000034e+02
2.369999999999999929e+01
-6.153999999999999915e+01
-3.482000000000000028e+01
-4.679999999999999716e+00
1.492500000000000000e+02
-1.100600000000000023e+02
-6.431000000000000227e+01
1.994000000000000128e+01
2.021699999999999875e+02
-1.112999999999999972e+02
-6.765000000000000568e+01
-5.324000000000000199e+01
4.543999999999999773e+01
8.537000000000000455e+01
-1.443999999999999950e+01
1.399999999999999911e+00
-3.640000000000000124e+00
-2.217000000000000171e+01
2.137000000000000099e+01
3.772999999999999687e+01
5.330000000000000071e+00
3.453999999999999915e+01
-8.285999999999999943e+01
-4.825000000000000000e+01
-2.463199999999999932e+02
2.259499999999999886e+02
9.929000000000000625e+01
-6.951999999999999602e+01
-5.086999999999999744e+01
7.870000000000000107e+00
6.760999999999999943e+01
-2.202899999999999920e+02
3.322999999999999687e+01
1.656999999999999886e+02
-4.728999999999999915e+01
-1.962299999999999898e+02
7.871999999999999886e+01
1.651000000000000156e+01
2.096999999999999886e+01
-9.209000000000000341e+01
-2.201000000000000156e+01
9.504000000000000625e+01
-1.742999999999999972e+01
1.669000000000000128e+01
1.105000000000000071e+01
2.311200000000000045e+02
-9.340999999999999659e+01
1.704499999999999886e+02
-1.345500000000000114e+02
-1.349399999999999977e+02
2.301599999999999966e+02
2.380300000000000011e+02
-2.696000000000000085e+01
8.210000000000000853e+00
2.841000000000000014e+01
-1.389999999999999902e+00
9.765000000000000568e+01
3.660000000000000142e+00
-4.910000000000000142e+01
6.396000000000000085e+01
-2.017000000000000171e+01
-1.801999999999999957e+01
-1.006599999999999966e+02
6.196999999999999886e+01
-1.106000000000000050e+01
2.576999999999999957e+01
6.831999999999999318e+01
-5.100000000000000000e+01
8.857999999999999829e+01
-8.215999999999999659e+01
-2.367999999999999972e+01
3.359999999999999876e+00
2.725000000000000000e+01
-3.892000000000000171e+01
-6.637000000000000455e+01
-1.291999999999999993e+01
-1.267500000000000000e+02
-6.709999999999999964e+00
-1.397700000000000102e+02
1.009300000000000068e+02
-2.008000000000000114e+02
2.505999999999999872e+01
-4.038000000000000256e+01
-5.435999999999999943e+01
5.899999999999999689e-01
9.334000000000000341e+01
4.750000000000000000e+01
-6.790000000000000036e+00
-6.147999999999999687e+01
-1.669999999999999929e+01
-2.373000000000000043e+01
3.542000000000000171e+01
5.196000000000000085e+01
7.015000000000000568e+01
-2.376999999999999957e+01
6.620000000000000107e+00
5.688000000000000256e+01
6.082999999999999829e+01
-1.013799999999999955e+02
1.106400000000000006e+02
4.324000000000000199e+01
-5.860000000000000320e+00
-2.187400000000000091e+02
3.153999999999999915e+01
5.617000000000000171e+01
4.650999999999999801e+01
-1.300999999999999979e+01
3.087000000000000099e+01
1.463000000000000078e+01
5.115999999999999659e+01
-4.140999999999999659e+01
5.879999999999999893e+00
1.526999999999999957e+01
-6.171000000000000085e+01
-1.596000000000000085e+01
6.431000000000000227e+01
-8.599999999999999867e-01
-7.109999999999999432e+01
-3.364999999999999858e+01
1.306500000000000057e+02
-3.295000000000000284e+01
1.848999999999999844e+01
-3.553999999999999915e+01
2.275000000000000000e+01
-1.137900000000000063e+02
3.008999999999999986e+01
-1.247900000000000063e+02
5.196000000000000085e+01
3.714000000000000057e+01
1.648999999999999844e+01
-6.953000000000000114e+01
1.169099999999999966e+02
4.489000000000000057e+01
4.621999999999999886e+01
-3.803000000000000114e+01
-1.616000000000000014e+01
-8.330000000000000071e+00
5.492000000000000171e+01
3.704999999999999716e+01
1.016099999999999994e+02
-2.592999999999999972e+01
5.092999999999999972e+01
5.436999999999999744e+01
6.045000000000000284e+01
-1.149200000000000017e+02
-3.450000000000000178e+00
9.681999999999999318e+01
4.067999999999999972e+01
-2.088400000000000034e+02
-2.370000000000000107e+00
1.921599999999999966e+02
5.857999999999999829e+01
-3.711999999999999744e+01
-2.567999999999999972e+01
1.071099999999999994e+02
1.356000000000000050e+01
-3.657000000000000028e+01
1.160999999999999943e+01
-8.609999999999999432e+00
-2.421000000000000085e+01
3.529999999999999716e+01
1.284999999999999964e+01
1.716000000000000014e+01
-1.123799999999999955e+02
8.029999999999999361e+00
2.555999999999999872e+01
-2.414199999999999875e+02
4.464999999999999858e+01
-1.150000000000000000e+01
-3.830000000000000071e+00
-7.437999999999999545e+01
1.124000000000000021e+01
7.215999999999999659e+01
1.003900000000000006e+02
-1.871699999999999875e+02
3.736999999999999744e+01
-1.652500000000000000e+02
1.060499999999999972e+02
7.973000000000000398e+01
-2.185900000000000034e+02
2.282000000000000028e+01
5.457000000000000028e+01
1.573700000000000045e+02
-3.373700000000000045e+02
1.597199999999999989e+02
-1.236099999999999994e+02
1.214200000000000017e+02
-2.251000000000000156e+01
1.198000000000000043e+01
6.762000000000000455e+01
-3.236999999999999744e+01
-1.712999999999999901e+01
7.389999999999999680e+00
1.789000000000000057e+01
3.700000000000000178e+00
2.562999999999999901e+01
4.761999999999999744e+01
2.479999999999999982e+00
1.051999999999999957e+01
1.158299999999999983e+02
2.435699999999999932e+02
-2.363899999999999864e+02
-4.539300000000000068e+02
1.885000000000000000e+02
1.487800000000000011e+02
2.487999999999999901e+01
7.125000000000000000e+01
-3.892000000000000171e+01
7.764000000000000057e+01
-6.140999999999999659e+01
2.153999999999999915e+01
3.095699999999999932e+02
-1.107600000000000051e+02
-1.318400000000000034e+02
5.289999999999999858e+01
5.320000000000000284e+01
7.745999999999999375e+01
9.660000000000000142e+00
8.143999999999999773e+01
5.760999999999999943e+01
-7.173999999999999488e+01
-2.076999999999999957e+01
-4.311999999999999744e+01
3.352000000000000313e+01
-1.184000000000000057e+02
2.239000000000000057e+01
-1.455399999999999920e+02
1.356100000000000136e+02
-3.384000000000000341e+01
8.330000000000000071e+00
6.700000000000000178e+00
6.568999999999999773e+01
-5.290000000000000036e+00
-2.473999999999999844e+01
-7.820999999999999375e+01
1.448000000000000043e+01
8.834000000000000341e+01
-1.033100000000000023e+02
8.810999999999999943e+01
-9.410000000000000142e+00
5.892999999999999972e+01
2.151999999999999957e+01
4.760000000000000142e+01
7.142000000000000171e+01
6.862999999999999545e+01
-7.118999999999999773e+01
5.709999999999999964e+00
1.377899999999999920e+02
1.228299999999999983e+02
2.894999999999999929e+01
-7.920000000000000284e+01
7.765999999999999659e+01
6.687000000000000455e+01
-1.915800000000000125e+02
6.339000000000000057e+01
1.046500000000000057e+02
1.094699999999999989e+02
1.058799999999999955e+02
-2.266000000000000014e+01
-4.539000000000000057e+01
2.435000000000000142e+01
6.912999999999999545e+01
-4.392999999999999972e+01
-1.299399999999999977e+02
-2.735999999999999943e+01
1.240000000000000036e+01
-6.136999999999999744e+01
6.253999999999999915e+01
-9.964000000000000057e+01
1.641599999999999966e+02
-1.009800000000000040e+02
-1.118999999999999950e+01
-6.773000000000000398e+01
1.247800000000000011e+02
-1.302999999999999936e+01
8.007999999999999829e+01
1.175999999999999979e+01
8.000000000000000167e-02
3.482999999999999829e+01
-5.752000000000000313e+01
-1.318999999999999950e+01
6.415999999999999659e+01
7.173000000000000398e+01
-4.927000000000000313e+01
-6.157000000000000028e+01
7.500000000000000000e+00
2.078999999999999915e+01
8.895000000000000284e+01
-1.258000000000000007e+01
-3.490000000000000213e+00
2.162000000000000099e+01
-2.985000000000000142e+01
3.607999999999999829e+01
-5.761999999999999744e+01
-5.267000000000000171e+01
5.230000000000000426e+00
-2.150000000000000000e+01
2.569000000000000128e+01
-4.671999999999999886e+01
-5.613000000000000256e+01
7.280000000000000249e+00
2.664999999999999858e+01
4.775000000000000000e+01
1.590000000000000080e+00
-9.695000000000000284e+01
1.846999999999999886e+01
-2.871000000000000085e+01
1.680000000000000071e+01
1.216000000000000014e+01
-2.878999999999999915e+01
-4.479999999999999716e+01
6.439000000000000057e+01
6.898000000000000398e+01
6.434999999999999432e+01
1.051400000000000006e+02
-2.056699999999999875e+02
3.927000000000000313e+01
6.709000000000000341e+01
-3.346999999999999886e+01
7.387999999999999545e+01
-2.709999999999999964e+00
-1.242999999999999972e+01
2.317999999999999972e+01
-6.297999999999999687e+01
7.110999999999999943e+01
-1.492999999999999972e+01
-2.548999999999999844e+01
-4.134000000000000341e+01
2.223000000000000043e+01
4.890999999999999659e+01
-3.638000000000000256e+01
-4.545000000000000284e+01
-1.465600000000000023e+02
9.099999999999999645e+00
-1.564000000000000057e+01
-1.746999999999999886e+01
-2.533999999999999986e+01
-3.430000000000000160e+00
-6.049999999999999822e+00
1.091299999999999955e+02
-1.973000000000000043e+01
-2.107999999999999829e+01
1.953999999999999915e+01
2.532999999999999829e+01
1.141299999999999955e+02
-7.709999999999999432e+01
-3.010999999999999943e+01
3.567000000000000171e+01
7.584000000000000341e+01
-2.316000000000000014e+01
-1.066500000000000057e+02
5.036999999999999744e+01
-5.471000000000000085e+01
9.473000000000000398e+01
-3.803000000000000114e+01
-1.344999999999999929e+01
-1.440300000000000011e+02
-3.556000000000000227e+01
1.470800000000000125e+02
-6.000000000000000000e+00
-9.915000000000000568e+01
-1.094999999999999929e+01
3.517000000000000171e+01
1.980800000000000125e+02
-1.173299999999999983e+02
-6.046000000000000085e+01
6.170000000000000284e+01
4.160999999999999943e+01
1.178299999999999983e+02
-1.073799999999999955e+02
-6.215999999999999659e+01
7.737999999999999545e+01
6.804999999999999716e+01
8.620999999999999375e+01
-1.803199999999999932e+02
-1.581000000000000050e+01
9.095999999999999375e+01
1.071099999999999994e+02
-5.971999999999999886e+01
3.217000000000000171e+01
-1.386999999999999922e+01
-2.575000000000000000e+02
5.317000000000000171e+01
2.173000000000000114e+02
-1.463700000000000045e+02
-4.775000000000000000e+01
3.385999999999999943e+01
4.950000000000000000e+01
1.748700000000000045e+02
-1.145699999999999932e+02
-1.143299999999999983e+02
8.081000000000000227e+01
8.710999999999999943e+01
-2.180000000000000160e+00
-1.014300000000000068e+02
5.320000000000000284e+00
3.360999999999999943e+01
6.139999999999999858e+01
-2.521999999999999886e+01
-6.751000000000000512e+01
3.171000000000000085e+01
4.982000000000000028e+01
7.809999999999999432e+01
1.283000000000000007e+01
-2.798000000000000043e+01
-3.119999999999999929e+01
9.279999999999999361e+00
4.896999999999999886e+01
-3.728000000000000114e+01
-5.132000000000000028e+01
1.962000000000000099e+01
3.025000000000000000e+01
2.730999999999999872e+01
9.439999999999999503e+00
-6.353000000000000114e+01
-2.082999999999999829e+01
-1.508999999999999986e+01
6.230000000000000426e+00
1.244300000000000068e+02
-4.546000000000000085e+01
-3.789000000000000057e+01
2.441000000000000014e+01
3.496000000000000085e+01
8.740999999999999659e+01
3.101999999999999957e+01
-1.288000000000000114e+02
-4.546000000000000085e+01
-4.213000000000000256e+01
2.748000000000000043e+01
2.983999999999999986e+01
-2.539999999999999858e+01
-1.531000000000000050e+01
-3.503000000000000114e+01
2.789999999999999858e+01
2.299999999999999822e+00
-1.073000000000000043e+01
-4.199999999999999845e-01
-1.826999999999999957e+01
2.410000000000000142e+00
1.049399999999999977e+02
-7.762000000000000455e+01
-1.369600000000000080e+02
-8.400000000000000355e+00
1.466000000000000014e+01
2.039999999999999858e+01
8.021999999999999886e+01
-2.373000000000000043e+01
4.950000000000000178e+00
-1.492999999999999972e+01
-1.520000000000000018e+00
-1.976999999999999957e+01
3.053000000000000114e+01
3.660000000000000142e+01
1.250100000000000051e+02
1.413000000000000078e+01
-2.627300000000000182e+02
3.474800000000000182e+02
-2.393400000000000034e+02
1.277999999999999936e+01
5.075999999999999801e+01
-2.446999999999999886e+01
-1.052500000000000000e+02
4.607000000000000028e+01
2.592599999999999909e+02
-8.206999999999999318e+01
-3.617999999999999972e+01
5.599999999999999645e+00
9.730000000000000426e+00
-4.042999999999999972e+01
5.254999999999999716e+01
-3.632000000000000028e+01
-5.463000000000000256e+01
-3.818999999999999773e+01
1.013000000000000078e+01
-8.904999999999999716e+01
-2.553000000000000114e+01
9.480000000000000426e+00
6.976999999999999602e+01
9.615999999999999659e+01
-1.282199999999999989e+02
2.367999999999999972e+01
7.764000000000000057e+01
2.964000000000000057e+01
1.630000000000000071e+01
3.518999999999999773e+01
-1.059399999999999977e+02
-2.078999999999999915e+01
4.104999999999999716e+01
1.533000000000000007e+01
-7.589999999999999858e+00
-2.330000000000000071e+00
2.037999999999999901e+01
-2.740000000000000213e+00
-2.501999999999999957e+01
-2.353999999999999915e+01
1.225999999999999979e+01
-4.585999999999999943e+01
3.782999999999999829e+01
-3.278000000000000114e+01
-2.976000000000000156e+01
1.228999999999999915e+01
-3.807000000000000028e+01
5.885000000000000142e+01
-3.459000000000000341e+01
-1.742000000000000171e+01
-4.829999999999999716e+01
1.288899999999999864e+02
1.548000000000000043e+01
-1.105000000000000071e+01
-1.841000000000000014e+01
4.446999999999999886e+01
-1.243999999999999950e+01
1.179500000000000028e+02
-9.960000000000000853e+00
-7.459999999999999432e+01
1.598000000000000043e+01
4.127000000000000313e+01
-7.281999999999999318e+01
1.989000000000000057e+01
-7.195999999999999375e+01
1.929999999999999938e+00
7.890000000000000568e+01
3.914000000000000057e+01
6.998000000000000398e+01
-1.379799999999999898e+02
-2.719999999999999929e+01
4.299999999999999822e+00
8.837000000000000455e+01
-1.112300000000000040e+02
3.890000000000000124e+00
2.517999999999999972e+01
4.060000000000000142e+01
7.064000000000000057e+01
-1.100199999999999960e+02
5.089000000000000057e+01
-1.365000000000000036e+01
7.609999999999999432e+01
-5.896999999999999886e+01
-8.748999999999999488e+01
4.685999999999999943e+01
2.658999999999999986e+01
1.708999999999999986e+01
1.469999999999999973e+00
-1.926999999999999886e+02
-1.845000000000000000e+02
2.175600000000000023e+02
1.078700000000000045e+02
-9.769999999999999574e+00
-2.076200000000000045e+02
9.898000000000000398e+01
2.371000000000000085e+01
-1.331399999999999864e+02
6.849999999999999645e+00
-2.862000000000000099e+01
9.829999999999999716e+01
-6.125000000000000000e+01
-7.587000000000000455e+01
2.253999999999999915e+01
5.517999999999999972e+01
9.829999999999999716e+01
-1.087800000000000011e+02
2.480999999999999872e+01
-4.425999999999999801e+01
1.034599999999999937e+02
-7.334999999999999432e+01
-4.142999999999999972e+01
1.066000000000000014e+01
7.000000000000000000e+00
4.871000000000000085e+01
-1.010600000000000023e+02
2.342000000000000171e+01
-3.589000000000000057e+01
9.034999999999999432e+01
-3.370000000000000107e+00
-1.978999999999999915e+01
-1.737999999999999901e+01
3.051999999999999957e+01
3.984000000000000341e+01
-1.320399999999999920e+02
4.988000000000000256e+01
-6.067999999999999972e+01
7.175000000000000000e+01
4.699000000000000199e+01
-9.145000000000000284e+01
4.596000000000000085e+01
8.378000000000000114e+01
-2.329199999999999875e+02
4.803999999999999915e+01
1.102699999999999960e+02
-7.393000000000000682e+01
-1.771999999999999886e+01
1.076999999999999957e+01
-7.309999999999999609e+00
1.673000000000000043e+01
-3.116000000000000014e+01
-1.062199999999999989e+02
7.828000000000000114e+01
-3.399000000000000199e+01
-5.456000000000000227e+01
1.339399999999999977e+02
-2.060000000000000053e+00
-2.209999999999999964e+00
-1.260900000000000034e+02
-1.041400000000000006e+02
2.781800000000000068e+02
8.307999999999999829e+01
3.715999999999999659e+01
-3.580000000000000071e+00
-1.651000000000000156e+01
-9.684999999999999432e+01
-1.635000000000000000e+02
1.907000000000000028e+01
1.188499999999999943e+02
-1.615699999999999932e+02
1.522299999999999898e+02
-7.379999999999999716e+01
2.348000000000000043e+01
6.439000000000000057e+01
-6.431999999999999318e+01
-2.917999999999999972e+01
-3.117999999999999972e+01
6.929999999999999716e+00
3.520000000000000284e+01
-1.190000000000000036e+01
-5.735999999999999943e+01
-1.500000000000000000e+02
1.453000000000000114e+02
1.384999999999999964e+01
4.759000000000000341e+01
2.832000000000000028e+01
-2.128000000000000114e+01
-1.073000000000000043e+01
-7.820000000000000284e+00
-2.075000000000000000e+01
7.809999999999999609e+00
4.868999999999999773e+01
7.540000000000000036e+00
6.589999999999999858e+00
5.322999999999999687e+01
-1.410099999999999909e+02
1.289399999999999977e+02
3.428999999999999915e+01
1.252999999999999936e+01
-6.701000000000000512e+01
-3.328000000000000114e+01
8.245999999999999375e+01
-6.695000000000000284e+01
1.490000000000000000e+02
1.524000000000000021e+01
2.012000000000000099e+01
-2.189399999999999977e+02
2.720000000000000195e+00
4.625000000000000000e+01
-5.320000000000000284e+00
-1.582000000000000028e+01
-6.910999999999999943e+01
8.381000000000000227e+01
-9.198000000000000398e+01
-3.990000000000000213e+00
9.915000000000000568e+01
4.374000000000000199e+01
-8.512999999999999545e+01
-1.671000000000000085e+01
-5.117999999999999972e+01
-1.306800000000000068e+02
8.079999999999999716e+01
1.624399999999999977e+02
-1.911800000000000068e+02
6.239000000000000057e+01
6.840000000000000568e+01
-1.571100000000000136e+02
1.120799999999999983e+02
-2.910999999999999943e+01
-4.309999999999999609e+00
1.987899999999999920e+02
-9.890000000000000568e+00
9.235999999999999943e+01
8.618999999999999773e+01
-1.118799999999999955e+02
1.046899999999999977e+02
4.370000000000000107e+00
-2.479999999999999982e+00
1.181599999999999966e+02
-1.110400000000000063e+02
6.042000000000000171e+01
-4.259000000000000341e+01
-1.691000000000000014e+01
1.258999999999999986e+01
1.358999999999999986e+01
-2.589999999999999858e+01
-6.904999999999999716e+01
7.139999999999999680e+00
1.594699999999999989e+02
5.481000000000000227e+01
-8.410000000000000142e+00
-4.492999999999999972e+01
-2.016000000000000014e+01
1.942999999999999972e+01
-3.685299999999999727e+02
2.369300000000000068e+02
-1.876599999999999966e+02
6.275999999999999801e+01
-5.085999999999999943e+01
7.737999999999999545e+01
6.393999999999999773e+01
-5.889000000000000057e+01
-2.585000000000000142e+01
8.087999999999999545e+01
-1.394999999999999929e+01
-2.062999999999999901e+01
3.135000000000000142e+01
-5.275000000000000000e+01
-2.137599999999999909e+02
3.740000000000000213e+00
-1.770000000000000018e+00
1.408499999999999943e+02
-8.145999999999999375e+01
-3.339999999999999858e+00
-1.978999999999999915e+01
-7.199999999999999734e-01
9.281000000000000227e+01
2.317000000000000171e+01
-8.468000000000000682e+01
-3.557999999999999829e+01
-6.543999999999999773e+01
2.049399999999999977e+02
1.143700000000000045e+02
-7.190000000000000568e+01
-4.390999999999999659e+01
-3.357999999999999829e+01
-7.865000000000000568e+01
7.693000000000000682e+01
-2.706499999999999773e+02
2.368499999999999943e+02
8.379999999999999716e+01
-1.008700000000000045e+02
-4.169999999999999929e+00
1.272000000000000064e+01
6.389999999999999858e+01
-4.942000000000000171e+01
-1.326800000000000068e+02
1.080499999999999972e+02
-6.948000000000000398e+01
2.041000000000000014e+01
-3.859000000000000341e+01
-8.512000000000000455e+01
-3.377000000000000313e+01
3.914999999999999858e+01
1.158000000000000007e+01
1.428199999999999932e+02
-4.686999999999999744e+01
1.757899999999999920e+02
-1.544199999999999875e+02
2.339199999999999875e+02
-1.684000000000000057e+02
5.870000000000000107e+00
8.512000000000000455e+01
1.199999999999999956e+00
-2.516000000000000014e+01
2.426999999999999957e+01
5.860000000000000320e+00
6.328999999999999915e+01
-5.979999999999999716e+01
4.660000000000000142e+01
-1.767000000000000171e+01
6.259999999999999787e+00
2.037000000000000099e+01
-5.484000000000000341e+01
2.079000000000000057e+02
-5.957999999999999829e+01
-3.557999999999999829e+01
4.110000000000000142e+01
-2.500000000000000000e+00
-7.530000000000000249e+00
5.632000000000000028e+01
4.554999999999999716e+01
-8.520999999999999375e+01
2.748999999999999844e+01
-2.044999999999999929e+01
9.792000000000000171e+01
-5.657999999999999829e+01
-7.212000000000000455e+01
5.635000000000000142e+01
6.378000000000000114e+01
3.511100000000000136e+02
-4.849000000000000199e+01
-2.309900000000000091e+02
-1.940600000000000023e+02
-5.920000000000000284e+01
4.008799999999999955e+02
1.950399999999999920e+02
7.326999999999999602e+01
-2.683999999999999986e+01
-5.314999999999999858e+01
5.956000000000000227e+01
-1.746999999999999886e+02
-4.442999999999999972e+01
1.547400000000000091e+02
1.637000000000000099e+01
-4.992000000000000171e+01
-5.542000000000000171e+01
5.482000000000000028e+01
-2.330000000000000071e+01
-1.006299999999999955e+02
1.733999999999999986e+01
-3.171000000000000085e+01
-4.620000000000000107e+00
9.076000000000000512e+01
3.438000000000000256e+01
-3.663000000000000256e+01
9.034999999999999432e+01
-1.925300000000000011e+02
-1.951000000000000156e+01
1.388000000000000078e+01
-3.843999999999999773e+01
-5.478999999999999915e+01
1.186099999999999994e+02
7.469999999999999751e+00
-4.427000000000000313e+01
2.339000000000000057e+01
-4.330000000000000071e+00
-2.435000000000000142e+01
-2.833999999999999986e+01
8.820999999999999375e+01
4.657000000000000028e+01
2.023999999999999844e+01
-8.812999999999999545e+01
-2.580000000000000071e+00
-7.667000000000000171e+01
-8.501000000000000512e+01
2.240000000000000000e+02
1.193599999999999994e+02
-7.775000000000000000e+01
3.603999999999999915e+01
2.160000000000000000e+02
-1.804699999999999989e+02
4.942999999999999972e+01
-6.157999999999999829e+01
-6.803000000000000114e+01
2.882000000000000028e+01
1.896999999999999886e+01
-9.679999999999999716e+00
1.003999999999999915e+01
-4.049999999999999822e+00
8.199999999999999512e-01
-3.176000000000000156e+01
3.499000000000000199e+01
1.000000000000000056e-01
-5.360000000000000320e+00
3.346000000000000085e+01
3.400000000000000244e-01
1.871999999999999886e+01
-5.324000000000000199e+01
-1.090499999999999972e+02
7.568000000000000682e+01
2.150099999999999909e+02
7.406000000000000227e+01
-2.808399999999999750e+02
7.004000000000000625e+01
-2.539900000000000091e+02
5.134000000000000341e+01
1.653700000000000045e+02
8.609999999999999432e+00
-2.726000000000000156e+01
3.342000000000000171e+01
-6.448999999999999488e+01
-5.942000000000000171e+01
6.598999999999999488e+01
8.114000000000000057e+01
8.462000000000000455e+01
-2.257500000000000000e+02
-8.332999999999999829e+01
-1.695500000000000114e+02
2.153000000000000114e+02
2.399000000000000057e+02
-1.792500000000000000e+02
-1.992299999999999898e+02
9.200000000000000000e+01
-8.225000000000000000e+01
3.549000000000000199e+01
3.757000000000000028e+01
-4.074000000000000199e+01
5.347999999999999687e+01
-5.863000000000000256e+01
1.465000000000000036e+01
7.632999999999999829e+01
4.646999999999999886e+01
-2.976999999999999957e+01
6.404000000000000625e+01
-2.594000000000000128e+01
7.634999999999999432e+01
5.999999999999999778e-01
-5.542000000000000171e+01
2.970000000000000195e+00
4.524000000000000199e+01
5.567000000000000171e+01
-1.864999999999999858e+01
-6.315999999999999659e+01
-3.182999999999999829e+01
1.583999999999999986e+01
5.711999999999999744e+01
3.087999999999999901e+01
2.705000000000000071e+01
-1.840000000000000080e+00
7.389999999999999680e+00
1.819999999999999929e+01
2.391000000000000014e+01
-2.203000000000000114e+01
1.158100000000000023e+02
-2.658399999999999750e+02
1.146500000000000057e+02
-6.589999999999999858e+00
-2.778000000000000114e+01
-1.178100000000000023e+02
-9.020999999999999375e+01
2.331800000000000068e+02
1.825699999999999932e+02
-2.865099999999999909e+02
-1.222199999999999989e+02
1.737199999999999989e+02
2.517800000000000011e+02
-4.436999999999999744e+01
1.118100000000000023e+02
-2.000000000000000111e-01
-3.971999999999999886e+01
-5.361999999999999744e+01
5.727000000000000313e+01
-4.065999999999999659e+01
-5.092000000000000171e+01
2.951000000000000156e+01
-2.939999999999999947e+00
-9.509999999999999787e+00
4.972999999999999687e+01
-1.171000000000000085e+01
-4.900000000000000355e+00
2.160999999999999943e+01
6.935999999999999943e+01
9.096999999999999886e+01
3.496999999999999886e+01
-2.000399999999999920e+02
-2.914700000000000273e+02
1.701500000000000057e+02
6.453000000000000114e+01
2.526000000000000156e+01
-2.451999999999999957e+01
-1.375000000000000000e+01
-4.349999999999999645e+00
4.252000000000000313e+01
-3.506000000000000227e+01
-1.637999999999999901e+01
-2.030999999999999872e+01
1.923700000000000045e+02
-1.641899999999999977e+02
-7.000000000000000000e+01
4.334000000000000341e+01
2.751999999999999957e+01
1.782999999999999829e+01
4.009999999999999787e+00
9.960000000000000853e+00
3.682999999999999829e+01
-5.404999999999999716e+01
9.631000000000000227e+01
-5.067999999999999972e+01
3.010999999999999943e+01
1.457500000000000000e+02
-8.428000000000000114e+01
-1.318499999999999943e+02
1.191999999999999993e+01
3.829999999999999716e+01
-7.034000000000000341e+01
6.740000000000000213e+00
5.993999999999999773e+01
5.629999999999999893e+00
3.153999999999999915e+01
2.328999999999999915e+01
-2.876999999999999957e+01
3.482000000000000028e+01
-5.349999999999999645e+00
3.191000000000000014e+01
1.801999999999999957e+01
6.254999999999999716e+01
-1.059200000000000017e+02
3.053999999999999915e+01
7.990000000000000568e+01
1.788700000000000045e+02
-5.228000000000000114e+01
4.725999999999999801e+01
3.083999999999999986e+01
-6.607999999999999829e+01
3.629999999999999716e+01
-1.025900000000000034e+02
9.995000000000000284e+01
-4.171999999999999886e+01
-1.516000000000000014e+01
-2.887000000000000099e+01
-1.820000000000000062e+00
-7.956999999999999318e+01
-6.088000000000000256e+01
1.594499999999999886e+02
-5.363000000000000256e+01
-1.161700000000000017e+02
1.185799999999999983e+02
-2.641000000000000014e+01
2.444000000000000128e+01
-7.362000000000000455e+01
-5.489000000000000057e+01
2.053600000000000136e+02
-8.351000000000000512e+01
-9.914000000000000057e+01
-1.994900000000000091e+02
1.907100000000000080e+02
8.104999999999999716e+01
-7.514000000000000057e+01
1.422299999999999898e+02
-8.854999999999999716e+01
-6.665999999999999659e+01
2.357199999999999989e+02
-4.023100000000000023e+02
5.542999999999999972e+01
-2.862999999999999901e+01
8.459999999999999432e+01
6.500000000000000000e+01
-1.609900000000000091e+02
-1.320000000000000062e+00
-7.300000000000000000e+01
8.901000000000000512e+01
5.349999999999999645e+00
-2.735000000000000142e+01
-2.837000000000000099e+01
-2.392999999999999972e+01
1.950000000000000000e+01
4.617000000000000171e+01
-8.823000000000000398e+01
6.363000000000000256e+01
-6.320000000000000284e+01
1.163799999999999955e+02
-3.870000000000000284e+01
5.679999999999999716e+00
-2.219999999999999929e+01
6.731000000000000227e+01
-3.913000000000000256e+01
-1.169999999999999929e+01
-1.346000000000000085e+01
1.075000000000000000e+01
2.766000000000000014e+01
8.023000000000000398e+01
8.956999999999999318e+01
-2.131899999999999977e+02
-2.644399999999999977e+02
2.915500000000000114e+02
4.299999999999999822e+00
-5.395000000000000284e+01
-1.206000000000000050e+01
-1.086500000000000057e+02
4.796999999999999886e+01
-1.010000000000000009e+00
-2.348000000000000043e+01
2.744999999999999929e+01
1.202999999999999936e+01
-2.123000000000000043e+01
1.049000000000000057e+02
2.250000000000000000e+00
-1.230600000000000023e+02
3.585999999999999943e+01
-1.805000000000000071e+01
-2.698000000000000043e+01
-5.763000000000000256e+01
2.223999999999999844e+01
-8.404000000000000625e+01
8.269999999999999574e+00
4.254999999999999716e+01
2.042000000000000171e+01
-2.800000000000000266e-01
1.092099999999999937e+02
-1.130699999999999932e+02
-6.884999999999999432e+01
2.937999999999999901e+01
5.839000000000000057e+01
-4.285999999999999943e+01
-3.300999999999999801e+01
1.667999999999999972e+01
2.237999999999999901e+01
3.729999999999999982e+00
-1.505000000000000071e+01
5.679999999999999716e+00
-7.750000000000000000e+00
-1.353999999999999915e+01
-1.479999999999999982e+00
-3.950000000000000178e+00
-1.018299999999999983e+02
1.284499999999999886e+02
-8.269999999999999574e+00
2.510699999999999932e+02
-4.014000000000000057e+01
-1.872800000000000011e+02
-1.172199999999999989e+02
-9.931999999999999318e+01
1.502100000000000080e+02
2.407999999999999829e+01
6.751000000000000512e+01
-3.200000000000000178e+00
-6.160000000000000142e+01
-5.839999999999999858e+00
8.564000000000000057e+01
2.719999999999999929e+01
-5.571999999999999886e+01
-4.342000000000000171e+01
3.460999999999999943e+01
1.804199999999999875e+02
1.373199999999999932e+02
8.298000000000000398e+01
-2.420699999999999932e+02
-6.735999999999999943e+01
3.382000000000000028e+01
-3.026000000000000156e+01
-2.782999999999999829e+01
-7.473000000000000398e+01
8.782999999999999829e+01
-2.146999999999999886e+01
-1.350000000000000000e+01
2.239000000000000057e+01
-1.832000000000000028e+01
-6.823999999999999488e+01
2.507999999999999829e+01
9.869999999999999218e+00
7.410000000000000142e+00
4.238000000000000256e+01
6.288000000000000256e+01
-7.156000000000000227e+01
-2.546999999999999886e+01
-3.939999999999999947e+00
6.580000000000000071e+00
-5.828000000000000114e+01
-7.453000000000000114e+01
9.410999999999999943e+01
-3.026999999999999957e+01
-9.130000000000000782e+00
8.923000000000000398e+01
-3.274000000000000199e+01
-5.250000000000000000e+01
-6.129999999999999893e+00
9.081999999999999318e+01
6.024000000000000199e+01
-5.675999999999999801e+01
-2.300000000000000000e+01
3.669999999999999929e+00
-1.063700000000000045e+02
-2.651999999999999957e+01
-5.919999999999999929e+00
-1.830000000000000071e+00
7.654000000000000625e+01
9.493000000000000682e+01
-1.180000000000000071e+01
-1.658600000000000136e+02
-2.862000000000000099e+01
1.177399999999999949e+02
-5.807000000000000028e+01
-1.625999999999999943e+02
2.437400000000000091e+02
-1.125999999999999979e+01
2.241000000000000014e+01
-1.210300000000000011e+02
-6.450000000000000000e+01
-2.826000000000000156e+01
5.763000000000000256e+01
1.218499999999999943e+02
-4.632900000000000205e+02
7.251999999999999602e+01
-2.439900000000000091e+02
1.134300000000000068e+02
2.525099999999999909e+02
1.189500000000000028e+02
-2.317000000000000171e+01
5.039000000000000057e+01
-5.132999999999999829e+01
7.032999999999999829e+01
-6.274000000000000199e+01
2.971999999999999886e+01
1.714000000000000057e+01
3.073000000000000043e+01
1.199999999999999956e+00
2.625000000000000000e+01
1.788600000000000136e+02
-2.036999999999999886e+02
-2.210200000000000102e+02
1.448400000000000034e+02
7.334000000000000341e+01
-5.231000000000000227e+01
-2.196999999999999886e+01
-1.637000000000000099e+01
2.446000000000000085e+01
6.730000000000000426e+00
-2.653999999999999915e+01
1.225000000000000000e+01
-7.004999999999999716e+01
-2.694499999999999886e+02
8.340000000000000568e+01
8.723000000000000398e+01
-1.389999999999999902e+00
-1.466000000000000014e+01
1.225199999999999960e+02
2.680000000000000071e+01
-8.826999999999999602e+01
5.953000000000000114e+01
2.198000000000000043e+01
-2.833999999999999986e+01
3.363000000000000256e+01
-2.769000000000000128e+01
-5.267999999999999972e+01
-1.426999999999999957e+01
-4.156000000000000227e+01
-1.746999999999999886e+01
4.156000000000000227e+01
3.717000000000000171e+01
6.478000000000000114e+01
1.483100000000000023e+02
-7.320000000000000284e+00
-8.798000000000000398e+01
-1.724300000000000068e+02
1.315099999999999909e+02
8.493999999999999773e+01
-7.106000000000000227e+01
9.228000000000000114e+01
3.182999999999999829e+01
-1.967000000000000171e+01
-6.234000000000000341e+01
2.764999999999999858e+01
-3.169999999999999929e+00
-3.017000000000000171e+01
2.042999999999999972e+01
3.130000000000000071e+01
-5.040000000000000036e+00
1.612000000000000099e+01
-8.676999999999999602e+01
-6.593999999999999773e+01
-3.796000000000000085e+01
3.721000000000000085e+01
8.380000000000000782e+00
-3.049999999999999822e+00
-1.336999999999999922e+01
1.266999999999999993e+01
7.719999999999999751e+00
-1.798000000000000043e+01
-7.129999999999999893e+00
1.730000000000000071e+01
8.378000000000000114e+01
-2.073000000000000043e+01
1.567800000000000011e+02
-1.186299999999999955e+02
4.282999999999999829e+01
-1.875099999999999909e+02
-3.132000000000000028e+01
-1.614699999999999989e+02
3.834100000000000250e+02
-2.148400000000000034e+02
1.386699999999999875e+02
1.510000000000000000e+02
-5.570000000000000284e+01
3.000000000000000000e+01
4.860000000000000142e+01
-1.091999999999999993e+01
-6.000000000000000000e+00
-1.066999999999999993e+01
6.345000000000000284e+01
9.199999999999999289e+00
-1.310699999999999932e+02
1.315000000000000000e+02
3.089999999999999858e+00
4.724000000000000199e+01
-9.448999999999999488e+01
-9.656000000000000227e+01
2.034900000000000091e+02
4.246000000000000085e+01
2.350000000000000089e+00
-1.835000000000000142e+01
7.634000000000000341e+01
-3.328000000000000114e+01
-6.781000000000000227e+01
9.579000000000000625e+01
7.654999999999999716e+01
-2.686200000000000045e+02
4.713000000000000256e+01
-2.089000000000000057e+01
2.039099999999999966e+02
-1.002699999999999960e+02
-1.645900000000000034e+02
4.890999999999999659e+01
2.181899999999999977e+02
9.315999999999999659e+01
-2.918999999999999773e+02
-9.376999999999999602e+01
7.548999999999999488e+01
-4.452000000000000313e+01
2.810199999999999818e+02
-1.714000000000000057e+01
-7.231999999999999318e+01
6.954000000000000625e+01
-1.105000000000000000e+02
3.864999999999999858e+01
7.100000000000000000e+01
4.435999999999999943e+01
-1.547000000000000064e+01
-1.361999999999999922e+01
1.298000000000000043e+01
6.389999999999999858e+01
-1.024899999999999949e+02
-1.653700000000000045e+02
5.000000000000000000e+01
9.070000000000000284e+00
1.903999999999999915e+01
-1.916599999999999966e+02
2.351899999999999977e+02
1.141500000000000057e+02
5.939999999999999858e+01
-2.115900000000000034e+02
-8.199999999999999512e-01
1.376699999999999875e+02
-1.581399999999999864e+02
-4.136999999999999744e+01
-4.492999999999999972e+01
4.434000000000000341e+01
1.488499999999999943e+02
-3.450000000000000000e+01
-6.200000000000000178e+00
-1.144300000000000068e+02
-7.309999999999999609e+00
1.098400000000000034e+02
-1.976599999999999966e+02
-3.169999999999999929e+01
1.342700000000000102e+02
4.422999999999999687e+01
-3.750999999999999801e+01
-1.280399999999999920e+02
2.555999999999999872e+01
1.017199999999999989e+02
7.665999999999999659e+01
-1.444999999999999929e+01
-6.295000000000000284e+01
4.653000000000000114e+01
1.430900000000000034e+02
-1.045199999999999960e+02
5.878999999999999915e+01
1.468199999999999932e+02
6.748999999999999488e+01
-2.423600000000000136e+02
-1.359900000000000091e+02
-3.141000000000000014e+01
-1.182000000000000028e+01
4.807999999999999829e+01
-3.600000000000000089e+00
1.503199999999999932e+02
-2.252800000000000011e+02
1.751000000000000156e+01
1.019999999999999929e+01
4.332000000000000028e+01
-4.707000000000000028e+01
-4.931000000000000227e+01
-5.085000000000000142e+01
2.619499999999999886e+02
5.842000000000000171e+01
2.100000000000000000e+01
-1.587500000000000000e+02
6.232999999999999829e+01
5.242000000000000171e+01
-2.439999999999999947e+00
2.455999999999999872e+01
5.861999999999999744e+01
-2.244000000000000128e+01
3.532000000000000028e+01
-1.248299999999999983e+02
8.699999999999999289e+00
-7.375000000000000000e+01
1.307000000000000028e+01
-1.662800000000000011e+02
2.658899999999999864e+02
-1.268999999999999950e+01
-1.365000000000000036e+01
2.717000000000000171e+01
-1.714799999999999898e+02
6.810999999999999943e+01
1.584999999999999964e+01
-2.300000000000000000e+01
-1.208900000000000006e+02
4.515999999999999659e+01
-5.906000000000000227e+01
2.976999999999999957e+01
-4.360000000000000142e+01
-2.476999999999999957e+01
6.325999999999999801e+01
1.014000000000000057e+01
-4.010000000000000142e+01
7.500000000000000000e+01
1.767500000000000000e+02
-1.081500000000000057e+02
-1.181400000000000006e+02
-5.177000000000000313e+01
1.362800000000000011e+02
-2.886499999999999773e+02
-9.012999999999999545e+01
-5.434000000000000341e+01
2.183700000000000045e+02
1.525399999999999920e+02
-9.084000000000000341e+01
-4.668999999999999773e+01
1.203999999999999915e+01
5.580000000000000071e+00
2.878999999999999915e+01
-1.493499999999999943e+02
2.267000000000000171e+01
1.007500000000000000e+02
-1.150000000000000000e+01
3.684000000000000341e+01
-4.202000000000000313e+01
-1.016400000000000006e+02
9.664000000000000057e+01
1.429999999999999938e+00
1.646000000000000085e+01
2.257999999999999829e+01
-3.759999999999999787e+00
6.650000000000000355e+00
-2.414999999999999858e+01
-3.192000000000000171e+01
3.375000000000000000e+01
2.144999999999999929e+01
-1.732000000000000028e+01
1.894000000000000128e+01
1.291000000000000014e+01
6.540000000000000036e+00
1.416999999999999993e+01
-7.209999999999999964e+00
3.589999999999999858e+00
5.747999999999999687e+01
2.460000000000000142e+01
-2.984800000000000182e+02
1.245900000000000034e+02
-1.500000000000000000e+01
-6.848999999999999488e+01
6.631000000000000227e+01
-2.051999999999999957e+01
2.364099999999999966e+02
-1.977599999999999909e+02
-3.981000000000000227e+01
1.950000000000000000e+01
-3.506000000000000227e+01
-2.658999999999999986e+01
-7.143000000000000682e+01
1.010799999999999983e+02
1.618300000000000125e+02
-1.751299999999999955e+02
1.423400000000000034e+02
6.968000000000000682e+01
-1.243400000000000034e+02
-4.059000000000000341e+01
-1.290000000000000036e+01
6.965000000000000568e+01
-8.307999999999999829e+01
-2.076999999999999957e+01
7.870000000000000284e+01
-2.197899999999999920e+02
4.893999999999999773e+01
5.840999999999999659e+01
-2.053999999999999915e+01
-8.420000000000000284e+01
-4.781000000000000227e+01
1.154800000000000040e+02
-5.524000000000000199e+01
-1.256000000000000050e+01
-3.640999999999999659e+01
9.620999999999999375e+01
2.726000000000000156e+01
-1.366100000000000136e+02
4.293999999999999773e+01
-3.160000000000000142e+01
1.989999999999999858e+01
6.567000000000000171e+01
-1.114000000000000057e+01
2.217999999999999972e+01
3.564999999999999858e+01
3.622999999999999687e+01
-5.999000000000000199e+01
-3.140799999999999841e+02
1.285200000000000102e+02
-1.001099999999999994e+02
1.990200000000000102e+02
-6.768000000000000682e+01
4.168999999999999773e+01
3.503000000000000114e+01
5.500999999999999801e+01
-1.115400000000000063e+02
1.499799999999999898e+02
-1.021800000000000068e+02
2.580500000000000114e+02
-4.677000000000000313e+01
9.489000000000000057e+01
-1.911899999999999977e+02
1.103199999999999932e+02
1.737000000000000099e+01
-2.182599999999999909e+02
-1.110699999999999932e+02
2.192800000000000011e+02
-5.500000000000000444e-01
-3.030000000000000071e+01
2.580999999999999872e+01
-3.979999999999999982e+00
2.528000000000000114e+01
-1.726000000000000156e+01
1.803000000000000114e+01
-5.728000000000000114e+01
3.421999999999999886e+01
-5.093999999999999773e+01
1.205600000000000023e+02
-2.120099999999999909e+02
-5.614000000000000057e+01
-1.719000000000000128e+01
2.394000000000000128e+01
9.500000000000000000e+00
-9.770000000000000284e+01
1.314300000000000068e+02
-8.380000000000000782e+00
-1.303000000000000114e+02
-3.656000000000000227e+01
-2.430600000000000023e+02
8.695999999999999375e+01
2.844999999999999929e+01
-2.123999999999999844e+01
5.368999999999999773e+01
1.408000000000000007e+01
3.008999999999999986e+01
-1.364300000000000068e+02
2.720000000000000195e+00
4.809000000000000341e+01
6.935999999999999943e+01
-1.692000000000000171e+01
-1.630000000000000071e+01
-7.442000000000000171e+01
-1.386999999999999922e+01
2.364000000000000057e+02
-8.165000000000000568e+01
-4.035000000000000142e+01
-1.918799999999999955e+02
3.135000000000000142e+01
4.103999999999999915e+01
-2.387000000000000099e+01
1.171000000000000085e+01
8.243000000000000682e+01
5.275000000000000000e+01
-2.098700000000000045e+02
1.626999999999999957e+01
-4.882999999999999829e+01
1.039599999999999937e+02
-1.907999999999999829e+01
8.432999999999999829e+01
5.482999999999999829e+01
-4.813000000000000256e+01
-2.160600000000000023e+02
1.980300000000000011e+02
7.248999999999999488e+01
-6.125000000000000000e+01
-4.115999999999999659e+01
2.142000000000000171e+01
2.885999999999999943e+01
-2.069999999999999840e+00
-4.932000000000000028e+01
2.101000000000000156e+01
-3.345000000000000284e+01
3.069999999999999840e+00
-7.015000000000000568e+01
9.912999999999999545e+01
6.876000000000000512e+01
-3.579999999999999716e+01
4.999000000000000199e+01
-3.278999999999999915e+01
-1.646699999999999875e+02
1.581599999999999966e+02
-2.558999999999999986e+01
-1.792000000000000171e+01
-1.433000000000000007e+01
-3.020000000000000018e+00
3.882000000000000028e+01
-3.663000000000000256e+01
-6.909999999999999432e+01
-3.949000000000000199e+01
1.389799999999999898e+02
-2.967999999999999972e+01
-1.886100000000000136e+02
7.643999999999999773e+01
-5.959999999999999964e+00
-4.132999999999999829e+01
2.301100000000000136e+02
-3.141100000000000136e+02
-6.182999999999999829e+01
-9.380000000000000782e+00
1.799900000000000091e+02
-7.240999999999999659e+01
-2.946000000000000085e+01
6.082000000000000028e+01
2.005000000000000000e+02
5.549000000000000199e+01
-8.348999999999999488e+01
-1.494999999999999929e+01
-8.306000000000000227e+01
-4.940999999999999659e+01
9.996999999999999886e+01
3.220000000000000195e+00
-4.560999999999999943e+01
1.889999999999999858e+01
-2.705000000000000071e+01
4.168999999999999773e+01
-2.209999999999999964e+00
2.667000000000000171e+01
-1.337500000000000000e+02
1.116999999999999993e+01
3.260999999999999943e+01
2.711899999999999977e+02
-1.332599999999999909e+02
2.042999999999999972e+01
5.419999999999999929e+00
-7.079000000000000625e+01
-2.910999999999999943e+01
2.819000000000000128e+01
-1.564000000000000057e+01
-2.542999999999999972e+01
-1.780000000000000071e+01
1.213000000000000078e+01
2.378000000000000114e+01
9.679000000000000625e+01
5.364999999999999858e+01
-3.389100000000000250e+02
6.071999999999999886e+01
6.862999999999999545e+01
-7.443999999999999773e+01
1.833400000000000034e+02
-8.695000000000000284e+01
-1.057699999999999960e+02
-2.230000000000000071e+01
2.357000000000000028e+01
-2.179199999999999875e+02
3.738000000000000256e+01
-4.639000000000000057e+01
1.074399999999999977e+02
6.263000000000000256e+01
-8.418000000000000682e+01
-5.425000000000000000e+01
3.425999999999999801e+01
-2.204900000000000091e+02
2.139099999999999966e+02
1.853600000000000136e+02
-2.040900000000000034e+02
-1.465300000000000011e+02
1.409999999999999964e+01
1.252600000000000051e+02
3.568999999999999773e+01
5.392000000000000171e+01
2.828000000000000114e+01
-8.346999999999999886e+01
2.020000000000000018e+00
-2.362999999999999901e+01
9.240000000000000213e+00
3.584000000000000341e+01
-1.089099999999999966e+02
-6.240000000000000213e+00
5.174000000000000199e+01
1.724399999999999977e+02
4.624000000000000199e+01
3.046000000000000085e+01
-2.466000000000000014e+01
1.179300000000000068e+02
3.532000000000000028e+01
3.830000000000000071e+00
5.331000000000000227e+01
-4.775000000000000000e+01
-2.719000000000000128e+01
8.379999999999999716e+01
-3.243999999999999773e+01
-2.205999999999999872e+01
-3.549000000000000199e+01
-2.855000000000000071e+01
9.964000000000000057e+01
8.130000000000000782e+00
-5.515999999999999659e+01
-2.603000000000000114e+01
7.910000000000000142e+00
9.970999999999999375e+01
-5.643999999999999773e+01
-6.717000000000000171e+01
1.482000000000000028e+01
3.042000000000000171e+01
9.480000000000000426e+00
-1.083299999999999983e+02
-1.639999999999999858e+01
-3.414000000000000057e+01
1.586500000000000057e+02
-1.126200000000000045e+02
-8.346999999999999886e+01
5.424000000000000199e+01
3.233199999999999932e+02
1.617000000000000171e+01
-1.325699999999999932e+02
1.642000000000000171e+01
8.839999999999999858e+00
-1.380000000000000000e+02
2.575000000000000000e+01
9.669999999999999929e+00
-1.610900000000000034e+02
-1.047099999999999937e+02
1.659900000000000091e+02
9.698999999999999488e+01
-1.409799999999999898e+02
6.322999999999999687e+01
-2.989000000000000057e+01
4.764000000000000057e+01
-7.248999999999999488e+01
-5.639999999999999680e+00
-8.131000000000000227e+01
2.340000000000000000e+02
-1.653100000000000023e+02
-4.521999999999999886e+01
2.794000000000000128e+01
2.572699999999999818e+02
-1.340000000000000000e+02
-2.217299999999999898e+02
-5.436999999999999744e+01
-1.798000000000000043e+01
3.416800000000000068e+02
-1.191200000000000045e+02
4.107000000000000028e+01
-1.253900000000000006e+02
-6.500000000000000000e+00
8.429000000000000625e+01
1.482199999999999989e+02
2.980999999999999872e+01
-4.756000000000000227e+01
-5.750999999999999801e+01
5.432999999999999829e+01
2.971000000000000085e+01
-2.169999999999999929e+00
4.484000000000000341e+01
-1.603400000000000034e+02
-3.613000000000000256e+01
1.845500000000000114e+02
1.466000000000000014e+01
-9.248000000000000398e+01
-1.390000000000000036e+01
5.746000000000000085e+01
-5.650000000000000355e+00
-5.525000000000000000e+01
6.120000000000000107e+00
5.410999999999999943e+01
-5.817999999999999972e+01
-3.636999999999999744e+01
7.867000000000000171e+01
-2.998999999999999844e+01
1.326899999999999977e+02
-1.085499999999999972e+02
-5.285000000000000142e+01
-9.004000000000000625e+01
-4.014000000000000057e+01
6.432999999999999829e+01
-2.944000000000000128e+01
2.064000000000000057e+01
-1.450000000000000000e+01
3.203000000000000114e+01
-3.920000000000000284e+01
-1.630900000000000034e+02
-4.204999999999999716e+01
2.626899999999999977e+02
1.058299999999999983e+02
-3.051999999999999957e+01
