1592933285.00
64.000000
-0.00
-0.00
-0.00
-0.00
-0.00
-0.00
-0.00
-0.00
-0.00
-0.00
0.00
0.01
0.01
-0.00
-0.03
-0.05
-0.05
0.00
0.13
0.36
0.66
1.01
1.37
1.72
2.06
2.40
2.79
3.24
3.80
4.42
5.06
5.66
6.20
6.68
7.15
7.68
8.31
9.14
10.09
11.04
11.88
12.56
13.14
13.76
14.65
15.96
17.91
20.32
22.90
25.38
27.58
29.57
31.68
34.32
37.81
42.54
48.15
54.10
59.83
64.97
69.58
74.14
79.34
85.71
93.76
103.00
112.62
121.73
129.77
136.75
143.30
150.75
157.77
166.64
177.95
191.79
206.97
220.57
228.25
225.36
208.53
176.87
132.76
80.05
23.07
-34.94
-92.44
-149.16
-205.23
-260.37
-313.74
-363.87
-409.83
-450.91
-486.50
-515.74
-537.23
-549.22
-549.96
-538.37
-514.21
-478.67
-433.88
-382.45
-327.02
-269.84
-212.63
-156.66
-102.96
-52.38
-5.91
35.59
71.45
101.39
125.53
144.37
158.60
168.94
176.05
180.34
182.13
181.64
179.12
174.89
169.31
162.77
155.62
148.16
140.55
132.92
125.29
117.67
110.06
102.46
94.92
87.52
80.37
73.58
67.25
61.37
55.85
50.54
45.28
40.01
34.80
29.87
25.45
21.74
18.71
16.15
13.66
10.90
7.71
4.22
0.86
-1.86
-3.57
-4.30
-4.45
-4.70
-5.70
-7.75
-10.61
-13.61
-15.96
-17.07
-16.88
-15.92
-14.97
-14.85
-16.14
-19.02
-23.22
-28.00
-32.03
-33.46
-30.34
-21.36
-6.84
10.94
28.20
41.04
47.02
46.12
40.56
33.53
27.65
23.98
22.07
20.82
19.47
18.07
17.19
17.33
18.35
19.49
19.75
18.57
16.06
12.84
9.81
7.62
6.44
5.95
5.61
4.86
3.47
1.63
-0.21
-1.44
-1.68
-0.94
0.38
1.69
2.46
2.53
2.08
1.58
1.50
2.06
3.23
4.73
6.27
7.61
8.69
9.62
10.55
11.61
12.81
13.99
14.95
15.47
15.42
14.82
13.82
12.59
11.25
9.86
8.22
6.19
3.76
0.96
-2.02
-4.97
-7.66
-9.87
-11.50
-12.56
-13.16
-13.50
-13.75
-13.99
-14.16
-14.14
-13.82
-13.17
-12.36
-11.55
-10.90
-10.44
-10.10
-9.77
-9.32
-8.71
-7.95
-7.13
-6.36
-5.74
-5.39
-5.32
-5.50
-5.81
-6.07
-6.14
-5.98
-5.66
-5.35
-5.21
-5.33
-5.66
-6.06
-6.34
-6.46
-6.48
-6.55
-6.87
-7.51
-8.41
-9.36
-10.07
-10.31
-9.99
-9.14
-7.91
-6.52
-5.15
-3.96
-2.97
-2.15
-1.39
-0.54
0.35
1.34
2.46
3.71
5.09
6.47
7.65
8.40
8.54
8.09
7.27
6.46
6.06
6.29
7.12
8.29
9.43
10.23
10.50
10.28
9.77
9.23
8.93
8.99
9.41
10.03
10.66
11.09
11.23
11.09
10.75
10.29
9.74
9.08
8.30
7.43
6.52
5.65
4.83
4.02
3.15
2.16
1.01
-0.31
-1.82
-3.58
-5.62
-7.88
-10.19
-12.27
-13.83
-14.64
-14.66
-13.98
-12.80
-11.36
-9.91
-8.68
-7.78
-7.24
-6.96
-6.70
-6.25
-5.47
-4.40
-3.25
-2.32
-1.83
-1.82
-2.14
-2.49
-2.54
-2.10
-1.14
0.18
1.57
2.76
3.52
3.72
3.39
2.65
1.66
0.64
-0.28
-0.98
-1.43
-1.72
-1.97
-2.33
-2.90
-3.70
-4.63
-5.53
-6.28
-6.82
-7.15
-7.38
-7.59
-7.89
-8.33
-8.94
-9.71
-10.54
-11.25
-11.59
-11.37
-10.49
-8.95
-6.89
-4.45
-1.80
0.93
3.61
6.11
8.32
10.21
11.80
13.15
14.28
15.18
15.77
15.97
15.77
15.23
14.46
13.57
12.65
11.75
10.89
10.10
9.36
8.69
8.05
7.42
6.72
5.91
4.93
3.74
2.33
0.72
-1.03
-2.80
-4.44
-5.76
-6.53
-6.60
-5.87
-4.46
-2.63
-0.80
0.62
1.34
1.24
0.41
-1.01
-2.85
-5.03
-7.52
-10.26
-13.06
-15.64
-17.65
-18.81
-19.03
-18.44
-17.25
-15.73
-14.01
-12.13
-10.04
-7.69
-5.17
-2.62
-0.24
1.85
3.62
5.15
6.54
7.86
9.16
10.45
11.71
12.97
14.17
15.20
15.88
16.01
15.50
14.45
13.09
11.71
10.52
9.54
8.67
7.72
6.55
5.14
3.55
1.85
0.11
-1.62
-3.32
-5.01
-6.72
-8.58
-10.73
-13.25
-16.17
-19.36
-22.64
-25.80
-28.69
-31.27
-33.59
-35.66
-37.42
-38.60
-38.83
-37.68
-34.89
-30.43
-24.61
-17.95
-10.99
-4.20
2.12
7.82
12.80
16.97
20.31
22.87
24.81
26.28
27.40
28.14
28.44
28.27
27.72
26.96
26.18
25.50
24.88
24.23
23.49
22.65
21.73
20.73
19.52
17.96
15.96
13.55
10.91
8.29
5.85
3.62
1.49
-0.64
-2.83
-5.08
-7.39
-9.74
-12.13
-14.52
-16.80
-18.83
-20.52
-21.95
-23.37
-25.14
-27.52
-30.49
-33.76
-36.91
-39.58
-41.67
-43.24
-44.45
-45.27
-45.54
-44.95
-43.34
-40.83
-37.74
-34.30
-30.48
-25.94
-20.22
-12.76
-2.68
11.44
31.59
59.63
96.38
140.58
188.68
235.56
275.88
305.26
320.88
321.61
307.85
281.52
246.04
205.82
165.14
126.71
90.79
55.45
18.16
-22.28
-64.59
-105.22
-139.69
-164.42
-177.84
-180.57
-174.77
-163.03
-147.74
-130.79
-113.73
-97.98
-84.84
-75.21
-69.10
-65.44
-62.37
-58.20
-52.17
-44.96
-38.23
-33.59
-31.59
-31.31
-30.86
-28.42
-23.29
-16.13
-8.67
-2.85
-0.23
-1.56
-6.74
-14.93
-24.70
-34.45
-42.90
-49.58
-55.04
-60.72
-68.44
-79.59
-94.23
-110.68
-125.62
-134.42
-132.17
-114.85
-81.31
-34.75
17.28
64.65
97.78
110.62
102.44
77.32
42.39
4.47
-32.06
-65.41
-95.00
-119.90
-138.31
-147.94
-147.36
-135.96
-114.89
-86.86
-55.12
-22.38
9.67
40.08
68.56
94.87
119.85
144.05
166.81
186.05
198.99
203.09
196.77
180.19
149.40
105.63
56.25
11.34
-22.09
-42.14
-50.22
-50.74
-45.71
-36.90
-25.79
-14.50
-5.55
-1.12
-1.99
-7.45
-15.68
-24.35
-31.97
-37.43
-40.62
-42.53
-44.78
-48.65
-54.43
-61.29
-67.56
-71.70
-72.25
-68.18
-59.27
-46.28
-30.31
-12.19
8.42
33.60
66.40
107.13
152.71
197.62
235.86
262.27
272.08
261.69
230.47
181.86
123.40
65.11
16.39
-17.45
-35.84
-42.58
-42.94
-40.96
-38.30
-35.00
-30.84
-26.66
-25.64
-29.72
-39.75
-54.53
-71.11
-86.09
-97.36
-104.71
-107.08
-107.80
-109.61
-113.97
-120.89
-129.36
-137.79
-144.05
-145.26
-138.12
-120.47
-91.91
-55.36
-16.43
18.50
44.81
61.14
69.25
72.38
72.89
71.84
69.04
64.25
58.21
52.84
50.34
52.00
57.52
64.65
70.22
70.85
64.17
49.67
29.14
6.15
-15.06
-31.09
-40.65
-44.50
-44.77
-43.66
-42.55
-41.58
-40.21
-38.05
-34.67
-30.39
-25.78
-21.29
-17.10
-13.13
-9.18
-5.06
-0.78
3.58
7.64
10.89
12.84
13.31
12.52
11.06
9.57
8.54
8.17
8.31
8.62
8.77
8.59
7.98
6.84
4.88
1.66
-3.10
-9.54
-17.36
-25.88
-34.11
-41.11
-46.42
-50.27
-53.24
-55.34
-56.21
-55.31
-52.43
-48.16
-43.90
-41.47
-42.36
-46.98
-53.45
-59.39
-63.20
-65.05
-66.61
-69.95
-76.28
-85.15
-94.44
-99.41
-95.79
-81.17
-55.59
-20.61
21.96
70.59
123.58
178.13
232.15
282.33
324.98
357.33
378.61
389.91
392.68
387.19
359.79
303.88
223.10
131.55
46.50
-20.14
-65.15
-92.27
-108.19
-118.89
-125.70
-128.06
-125.41
-118.55
-109.52
-100.63
-93.68
-89.70
-89.02
-89.63
-89.52
-87.42
-83.23
-77.47
-70.86
-64.07
-57.85
-53.28
-50.92
-51.74
-56.66
-65.24
-74.46
-79.39
-74.34
-55.81
-24.57
14.73
54.35
85.68
101.98
100.21
81.30
49.56
11.57
-25.21
-53.65
-68.03
-66.96
-53.67
-33.76
-12.58
6.79
23.83
39.19
52.81
63.17
67.82
65.05
55.28
41.21
26.90
15.98
10.03
8.35
8.72
8.64
6.78
3.25
-0.59
-3.05
-3.00
-0.34
4.22
9.49
14.15
17.29
18.84
19.52
20.49
23.63
29.98
39.96
53.48
70.03
88.86
109.02
129.46
149.21
167.64
184.43
199.42
211.86
219.78
220.18
210.08
188.28
156.34
118.15
77.87
38.02
-1.46
-42.28
-85.71
-131.01
-175.46
-215.90
-250.43
-278.96
-302.25
-320.48
-332.74
-337.89
-336.14
-329.77
-322.12
-315.10
-307.20
-293.46
-268.22
-228.94
-178.88
-127.03
-85.02
-62.51
-63.39
-84.35
-116.29
-147.67
-168.45
-173.05
-161.51
-138.47
-110.78
-84.74
-64.06
-49.31
-38.88
-30.64
-23.48
-17.92
-15.50
-17.64
-24.55
-34.88
-46.39
-56.58
-63.09
-63.73
-56.39
-39.47
-13.03
20.26
54.97
84.34
102.46
106.38
96.94
77.98
54.67
31.96
14.02
4.21
4.90
17.01
39.58
69.85
104.40
140.49
176.57
211.78
244.76
272.77
292.20
299.90
294.73
278.26
254.05
226.22
198.21
172.13
149.01
129.55
114.40
104.18
99.27
99.45
103.88
111.03
118.95
125.65
129.58
129.95
126.99
121.77
115.79
110.59
107.38
106.68
108.17
110.78
112.96
113.48
111.98
109.46
107.82
109.14
114.70
124.27
136.12
147.69
156.64
161.64
162.32
158.97
151.82
140.28
123.23
99.46
68.33
30.29
-13.28
-60.98
-111.92
-165.57
-220.72
-274.22
-321.03
-356.47
-378.91
-391.52
-401.20
-414.60
-433.55
-452.68
-461.38
-449.28
-412.24
-355.11
-289.49
-228.02
-178.59
-141.97
-113.62
-88.13
-63.07
-40.02
-22.59
-13.46
-11.97
-13.93
-13.72
-7.00
7.35
26.79
46.62
62.29
71.26
73.84
72.89
72.20
74.69
81.24
90.34
99.05
104.40
104.75
100.55
93.99
87.89
84.50
84.59
87.40
91.17
94.10
94.87
92.78
87.38
78.11
64.48
46.89
27.70
11.29
2.86
5.93
19.99
39.77
56.99
64.04
57.75
40.88
20.57
4.41
-3.47
-3.96
-1.72
-1.80
-6.67
-15.20
-23.92
-29.56
-31.09
-30.14
-29.62
-31.70
-36.29
-40.95
-42.47
-38.95
-31.20
-22.48
-16.71
-16.18
-20.10
-24.95
-26.33
-21.41
-10.32
4.01
17.36
26.29
29.54
28.14
24.64
21.74
21.27
23.75
28.69
35.26
42.91
51.54
61.19
71.58
81.66
89.71
94.00
93.46
88.14
79.14
68.15
56.83
46.41
37.54
30.45
25.12
21.40
19.20
18.47
19.10
20.62
21.97
21.69
18.56
12.46
4.83
-1.73
-4.62
-2.62
3.32
10.41
15.29
15.51
10.56
1.84
-8.13
-16.94
-23.12
-26.32
-27.00
-25.79
-23.17
-19.47
-15.13
-10.94
-7.98
-7.18
-8.65
-11.33
-13.16
-11.87
-6.09
3.96
16.34
28.20
36.85
40.77
40.07
36.22
31.38
27.77
27.10
30.22
36.92
45.99
55.37
62.74
66.18
64.75
58.76
49.63
39.20
29.00
19.78
11.42
3.38
-4.75
-13.00
-21.03
-28.60
-35.97
-43.89
-53.32
-64.69
-77.52
-90.35
-101.24
-108.66
-112.09
-112.20
-110.46
-108.38
-106.89
-106.04
-105.13
-103.23
-99.76
-94.89
-89.42
-84.37
-80.37
-77.25
-74.12
-69.83
-63.60
-55.45
-46.24
-37.24
-29.55
-23.69
-19.46
-16.19
-13.20
-10.09
-7.08
-4.74
-3.77
-4.66
-7.34
-11.20
-15.29
-18.58
-20.33
-20.26
-18.46
-15.32
-11.31
-6.93
-2.71
0.80
3.08
3.83
3.00
0.92
-1.96
-5.20
-8.56
-11.98
-15.48
-18.96
-22.08
-24.32
-25.03
-23.80
-20.55
-15.64
-9.77
-3.82
1.50
5.79
8.95
11.15
12.60
13.41
13.61
13.25
12.49
11.66
11.10
11.04
11.42
12.00
12.49
12.77
12.86
12.95
13.17
13.52
13.87
14.05
13.94
13.56
13.02
12.45
11.90
11.35
10.68
9.73
8.34
6.41
3.94
1.05
-2.05
-5.13
-7.97
-10.40
-12.35
-13.80
-14.83
-15.63
-16.38
-17.25
-18.32
-19.50
-20.57
-21.25
-21.29
-20.54
-18.93
-16.47
-13.18
-9.13
-4.42
0.73
5.98
10.97
15.35
18.87
21.42
23.04
23.90
24.20
24.17
23.96
23.64
23.24
22.86
22.60
22.57
22.78
23.12
23.37
23.35
22.93
22.14
21.10
19.91
18.63
17.24
15.72
14.12
12.52
10.99
9.57
8.17
6.64
4.84
2.69
0.25
-2.25
-4.57
-6.47
-7.88
-8.90
-9.80
-10.92
-12.54
-14.73
-17.34
-19.94
-21.99
-22.94
-22.39
-20.23
-16.65
-12.05
-6.92
-1.68
3.36
8.12
12.53
16.53
20.03
22.86
24.94
26.27
26.91
27.02
26.73
26.15
25.32
24.30
23.19
22.07
21.02
20.06
19.16
18.21
17.09
15.71
14.09
12.34
10.64
9.17
8.03
7.16
6.43
5.69
4.86
3.97
3.07
2.14
1.04
-0.43
-2.41
-4.81
-7.33
-9.59
-11.31
-12.47
-13.36
-14.36
-15.78
-17.67
-19.75
-21.53
-22.52
-22.36
-20.98
-18.57
-15.41
-11.83
-8.05
-4.20
-0.39
3.23
6.55
9.46
11.95
14.11
16.01
17.66
18.97
19.76
19.94
19.59
18.89
18.11
17.45
17.01
16.81
16.86
17.13
17.55
17.98
18.17
17.92
17.12
15.87
14.41
13.02
11.93
11.19
10.73
10.36
9.86
8.98
7.54
5.49
2.89
0.02
-2.80
-5.28
-7.30
-8.94
-10.43
-12.09
-14.14
-16.70
-19.71
-22.99
-26.24
-29.09
-31.18
-32.23
-32.04
-30.57
-27.95
-24.43
-20.43
-16.33
-12.50
-9.14
-6.29
-3.87
-1.82
-0.17
0.89
1.09
0.18
-1.91
-4.98
-8.62
-12.33
-15.74
-18.69
-21.37
-24.10
-27.25
-30.98
-35.13
-39.35
-43.25
-46.57
-49.39
-51.96
-54.44
-56.61
-57.72
-57.08
-54.12
-48.58
-40.55
-30.13
-17.04
-0.23
21.78
50.22
84.76
123.66
164.54
205.46
245.60
285.00
323.44
359.32
389.57
410.10
418.77
417.12
409.90
402.51
398.25
397.19
397.10
395.85
390.91
382.15
371.28
360.01
348.12
333.21
312.73
285.80
254.13
216.19
171.35
120.84
67.93
16.08
-32.68
-77.57
-119.05
-157.47
-200.80
-255.00
-320.46
-391.69
-461.38
-524.49
-578.53
-624.04
-661.66
-702.13
-753.21
-815.09
-880.22
-938.95
-985.02
-1015.70
-1032.86
-984.09
-842.75
-620.74
-366.13
-129.08
64.02
209.32
315.68
386.73
435.15
457.64
450.56
416.52
365.37
308.37
250.88
204.98
175.68
165.33
162.71
157.00
144.07
128.16
117.14
107.89
104.51
105.73
108.68
102.40
78.83
35.92
-23.20
-85.92
-145.91
-199.74
-249.58
-283.29
-296.95
-292.49
-277.35
-259.55
-242.99
-227.20
-206.07
-173.74
-126.53
-68.84
-9.37
42.29
79.72
102.00
112.34
117.62
123.64
134.09
147.74
161.65
173.58
183.42
193.07
204.43
218.92
236.62
256.16
274.51
288.80
297.63
301.52
302.85
304.77
305.97
306.20
300.22
285.45
262.98
236.33
208.18
177.85
141.40
94.69
37.31
-25.79
-85.94
-134.21
-164.97
-177.82
-176.61
-166.77
-152.48
-139.35
-126.27
-111.84
-96.09
-80.35
-66.19
-54.35
-44.30
-34.67
-24.25
-12.94
-2.06
6.41
10.53
8.98
1.18
-12.93
-29.59
-46.66
-63.84
-81.81
-101.28
-122.37
-144.43
-166.32
-186.66
-204.12
-218.17
-229.99
-240.84
-251.20
-260.48
-267.27
-270.10
-267.86
-259.96
-236.24
-192.17
-129.64
-56.75
15.97
80.26
132.07
170.97
198.59
216.93
226.54
228.38
224.45
217.26
209.34
202.71
198.41
196.71
196.66
195.96
193.09
187.60
179.97
171.06
161.57
151.69
141.16
128.49
111.96
91.05
66.61
40.42
14.37
-10.12
-32.26
-51.82
-70.54
-89.97
-110.40
-130.94
-150.11
-166.78
-180.55
-191.52
-200.11
-208.87
-219.28
-231.02
-242.41
-250.99
-254.66
-252.11
-242.64
-212.76
-157.18
-80.32
4.65
83.17
146.65
193.10
224.46
244.33
256.00
260.18
258.75
254.44
248.01
240.56
233.14
226.55
221.48
217.51
212.15
204.73
193.96
177.32
152.58
119.60
78.62
30.59
-24.52
-87.48
-156.53
-217.80
-258.46
-271.60
-259.60
-231.23
-194.59
-155.86
-130.09
-113.33
-101.52
-93.45
-88.88
-87.67
-91.50
-93.29
-91.44
-85.81
-75.23
-61.55
-48.72
-40.04
-36.60
-38.54
-43.49
-49.45
-54.52
-57.19
-60.08
-68.54
-87.39
-107.46
-121.04
-123.32
-115.82
-103.06
-88.60
-75.22
-64.77
-57.64
-53.00
-50.95
-50.44
-49.99
-47.51
-41.11
-30.89
-18.99
-8.06
0.13
4.08
4.39
3.12
2.87
4.53
9.01
15.45
22.22
27.83
30.38
29.09
24.68
18.62
12.40
6.89
1.97
-3.00
-8.17
-13.48
-17.56
-17.19
-9.23
8.70
37.99
78.78
130.63
193.41
262.29
324.95
368.44
382.62
364.69
320.48
260.46
194.38
128.08
63.08
-0.67
-61.39
-114.93
-153.84
-174.43
-176.10
-162.70
-142.01
-123.58
-115.47
-121.30
-140.39
-172.98
-213.04
-253.36
-288.81
-317.44
-339.37
-355.55
-365.54
-368.58
-364.56
-353.53
-336.22
-313.75
-286.46
-253.46
-216.37
-176.45
-135.70
-96.43
-59.42
-24.81
8.10
41.05
76.67
117.79
166.22
220.47
274.90
322.76
355.64
365.62
347.91
303.24
238.41
165.16
96.50
43.55
17.08
21.42
53.49
104.90
166.69
232.65
299.57
363.68
417.83
458.45
481.07
483.02
465.99
437.96
410.61
393.89
390.44
395.42
410.12
436.85
477.66
531.60
593.88
656.34
709.68
745.04
711.80
589.14
393.54
171.37
-32.20
-194.90
-315.37
-399.15
-447.11
-468.16
-460.79
-426.40
-373.76
-317.68
-272.00
-250.97
-256.39
-281.12
-315.52
-344.99
-361.05
-362.73
-355.07
-344.16
-333.93
-324.64
-316.08
-309.23
-301.28
-290.43
-276.52
-261.69
-248.25
-237.10
-226.90
-216.31
-205.15
-191.61
-175.10
-154.59
-130.58
-104.03
-75.64
-45.34
-13.49
18.64
50.17
77.64
100.07
116.92
128.14
134.20
136.13
134.87
131.03
124.96
117.23
108.84
100.35
92.12
84.39
77.32
70.87
64.89
58.92
52.92
47.11
41.45
35.77
29.88
23.54
16.59
10.28
3.35
-4.52
-13.09
-22.25
-31.66
-40.94
-49.70
-57.50
-63.90
-68.75
-71.67
-72.42
-71.16
-67.99
-63.29
-57.59
-51.45
-45.43
-40.20
-36.09
-33.42
-32.55
-33.25
-35.46
-39.19
-44.34
-50.69
-57.95
-65.64
-73.54
-81.71
-89.64
-97.26
-104.62
-111.54
-117.44
-121.44
-122.30
-118.53
-113.24
-107.44
-102.14
-98.09
-95.50
-93.75
-91.57
-87.58
-80.95
-71.78
-59.82
-46.07
-31.95
-18.37
-4.92
10.01
28.31
51.17
78.31
109.82
143.70
176.85
206.70
232.65
256.41
281.29
311.21
349.36
398.76
456.87
515.07
561.20
584.31
578.88
546.64
495.50
436.32
381.17
335.32
296.50
258.12
214.03
160.89
97.91
26.06
-66.88
-175.11
-278.34
-353.73
-390.19
-391.66
-370.79
-341.72
-314.73
-294.31
-277.56
-261.75
-247.01
-235.73
-229.70
-228.29
-228.76
-227.31
-220.68
-205.87
-183.75
-158.22
-133.76
-112.60
-94.10
-76.14
-56.11
-35.35
-13.53
7.93
26.09
38.20
43.16
41.93
36.45
29.29
22.32
17.17
13.71
10.49
6.15
-0.04
-5.81
-11.61
-17.18
-22.44
-27.29
-32.45
-39.09
-47.63
-57.88
-69.02
-80.21
-90.28
-98.61
-105.09
-110.20
-114.62
-117.95
-119.41
-117.87
-112.46
-102.33
-87.21
-67.16
-41.88
-15.40
10.92
36.88
63.09
90.44
120.20
153.39
190.42
230.26
269.88
305.03
330.39
341.37
336.01
316.06
286.28
252.46
219.14
188.22
159.73
132.57
105.97
80.26
56.57
35.91
18.48
3.53
-9.97
-22.25
-32.92
-41.26
-46.67
-48.98
-48.40
-45.28
-39.92
-32.68
-23.97
-14.73
-6.55
-1.10
0.68
-0.77
-3.77
-6.41
-7.73
-8.39
-10.58
-17.19
-30.39
-50.29
-74.57
-99.54
-121.83
-139.47
-151.91
-157.11
-152.00
-134.78
-107.29
-75.45
-47.46
-30.90
-29.76
-42.39
-61.85
-78.93
-86.51
-82.43
-69.58
-53.70
-40.02
-30.84
-24.96
-19.29
-10.98
0.69
14.59
29.06
42.99
56.47
70.43
85.65
99.99
111.35
116.38
112.14
97.85
75.87
51.10
29.09
13.87
6.52
5.69
8.24
11.64
15.44
19.99
24.94
28.24
26.90
19.12
6.65
-5.91
-12.45
-8.93
3.63
18.87
27.99
24.11
5.69
-22.79
-54.34
-82.27
-103.40
-119.04
-133.67
-152.66
-180.49
-220.00
-266.17
-313.76
-355.62
-383.68
-390.97
-373.87
-333.58
-275.79
-208.55
-139.25
-73.03
-11.04
48.53
108.47
170.48
233.94
295.54
349.76
390.03
409.69
404.65
374.50
322.75
255.48
179.27
99.26
18.08
-63.96
-148.26
-235.84
-325.95
-415.08
-496.85
-563.04
-605.75
-619.90
-604.94
-565.24
-508.10
-441.23
-370.60
-299.82
-230.89
-165.49
-105.58
-52.90
-7.93
30.99
67.31
104.80
145.96
191.24
239.25
287.22
331.87
369.83
398.09
414.66
419.16
413.27
400.40
384.56
368.83
354.17
339.41
322.49
302.33
279.59
256.35
234.98
216.87
201.90
188.76
175.99
162.88
150.46
140.35
133.57
130.15
129.47
130.74
132.85
134.24
132.82
127.87
119.14
107.05
93.04
79.87
70.90
68.47
73.02
83.16
98.38
116.78
133.98
143.72
140.41
121.57
89.11
49.17
10.37
-16.14
-23.21
-10.62
15.63
47.26
76.99
99.47
111.03
92.31
35.86
-48.05
-136.41
-209.05
-257.28
-282.02
-289.00
-284.99
-275.57
-261.60
-243.11
-221.64
-200.43
-182.41
-168.71
-158.87
-151.72
-146.09
-138.99
-128.68
-115.72
-102.44
-91.02
-82.33
-76.20
-72.10
-69.48
-66.59
-62.22
-56.35
-49.95
-43.99
-38.92
-34.93
-32.26
-31.12
-30.91
-30.82
-30.26
-28.94
-26.89
-24.19
-21.31
-18.81
-17.12
-16.26
-16.34
-17.86
-21.35
-26.44
-30.84
-30.87
-22.78
-4.72
21.64
51.19
77.19
93.71
98.68
94.12
84.27
73.47
64.29
57.15
51.41
46.63
43.47
42.98
45.33
48.68
49.67
44.81
32.19
12.39
-11.25
-33.88
-51.25
-61.24
-64.43
-63.16
-60.01
-56.62
-53.01
-49.14
-44.90
-41.24
-39.01
-38.94
-40.39
-41.21
-38.48
-29.99
-15.73
1.79
18.31
29.70
33.65
30.35
22.07
11.66
1.66
-6.64
-12.73
-16.46
-17.82
-16.78
-13.41
-7.93
-0.70
7.93
17.07
25.32
30.70
31.31
26.18
15.79
2.07
-12.21
-24.06
-31.64
-34.44
-33.24
-29.59
-25.32
-21.72
-18.98
-15.93
-10.10
0.41
15.64
33.24
49.20
59.80
63.31
61.09
54.03
45.41
38.29
33.98
31.54
28.70
23.22
14.03
1.71
-11.93
-24.15
-32.67
-36.24
-34.90
-29.70
-22.39
-15.06
-9.83
-8.39
-11.28
-18.46
-29.28
-42.46
-56.08
-67.61
-74.25
-73.61
-64.35
-46.64
-22.95
2.35
24.10
38.05
42.26
37.93
28.98
21.07
19.64
27.57
43.83
63.53
79.95
87.12
82.35
66.96
45.84
25.23
10.02
2.16
0.62
3.00
7.12
11.92
15.25
14.60
9.44
2.81
-0.59
2.18
11.15
21.69
27.42
22.15
2.71
-29.63
-70.41
-110.44
-139.86
-151.61
-143.90
-119.88
-85.99
-49.14
-15.00
12.42
30.76
38.84
37.28
28.51
16.81
7.03
3.42
8.37
21.93
41.88
64.08
83.68
95.62
95.94
83.00
58.68
28.18
-1.52
-23.90
-35.35
-35.50
-27.89
-18.31
-12.41
-13.25
-20.70
-32.19
-44.56
-53.95
-56.04
-50.75
-41.19
-31.20
-22.67
-16.25
-11.65
-7.99
-3.99
4.11
19.89
44.98
78.16
115.63
151.42
178.61
191.61
177.67
136.45
83.35
38.53
12.14
1.87
-0.33
-1.29
-3.09
-3.99
1.24
15.20
34.62
52.14
59.85
53.50
33.85
6.07
-23.52
-47.92
-63.86
-72.86
-79.32
-86.96
-97.20
-110.24
-121.03
-129.20
-135.21
-139.67
-142.31
-141.74
-136.38
-126.14
-113.31
-101.23
-92.72
-86.84
-80.57
-71.75
-61.44
-53.92
-54.08
-64.08
-81.07
-98.46
-108.04
-104.11
-85.70
-56.45
-22.61
9.20
33.53
47.28
49.89
43.93
34.38
27.55
28.77
40.17
59.70
82.50
103.90
122.17
139.12
157.72
180.07
205.08
228.24
243.44
245.95
234.36
210.78
178.53
139.30
94.54
46.00
-3.10
-48.41
-84.78
-107.01
-110.66
-94.78
-64.64
-28.47
3.35
20.70
15.50
-14.82
-64.70
-120.09
-164.24
-185.78
-179.18
-146.48
-95.01
-34.76
23.24
63.81
80.71
89.79
96.54
100.50
94.12
76.92
53.20
30.08
14.24
9.45
13.54
17.30
12.45
-4.81
-31.83
-62.53
-90.11
-109.60
-118.57
-118.21
-113.52
-107.91
-102.12
-94.08
-81.79
-64.70
-43.89
-20.97
2.36
24.19
44.53
64.23
83.65
101.05
113.21
117.18
112.26
100.34
84.54
68.65
55.48
46.02
39.29
33.33
26.51
18.28
9.21
0.31
-7.05
-11.55
-12.19
-8.66
-1.43
8.31
18.91
28.76
36.70
42.16
45.16
46.02
45.11
42.84
39.61
35.99
32.58
29.87
28.08
27.14
26.87
27.15
28.02
29.51
31.37
32.93
33.14
30.89
25.55
17.33
7.49
-1.98
-9.08
-12.64
-12.83
-10.97
-8.64
-6.66
-4.48
-0.54
6.42
16.12
26.39
34.02
36.22
31.89
21.77
7.35
-10.38
-31.25
-55.15
-80.79
-105.31
-125.21
-138.17
-144.42
-146.68
-148.44
-151.99
-157.17
-162.00
-164.31
-163.23
-159.56
-154.78
-149.79
-144.21
-136.56
-125.31
-110.26
-93.17
-77.27
-66.07
-61.90
-64.85
-72.64
-80.93
-84.65
-79.84
-64.92
-40.72
-9.60
25.39
60.97
93.44
120.05
140.01
154.25
164.68
173.30
180.88
186.27
186.56
178.19
160.80
138.86
119.56
109.16
110.35
121.26
136.69
150.10
154.72
146.40
124.30
89.43
43.90
-8.11
-59.83
-101.50
-118.63
-108.56
-84.14
-60.90
-46.15
-38.18
-31.01
-20.19
-6.17
5.90
9.19
1.11
-14.41
-30.14
-40.40
-43.94
-43.66
-44.09
-48.68
-58.61
-71.28
-82.02
-86.99
-85.08
-77.73
-67.59
-57.04
-47.52
-39.25
-31.77
-24.77
-18.62
-14.34
-12.79
-14.03
-17.22
-20.96
-22.77
-20.78
-15.19
-6.89
3.12
14.51
27.55
42.48
59.15
78.10
98.69
119.03
137.04
151.52
162.53
170.52
175.47
166.67
139.89
99.83
57.25
21.66
-2.37
-14.60
-17.37
-14.29
-8.53
-0.81
8.50
18.47
27.74
35.35
41.17
46.72
51.55
55.24
58.42
61.14
62.75
62.49
60.45
57.63
55.36
54.19
53.70
52.98
50.03
42.34
27.91
7.18
-16.65
-38.83
-55.01
-62.53
-60.98
-52.37
-40.13
-27.77
-17.72
-11.14
-8.21
-8.53
-11.02
-13.86
-14.87
-12.00
-4.00
9.06
25.50
42.31
55.85
63.09
62.27
53.08
36.38
13.54
-13.82
-43.83
-74.14
-101.82
-123.88
-138.22
-144.42
-144.00
-139.64
-133.86
-127.91
-121.47
-113.27
-102.27
-88.58
-73.73
-59.98
-49.26
-42.20
-37.86
-34.23
-29.26
-21.77
-11.97
-1.27
8.52
16.01
20.76
23.28
24.57
25.64
27.11
29.11
31.39
33.53
35.11
36.01
36.43
36.89
37.91
39.65
41.63
43.00
43.08
42.18
41.99
45.32
55.13
73.31
99.79
132.36
167.36
201.07
230.94
256.33
278.34
298.81
319.32
340.34
361.16
380.32
396.14
407.06
411.69
408.67
396.67
374.88
343.58
304.55
260.77
215.64
171.98
131.41
94.36
60.55
29.56
1.09
-25.04
-49.09
-71.64
-93.46
-115.34
-137.75
-160.71
-183.79
-206.45
-228.35
-249.55
-270.58
-292.07
-314.53
-338.07
-362.62
-388.06
-414.43
-441.60
-468.65
-493.64
-513.75
-526.30
-529.80
-524.53
-512.70
-496.57
-477.14
-454.08
-426.85
-395.77
-362.73
-330.41
-300.79
-274.33
-248.83
-220.20
-184.58
-140.44
-89.27
-35.09
17.21
63.52
100.22
126.04
142.18
151.09
154.95
155.48
153.58
150.21
146.53
140.39
130.75
119.04
107.59
97.20
87.84
77.98
67.15
55.88
38.64
12.82
-18.13
-48.07
-73.49
-92.85
-108.52
-122.01
-133.67
-153.65
-187.07
-228.81
-268.99
-301.79
-324.66
-341.62
-355.46
-367.29
-390.75
-433.09
-488.15
-543.62
-592.40
-631.49
-666.41
-701.31
-654.65
-499.65
-284.89
-84.36
67.47
157.95
225.21
288.89
355.91
426.85
486.50
521.76
535.35
540.62
548.98
568.03
594.69
624.00
650.54
659.24
642.11
604.61
559.05
514.20
474.63
437.14
399.28
360.82
317.03
267.06
216.10
170.40
131.77
99.21
69.08
40.56
15.28
-7.66
-28.73
-46.90
-60.98
-71.00
-76.90
-78.36
-74.52
-65.71
-55.15
-46.55
-42.31
-43.48
-49.69
-59.45
-68.99
-75.04
-77.11
-77.24
-77.86
-80.58
-86.36
-94.34
-102.94
-106.46
-99.97
-81.82
-53.24
-16.25
26.30
69.04
106.25
132.28
148.76
160.24
170.93
183.61
200.89
224.49
253.38
286.69
293.28
256.31
185.22
103.34
25.30
-44.87
-101.27
-148.67
-186.41
-212.97
-224.01
-218.97
-200.83
-176.95
-153.24
-132.23
-114.90
-99.64
-85.28
-67.90
-45.44
-19.95
3.30
19.86
27.56
25.79
16.95
4.09
-7.85
-15.81
-20.27
-24.49
-31.05
-40.38
-51.30
-60.77
-66.15
-65.21
-57.74
-45.78
-32.56
-20.46
-10.34
-2.14
5.05
12.06
19.83
28.94
39.38
50.37
60.84
69.40
74.57
75.26
71.23
63.24
53.05
42.79
34.24
28.47
25.57
24.95
25.68
26.80
27.46
26.96
24.69
20.17
13.18
3.92
-6.93
-18.26
-28.78
-37.41
-43.62
-47.56
-49.96
-51.73
-53.61
-55.89
-58.42
-60.88
-63.07
-64.94
-66.43
-67.24
-66.69
-63.94
-58.42
-50.19
-40.01
-29.08
-18.52
-8.88
-0.14
8.18
16.52
24.98
33.19
40.55
46.50
50.75
53.45
55.02
55.96
56.70
57.44
58.19
58.76
58.80
57.83
55.33
50.84
44.22
35.72
26.03
16.01
6.49
-2.05
-9.49
-15.91
-21.41
-25.93
-29.27
-31.25
-31.88
-31.47
-30.56
-29.72
-29.43
-29.89
-31.02
-32.53
-34.03
-35.10
-35.32
-34.41
-32.13
-28.39
-23.24
-16.86
-9.56
-1.78
5.99
13.30
19.79
25.35
30.05
34.07
37.58
40.64
43.15
44.92
45.82
45.80
44.91
43.26
41.00
38.30
35.34
32.40
29.78
27.72
26.33
25.53
25.09
24.76
24.35
23.75
22.94
21.84
20.36
18.37
15.79
12.69
9.21
5.58
1.97
-1.51
-4.85
-8.07
-11.20
-14.28
-17.38
-20.59
-23.95
-27.38
-30.61
-33.19
-34.60
-34.40
-32.41
-28.70
-23.56
-17.44
-10.84
-4.19
2.13
7.86
12.91
17.30
21.09
24.32
26.93
28.83
29.99
30.47
30.44
30.09
29.57
28.95
28.21
27.35
26.37
25.34
24.30
23.21
21.97
20.49
18.75
16.78
14.72
12.71
10.87
9.23
7.85
6.77
6.04
5.70
5.69
5.82
5.83
5.47
4.67
3.58
2.54
1.91
1.95
2.66
3.92
5.56
7.64
10.41
14.41
20.13
27.85
37.50
48.63
60.43
71.86
81.72
88.82
92.38
92.42
90.13
87.64
87.14
89.71
94.33
97.71
95.32
83.08
58.90
23.42
-20.27
-67.69
-113.96
-154.60
-185.81
-204.92
-210.99
-205.48
-192.43
-177.60
-166.84
-164.10
-170.30
-183.26
-198.85
-212.57
-220.90
-221.82
-214.72
-200.12
-179.45
-155.31
-131.53
-112.75
-103.09
-104.28
-114.20
-126.82
-133.79
-127.25
-102.62
-60.15
-4.47
57.20
117.42
170.08
210.94
237.48
248.73
245.41
230.27
207.85
183.50
161.77
145.10
133.52
125.49
119.25
113.87
109.40
106.27
104.48
103.17
101.02
97.01
90.97
83.52
75.55
67.66
59.93
52.20
44.44
37.05
30.55
25.15
20.42
15.39
9.11
1.23
-7.83
-17.05
-25.48
-32.64
-38.66
-43.92
-48.69
-52.88
-56.23
-58.60
-60.22
-61.47
-62.60
-63.39
-63.18
-61.16
-56.86
-50.40
-42.49
-34.14
-26.26
-19.35
-13.51
-8.54
-4.18
-0.31
2.99
5.56
7.32
8.35
8.99
9.58
10.42
11.54
12.73
13.61
13.76
12.81
10.48
6.64
1.40
-4.73
-10.87
-15.97
-19.12
-19.97
-18.73
-16.05
-12.56
-8.65
-4.37
0.28
5.04
9.24
11.96
12.40
10.24
5.81
0.02
-6.03
-11.33
-15.23
-17.51
-18.30
-17.94
-16.84
-15.26
-13.36
-11.23
-8.92
-6.62
-4.71
-3.72
-4.14
-6.20
-9.62
-13.54
-16.68
-17.70
-15.67
-10.47
-2.82
5.98
14.50
21.68
26.94
30.19
31.59
31.30
29.52
26.55
22.95
19.49
16.99
15.88
16.03
16.66
16.71
15.37
12.45
8.49
4.45
1.17
-1.05
-2.59
-4.23
-6.60
-9.78
-13.20
-15.90
-17.09
-16.65
-15.27
-14.19
-14.74
-17.84
-23.65
-31.63
-40.71
-49.58
-56.97
-61.72
-63.00
-60.38
-53.96
-44.41
-32.81
-20.40
-8.28
2.76
12.27
19.98
25.74
29.56
31.59
32.25
32.14
31.81
31.61
31.66
31.79
31.76
31.37
30.50
29.08
27.12
24.66
21.82
18.83
15.92
13.20
10.56
7.66
4.01
-0.89
-7.28
-15.06
-23.69
-32.30
-39.91
-45.64
-48.89
-49.42
-47.29
-42.81
-36.50
-29.01
-21.21
-14.05
-8.37
-4.65
-2.82
-2.17
-1.60
-0.06
3.16
8.13
14.36
20.99
27.03
31.61
34.20
34.66
33.29
30.82
28.23
26.54
26.53
28.36
31.54
34.91
37.08
36.73
33.18
26.53
17.72
8.25
-0.34
-6.82
-10.60
-11.78
-10.97
-9.01
-6.72
-4.77
-3.55
-3.23
-3.79
-5.07
-6.82
-8.82
-10.91
-13.00
-15.11
-17.27
-19.42
-21.43
-23.13
-24.45
-25.50
-26.64
-28.33
-31.00
-34.83
-39.60
-44.68
-49.09
-51.61
-51.13
-46.89
-38.87
-27.86
-15.41
-3.42
6.31
12.61
15.29
15.24
14.13
13.94
16.24
21.79
30.26
40.43
50.66
59.49
66.11
70.57
73.54
75.94
78.53
81.69
85.32
88.90
91.64
92.64
91.23
87.51
82.67
78.93
78.82
84.02
94.23
106.86
117.90
123.46
121.50
112.59
99.42
85.17
72.22
61.38
51.86
42.15
31.12
18.67
5.72
-6.33
-16.35
-23.61
-27.88
-29.59
-29.95
-30.80
-34.28
-42.07
-54.70
-71.47
-89.80
-106.02
-116.87
-120.77
-118.10
-110.51
-100.02
-88.21
-77.07
-67.39
-59.02
-52.01
-47.15
-45.22
-46.24
-49.26
-52.90
-58.39
-65.95
-74.44
-82.86
-91.28
-100.20
-109.49
-118.31
-125.57
-134.29
-145.26
-156.55
-166.17
-174.13
-181.78
-190.35
-200.25
-211.02
-226.11
-244.22
-258.92
-263.15
-253.58
-231.09
-199.37
-163.35
-97.01
-2.44
95.22
172.28
222.74
251.05
263.00
263.19
255.60
244.06
227.02
204.70
180.70
159.06
141.55
128.38
119.55
114.84
113.03
107.70
97.14
81.57
62.46
40.76
17.67
-4.37
-21.95
-31.67
-33.85
-29.31
-19.57
-7.57
2.25
5.86
1.68
-9.02
-23.02
-38.00
-51.77
-62.85
-70.56
-75.01
-76.56
-75.47
-72.25
-68.02
-64.77
-63.97
-65.86
-69.14
-71.63
-71.15
-66.35
-57.28
-45.26
-32.24
-19.96
-9.47
-0.88
6.23
12.39
17.91
22.79
26.86
30.03
32.36
34.02
35.15
35.81
35.97
35.59
34.64
33.21
31.44
29.46
27.44
25.52
23.87
22.67
21.97
21.67
21.52
21.20
20.54
19.55
18.43
17.48
16.88
16.57
16.15
14.96
12.23
7.43
0.48
-8.03
-17.03
-25.25
-31.73
-36.05
-38.47
-39.64
-40.27
-40.78
-41.16
-41.02
-39.84
-37.14
-32.72
-26.68
-19.39
-11.30
-2.83
5.74
14.20
22.37
29.94
36.60
42.03
46.16
49.19
51.53
53.61
55.69
57.71
59.35
60.26
60.21
59.24
57.64
55.82
54.16
52.85
51.82
50.77
49.38
47.37
44.71
41.58
38.24
34.98
31.99
29.30
26.86
24.51
22.10
19.47
16.50
13.16
9.56
5.90
2.44
-0.64
-3.29
-5.63
-7.88
-10.28
-12.98
-15.96
-19.06
-21.93
-24.09
-25.04
-24.32
-21.71
-17.29
-11.47
-4.86
1.88
8.24
13.92
18.87
23.15
26.86
30.01
32.54
34.34
35.38
35.75
35.65
35.38
35.21
35.31
35.67
36.17
36.70
37.18
37.69
38.35
39.30
40.54
41.88
43.05
43.84
44.25
44.59
45.22
46.26
47.26
47.22
44.90
39.44
30.90
20.42
10.01
1.81
-2.50
-2.23
2.25
9.60
17.78
24.33
26.78
23.16
12.65
-4.04
-24.63
-45.71
-63.63
-75.46
-79.79
-76.93
-68.52
-56.78
-43.78
-30.88
-18.73
-7.53
2.70
11.82
19.58
25.84
30.64
34.21
36.81
38.43
38.77
37.39
34.01
28.70
22.00
14.75
7.70
1.24
-4.67
-10.53
-16.91
-24.31
-33.10
-43.77
-57.00
-73.71
-94.73
-120.33
-150.33
-184.19
-221.44
-261.46
-302.71
-341.88
-373.58
-391.27
-389.30
-365.10
-320.29
-260.45
-193.16
-125.81
-63.81
-9.88
35.49
73.29
104.99
131.89
154.68
173.37
187.51
196.73
201.18
201.82
200.11
197.34
194.18
190.47
185.70
179.58
172.47
165.20
158.60
152.96
147.79
142.24
135.60
127.93
119.92
112.58
106.61
101.91
97.67
92.73
86.16
77.54
66.94
54.72
41.35
27.44
13.78
1.24
-9.32
-17.38
-23.00
-26.97
-30.69
-35.86
-43.81
-54.98
-68.53
-82.62
-95.04
-104.15
-109.42
-111.38
-111.06
-109.21
-105.85
-100.42
-92.46
-82.21
-70.65
-59.16
-48.79
-39.86
-32.01
-24.66
-17.45
-10.47
-4.15
1.08
5.22
8.61
11.85
15.48
19.72
24.45
29.37
34.33
39.52
45.39
52.30
60.07
67.70
73.62
76.33
75.10
70.47
64.10
58.01
53.73
51.46
49.91
46.68
39.06
25.05
3.96
-23.04
-52.93
-81.17
-102.49
-112.22
-107.75
-89.82
-62.95
-34.65
-13.41
-5.91
-14.73
-37.30
-66.81
-94.81
-114.15
-121.06
-115.67
-100.69
-79.56
-54.83
-27.78
0.94
30.34
58.38
82.27
99.28
107.75
107.73
100.90
90.05
78.15
67.68
60.26
56.48
56.04
57.77
59.84
60.06
56.62
48.88
37.99
26.67
18.01
13.76
13.04
12.40
7.34
-5.35
-25.89
-51.14
-75.86
-94.75
-104.19
-102.84
-91.27
-71.29
-45.37
-16.44
12.12
36.89
55.16
65.60
68.52
65.34
57.82
47.36
34.85
20.98
6.52
-7.53
-20.29
-31.26
-40.41
-47.83
-53.17
-55.35
-53.01
-45.31
-32.61
-16.49
0.99
18.13
34.05
48.46
61.06
71.06
77.46
79.67
78.21
74.74
71.36
69.51
69.32
69.70
69.20
67.12
64.09
61.74
61.81
65.13
71.09
77.85
82.81
83.34
77.34
63.86
43.51
18.84
-6.01
-26.50
-39.48
-44.67
-44.87
-44.81
-49.17
-60.88
-80.46
-106.43
-136.09
-166.07
-192.49
-211.16
-218.37
-212.24
-193.75
-166.91
-137.50
-111.07
-91.18
-78.84
-73.04
-71.79
-72.98
-74.86
-76.20
-76.47
-75.93
-75.37
-75.57
-76.47
-76.74
-74.14
-66.36
-52.09
-31.61
-6.68
20.19
46.44
70.09
89.75
104.58
114.18
118.65
118.68
115.54
110.59
104.85
98.62
91.44
82.46
71.17
57.81
43.61
30.36
19.75
12.55
8.28
5.31
1.61
-4.36
-12.97
-23.30
-33.59
-42.00
-47.35
-49.50
-49.24
-47.85
-46.45
-45.69
-45.60
-45.74
-45.57
-44.65
-42.75
-39.83
-35.88
-30.93
-25.13
-18.77
-12.42
-6.91
-3.15
-1.72
-2.59
-4.90
-7.02
-7.02
-3.34
4.50
15.59
27.84
38.69
46.01
48.87
47.88
44.93
42.40
42.21
45.14
50.57
57.07
63.18
68.24
72.68
77.64
83.92
91.12
97.41
100.31
98.03
90.64
80.34
70.38
63.48
60.54
60.46
61.18
61.23
60.73
61.32
64.83
71.67
79.91
85.59
84.39
73.63
53.46
26.83
-2.18
-30.05
-54.98
-76.67
-94.79
-108.12
-114.99
-115.11
-111.23
-108.71
-112.49
-122.94
-133.90
-134.91
-117.26
-80.24
-33.53
6.57
25.08
16.01
-15.03
-54.21
-86.81
-103.94
-105.06
-95.63
-82.10
-67.77
-51.72
-30.54
-1.36
36.26
79.92
125.92
170.82
212.06
247.79
275.71
292.14
292.35
272.12
230.15
169.56
98.04
25.93
-36.85
-83.76
-113.35
-128.32
-132.87
-130.03
-120.69
-104.65
-83.15
-60.88
-46.29
-49.49
-77.07
-127.40
-188.98
-244.18
-275.78
-274.15
-240.59
-186.63
-129.63
-85.33
-62.31
-60.15
-72.61
-91.23
-109.07
-120.87
-122.71
-112.51
-89.68
-55.85
-15.61
22.53
48.98
55.46
39.17
14.30
0.44
10.92
44.52
92.82
148.25
207.46
267.43
329.55
391.37
446.67
488.80
513.96
523.81
513.54
485.82
446.03
400.92
356.16
314.54
276.37
240.71
207.18
176.05
149.58
128.84
114.20
104.47
96.86
88.17
76.13
60.59
42.93
26.13
11.74
0.17
-9.58
-19.63
-32.27
-49.21
-70.54
-95.06
-120.35
-145.30
-169.16
-191.69
-213.46
-235.63
-260.06
-288.00
-319.63
-353.47
-388.68
-421.56
-445.69
-455.04
-446.40
-421.83
-386.33
-346.14
-306.94
-277.07
-259.55
-251.75
-249.80
-251.63
-259.82
-276.69
-303.10
-338.12
-386.27
-445.59
-506.48
-557.77
-591.18
-606.47
-604.85
-588.08
-558.15
-526.28
-496.87
-465.80
-427.54
-380.18
-330.57
-284.49
-244.57
-152.21
-0.82
167.42
305.81
386.91
434.43
462.32
478.09
486.02
489.11
481.92
466.11
451.76
449.65
465.39
492.86
522.76
544.67
548.94
522.40
463.08
382.54
298.86
228.81
179.03
150.02
137.04
132.58
125.23
109.95
89.68
70.73
58.22
51.49
47.85
43.89
36.67
22.69
1.88
-22.37
-45.75
-65.13
-80.46
-92.54
-102.38
-110.87
-119.90
-131.54
-148.07
-171.79
-203.78
-242.52
-282.41
-314.90
-331.40
-326.59
-300.48
-258.17
-207.47
-155.83
-108.08
-65.86
-28.47
5.71
38.24
70.15
101.90
133.32
163.39
190.35
211.97
226.46
233.13
232.82
227.65
220.27
213.04
207.31
203.28
200.12
196.52
191.26
183.64
173.56
161.31
147.06
130.54
111.18
88.77
64.30
40.21
19.81
6.03
0.03
0.55
4.41
7.89
8.31
5.02
-0.79
-7.17
-12.72
-17.45
-22.81
-31.02
-43.86
-61.84
-83.67
-106.52
-126.79
-141.17
-147.46
-144.85
-133.92
-116.43
-95.05
-72.78
-52.15
-33.90
-16.24
4.89
34.01
73.24
119.68
164.84
197.14
206.87
191.21
156.66
117.02
87.75
79.18
92.14
117.81
141.93
150.92
137.13
100.95
49.37
-7.82
-61.84
-107.08
-141.23
-163.77
-174.51
-173.04
-159.46
-135.47
-105.06
-74.01
-47.91
-30.10
-20.44
-15.71
-11.51
-4.68
5.06
15.00
20.82
18.54
6.22
-15.33
-42.88
-71.79
-97.22
-115.07
-122.58
-118.68
-104.14
-81.58
-55.19
-29.92
-10.17
1.46
4.90
2.38
-2.64
-6.97
-8.74
-7.75
-4.92
-1.40
2.21
6.03
10.55
16.11
22.52
29.13
35.16
40.17
44.40
48.76
54.58
63.06
74.80
89.40
105.39
120.65
133.19
141.78
146.43
148.39
149.59
151.83
156.01
161.63
166.70
168.25
163.02
148.35
122.96
87.50
44.76
-0.84
-44.26
-81.39
-110.23
-131.17
-145.91
-155.74
-160.15
-156.72
-142.51
-116.17
-79.52
-37.60
2.92
35.85
57.18
65.47
61.56
48.22
30.07
13.33
4.51
8.04
23.90
47.00
69.03
82.16
82.70
72.41
56.94
42.13
30.80
21.60
10.75
-4.85
-25.09
-46.29
-63.07
-71.07
-68.87
-58.24
-42.91
-26.62
-11.86
0.51
10.54
18.24
23.08
24.16
21.01
14.32
6.14
-0.55
-2.94
0.57
9.55
21.43
32.22
37.89
35.87
26.15
11.30
-4.54
-17.19
-23.78
-23.42
-16.78
-5.30
9.75
27.64
48.13
71.02
95.70
120.92
144.88
165.67
181.80
192.54
198.10
199.32
196.98
191.24
181.26
165.38
141.84
109.89
70.80
28.18
-12.59
-45.93
-67.93
-77.77
-78.31
-73.93
-68.06
-61.36
-51.50
-34.29
-5.94
34.78
85.60
140.88
193.95
239.25
273.14
293.83
300.93
295.10
277.81
251.15
216.72
177.17
136.19
97.24
62.19
31.02
2.28
-26.34
-57.27
-95.25
-141.85
-194.09
-246.52
-294.06
-332.92
-360.70
-376.71
-382.13
-385.36
-391.31
-398.13
-401.10
-397.67
-388.23
-374.94
-360.76
-348.63
-349.82
-367.97
-395.68
-421.82
-440.17
-450.12
-453.60
-453.33
-451.81
-463.00
-491.97
-530.09
-563.64
-583.84
-587.72
-574.89
-546.55
-429.88
-218.15
24.22
224.53
357.34
433.98
475.37
498.89
514.66
526.69
523.55
500.80
466.81
434.58
412.51
400.79
397.61
401.29
410.72
415.36
409.38
394.45
374.04
347.80
313.38
270.93
223.51
175.02
123.78
71.53
22.99
-17.99
-51.75
-81.47
-110.06
-138.89
-167.47
-196.33
-223.14
-243.13
-252.52
-251.97
-246.38
-241.85
-242.64
-248.94
-257.88
-264.18
-262.86
-251.80
-232.41
-207.91
-180.69
-150.95
-117.12
-77.29
-30.72
21.52
76.95
132.50
184.71
229.78
263.55
282.12
283.00
266.17
234.50
193.16
148.31
105.65
69.51
42.56
26.18
20.69
25.31
38.03
55.56
73.83
88.72
97.15
97.75
91.11
79.16
64.07
47.23
28.86
8.41
-14.76
-40.79
-69.50
-100.67
-134.19
-169.20
-203.01
-230.46
-244.72
-239.58
-212.14
-164.21
-101.76
-32.42
37.70
105.73
171.38
234.59
293.14
342.12
375.54
389.51
384.57
365.84
340.59
314.71
290.12
264.58
233.87
195.03
148.39
97.39
46.58
-0.72
-43.49
-82.62
-119.62
-155.61
-191.01
-225.63
-258.59
-288.15
-311.68
-326.46
-331.00
-326.19
-315.12
-301.35
-286.74
-270.31
-249.24
-221.28
-187.07
-150.40
-116.29
-87.98
-65.15
-44.32
-21.46
5.19
33.88
60.18
79.53
89.53
90.89
86.62
80.23
74.16
69.22
64.92
60.34
54.79
48.13
40.59
32.51
24.05
15.33
6.44
-2.30
-10.30
-16.88
-21.48
-23.88
-24.34
-23.42
-21.68
-19.54
-17.06
-14.14
-10.66
-6.68
-2.42
1.86
6.09
10.45
15.32
21.03
27.62
34.77
41.87
48.18
53.09
56.22
57.42
56.74
54.30
50.40
45.64
41.04
37.95
37.66
40.86
47.05
54.52
60.88
64.07
63.38
59.63
54.57
49.87
46.27
43.31
39.88
35.00
28.65
21.97
16.62
13.90
14.14
16.58
19.68
21.55
20.41
15.45
7.50
-1.13
-7.37
-8.46
-3.10
7.89
21.65
33.93
41.62
44.26
43.56
41.88
41.14
42.37
45.83
51.23
56.69
60.63
62.42
61.56
57.14
48.89
38.43
29.10
24.56
25.16
30.02
38.39
49.13
59.72
67.00
68.36
61.75
45.19
14.18
-33.43
-94.41
-161.04
-223.77
-272.91
-300.00
-300.45
-260.51
-185.01
-100.62
-35.29
1.41
15.76
18.85
19.52
21.71
25.27
26.02
22.03
15.33
9.03
4.80
0.76
-4.67
-11.42
-17.45
-21.76
-22.32
-16.57
-3.48
14.91
34.38
50.99
62.15
67.09
62.42
48.62
29.46
10.03
-5.67
-15.75
-19.96
-19.23
-15.13
-9.92
-4.85
-0.44
2.92
4.28
2.33
-3.71
-13.54
-25.68
-38.09
-48.19
-53.96
-54.54
-50.37
-42.70
-32.78
-21.55
-9.65
2.23
13.32
22.55
28.92
32.04
32.37
31.00
29.06
27.33
25.93
24.65
22.98
20.28
15.69
8.13
-3.42
-19.47
-39.32
-60.88
-81.01
-96.45
-104.85
-105.50
-99.53
-89.52
-78.68
-69.91
-64.96
-64.05
-65.92
-68.45
-69.42
-67.10
-60.65
-49.96
-35.41
-17.77
1.86
21.89
40.43
55.67
66.50
72.82
75.46
75.56
74.02
71.16
66.76
60.44
52.14
42.51
33.09
26.04
23.49
26.75
35.57
48.09
61.25
71.84
77.55
77.53
72.40
63.79
53.63
43.70
35.26
28.99
24.99
22.83
21.81
21.31
21.06
21.19
22.00
23.61
25.71
27.70
29.05
29.60
29.64
29.48
28.87
26.57
20.63
9.24
-8.15
-30.08
-53.37
-74.16
-89.57
-98.80
-103.28
-105.60
-107.88
-110.40
-111.32
-107.64
-96.90
-78.65
-54.86
-29.23
-5.62
13.39
27.20
37.03
44.75
51.74
58.05
62.43
63.05
58.63
49.18
36.20
21.98
8.79
-1.90
-9.49
-13.77
-14.27
-9.98
0.14
16.25
36.73
58.02
75.37
84.37
82.45
69.79
49.34
25.90
4.64
-10.34
-17.03
-15.75
-8.60
1.61
12.51
22.78
32.25
41.27
50.07
58.30
65.08
69.41
70.66
68.84
64.34
57.38
47.48
33.43
13.79
-11.95
-42.57
-74.86
-104.40
-127.11
-140.88
-146.41
-146.73
-145.44
-144.67
-143.92
-140.41
-130.99
-114.37
-92.35
-69.39
-50.58
-39.37
-36.21
-38.98
-44.61
-51.13
-58.74
-69.38
-85.42
-108.07
-136.56
-167.99
-198.00
-221.51
-233.68
-230.92
-211.58
-176.14
-126.61
-65.62
4.14
79.56
156.10
227.08
284.18
319.66
329.26
314.45
282.47
244.00
209.56
186.10
175.50
174.95
178.91
181.07
176.05
160.23
132.40
94.46
51.59
11.87
-15.82
-24.62
-12.47
16.34
52.00
82.00
95.21
85.74
55.29
12.87
-28.10
-54.77
-59.75
-43.91
-15.62
13.63
34.73
44.84
47.38
48.42
51.84
56.83
59.38
56.47
50.16
47.40
55.97
78.53
109.04
134.14
139.17
115.97
67.67
7.98
-44.94
-76.91
-84.12
-74.52
-63.53
-66.40
-90.99
-134.33
-184.03
-223.85
-240.64
-229.79
-196.80
-154.59
-117.80
-96.54
-92.33
-98.00
-101.79
-93.55
-70.30
-38.25
-9.75
2.94
-6.12
-33.37
-67.44
-94.61
-104.81
-95.39
-71.06
-40.38
-11.40
11.49
28.12
40.81
51.65
60.61
65.19
61.65
47.19
21.86
-10.45
-42.94
-68.08
-80.21
-77.52
-62.55
-41.02
-19.44
-2.54
8.35
14.92
20.19
26.35
33.45
39.42
41.27
36.88
26.29
12.18
-1.67
-12.18
-18.53
-22.37
-26.84
-34.78
-47.00
-61.55
-73.74
-79.17
-75.85
-64.67
-47.95
-27.73
-5.27
18.40
41.50
62.93
80.72
92.89
99.00
101.38
104.10
110.38
120.80
133.46
148.41
165.51
183.58
200.18
212.79
219.47
218.88
210.66
195.68
179.91
168.70
164.21
165.44
171.02
181.14
197.03
219.78
224.92
198.27
143.46
78.16
18.40
-28.84
-63.10
-87.48
-106.59
-124.92
-141.46
-153.73
-160.05
-160.26
-156.39
-149.89
-142.10
-134.17
-126.58
-116.20
-100.81
-81.54
-62.79
-49.49
-44.39
-47.42
-56.43
-67.29
-73.92
-72.62
-63.79
-51.14
-38.81
-29.00
-21.60
-15.12
-7.94
1.30
12.10
22.24
28.75
29.40
23.58
12.08
-3.27
-20.09
-35.66
-47.91
-55.84
-59.62
-60.17
-58.58
-55.88
-52.93
-50.54
-49.63
-51.23
-56.07
-64.13
-74.35
-84.72
-93.01
-97.55
-97.86
-94.72
-89.80
-84.86
-81.20
-79.24
-78.68
-78.87
-79.18
-79.21
-78.76
-77.76
-76.07
-73.48
-69.70
-64.38
-57.31
-48.55
-38.44
-27.43
-16.08
-4.82
5.94
15.86
24.85
32.68
38.96
43.35
45.77
46.55
46.31
45.76
45.59
46.74
49.80
54.80
61.39
69.18
77.84
86.89
95.71
103.56
110.42
116.09
120.02
121.62
120.68
117.53
112.74
106.94
100.83
95.91
93.15
92.49
93.03
93.69
93.61
92.26
89.68
81.14
65.49
45.49
25.23
6.27
-12.30
-31.30
-49.52
-63.83
-72.30
-72.77
-65.82
-55.36
-47.04
-45.91
-54.89
-74.74
-105.02
-141.03
-176.67
-205.36
-221.09
-219.59
-199.43
-162.96
-116.25
-67.39
-23.77
10.41
34.67
51.10
62.82
72.50
81.62
90.49
98.90
106.71
113.86
120.03
124.35
125.57
122.59
115.06
103.63
89.89
76.02
64.03
55.39
50.77
50.19
53.20
59.00
66.48
74.22
80.67
84.44
84.63
80.99
73.79
63.48
50.52
35.38
18.78
1.82
-13.97
-26.92
-35.47
-38.39
-35.11
-26.16
-13.79
-2.44
1.82
-7.10
-32.84
-74.35
-125.40
-176.15
-216.46
-239.41
-243.51
-232.68
-214.09
-195.02
-180.08
-169.96
-162.01
-152.11
-136.91
-115.36
-88.91
-60.43
-32.66
-6.88
17.26
41.03
65.25
89.48
111.96
130.52
143.56
150.67
152.58
150.46
145.26
137.20
125.77
110.14
89.78
64.89
36.81
7.91
-18.67
-39.72
-52.74
-56.72
-52.53
-42.68
-30.47
-19.01
-10.23
-4.74
-2.07
-1.54
-2.79
-5.92
-11.11
-18.21
-26.68
-35.98
-45.98
-56.97
-69.19
-82.19
-94.48
-103.97
-109.09
-109.95
-108.58
-108.01
-110.50
-116.01
-121.87
-123.92
-118.48
-104.08
-81.93
-54.95
-26.14
2.72
31.28
59.75
87.66
113.24
133.67
146.27
149.67
144.27
131.95
115.13
95.99
76.13
56.81
39.50
26.01
18.19
17.15
22.57
32.41
43.44
52.15
55.98
54.07
47.38
38.09
28.67
21.01
15.85
12.65
9.75
4.96
-3.84
-18.04
-37.71
-61.44
-86.52
-109.60
-127.45
-137.75
-139.73
-134.37
-123.87
-110.90
-97.51
-84.52
-71.59
-57.88
-43.00
-27.49
-12.54
0.93
13.05
25.00
38.10
52.60
66.91
77.99
82.52
78.35
65.17
44.40
18.41
-10.06
-38.27
-63.48
-83.04
-94.79
-97.77
-92.73
-82.15
-69.65
-58.91
-52.69
-51.93
-55.45
-60.22
-62.42
-58.84
-48.29
-32.25
-14.30
1.41
12.06
17.31
19.37
21.98
28.82
42.18
62.35
87.49
113.90
136.62
150.43
151.51
139.23
117.07
91.95
71.86
62.62
65.50
76.74
89.53
97.50
97.95
93.24
89.59
94.00
110.79
139.62
175.48
210.68
237.34
249.31
242.93
217.27
174.12
118.24
57.35
1.20
-40.81
-62.60
-63.57
-48.68
-26.02
-3.38
14.41
26.05
32.29
33.91
30.53
21.05
4.97
-16.61
-41.11
-65.62
-88.11
-107.66
-123.72
-135.21
-140.07
-136.16
-122.67
-101.37
-76.48
-53.39
-36.73
-28.89
-29.66
-36.88
-47.60
-58.92
-68.34
-73.58
-72.62
-64.06
-48.00
-26.63
-4.24
13.86
23.05
21.06
8.67
-10.67
-32.26
-51.86
-66.88
-76.68
-82.07
-84.37
-84.61
-83.07
-79.40
-72.94
-63.29
-50.73
-36.45
-22.36
-10.61
-2.74
1.07
2.41
4.31
10.02
21.41
37.74
55.45
69.34
74.44
67.84
49.67
23.02
-7.01
-34.56
-54.24
-62.14
-56.88
-40.21
-16.95
6.24
22.97
29.33
25.19
13.87
0.34
-10.99
-17.76
-19.85
-18.55
-15.23
-10.51
-4.23
3.88
13.35
22.51
28.85
30.08
25.25
15.51
3.80
-6.32
-12.18
-13.15
-10.69
-7.39
-5.48
-5.83
-7.78
-9.93
-11.12
-11.13
-10.67
-10.68
-11.72
-13.56
-15.25
-15.65
-14.00
-10.25
-5.01
0.87
6.83
13.02
20.01
28.13
36.65
43.47
45.76
41.26
29.76
13.63
-2.76
-14.78
-19.32
-15.81
-5.96
7.34
21.28
33.82
43.62
49.62
50.77
46.39
36.68
23.30
9.28
-1.61
-5.97
-1.83
10.62
29.10
49.99
69.39
84.20
92.85
95.40
93.09
87.75
81.16
74.75
69.31
64.79
60.24
53.91
43.72
28.26
7.52
-16.66
-41.05
-62.23
-77.87
-87.55
-92.63
-95.39
-97.83
-100.98
-104.71
-108.20
-110.57
-111.18
-109.59
-105.42
-98.15
-87.28
-72.63
-54.76
-35.05
-15.49
1.89
15.58
24.97
30.44
32.99
33.87
34.10
34.28
34.59
34.92
35.00
34.52
33.30
31.44
29.47
28.16
28.25
29.90
32.44
34.43
34.18
30.44
22.93
12.53
0.95
-9.94
-18.85
-25.43
-30.26
-34.28
-38.19
-41.97
-44.75
-45.12
-41.72
-33.84
-21.80
-6.83
9.45
25.53
40.46
53.80
65.27
74.30
79.89
80.71
75.61
64.22
47.26
26.43
4.05
-17.66
-37.10
-53.58
-67.28
-78.84
-88.96
-97.99
-105.79
-111.80
-115.27
-115.57
-112.26
-105.20
-94.36
-79.83
-61.90
-41.25
-19.17
2.53
21.91
37.44
48.42
55.12
58.46
59.47
58.78
56.49
52.42
46.67
39.92
33.36
28.20
25.10
23.83
23.54
23.14
21.73
18.67
13.37
5.29
-5.90
-19.65
-34.32
-47.30
-56.06
-59.29
-57.70
-53.79
-50.64
-50.34
-52.96
-56.56
-58.10
-54.82
-45.37
-30.21
-11.27
8.92
27.98
44.23
56.92
66.12
72.43
76.51
78.68
78.67
75.88
69.73
60.33
48.63
36.25
24.68
14.60
5.67
-2.87
-11.33
-18.86
-23.51
-23.19
-16.91
-5.50
8.58
22.30
33.30
40.66
44.94
47.48
49.46
51.31
52.61
52.52
50.23
45.44
38.42
29.85
20.48
10.93
1.60
-7.13
-14.85
-21.12
-25.66
-28.48
-29.96
-30.62
-30.87
-30.90
-30.76
-30.77
-31.81
-35.30
-42.71
-54.72
-70.46
-87.35
-101.61
-109.46
-108.40
-97.93
-79.65
-56.47
-31.65
-7.89
13.11
30.65
44.85
56.33
65.81
73.79
80.26
84.65
86.10
83.94
78.17
69.45
58.66
46.33
32.29
16.06
-2.43
-22.05
-40.37
-54.32
-61.32
-60.39
-52.50
-40.19
-26.63
-14.59
-5.74
-0.47
1.72
1.73
0.15
-2.97
-8.10
-15.73
-25.86
-37.60
-49.25
-58.78
-64.33
-64.78
-59.87
-50.30
-37.58
-23.95
-12.09
-4.46
-2.58
-6.45
-14.53
-24.44
-34.19
-43.16
-52.25
-63.09
-76.69
-92.32
-107.20
-117.44
-119.71
-112.81
-98.42
-80.62
-64.34
-53.56
-50.03
-52.97
-59.82
-67.34
-72.69
-73.83
-69.50
-59.07
-42.54
-20.72
4.82
31.96
58.57
83.04
104.53
122.86
138.21
151.06
162.09
172.26
182.43
192.84
202.71
210.22
213.28
210.62
202.59
191.27
179.49
169.61
162.51
157.45
152.74
146.83
138.95
129.27
118.37
106.74
94.72
82.81
72.05
64.04
60.37
61.72
67.08
73.84
78.56
78.41
72.16
60.49
45.49
29.64
14.88
2.17
-8.46
-17.60
-25.91
-33.92
-41.93
-50.04
-58.25
-66.51
-74.67
-82.42
-89.26
-94.47
-97.14
-96.40
-91.72
-83.24
-71.99
-59.90
-49.63
-43.89
-44.65
-52.22
-64.80
-78.75
-89.65
-93.71
-89.07
-76.25
-57.70
-36.73
-16.34
1.44
15.54
25.62
31.62
33.76
32.65
29.37
25.32
21.80
19.62
18.96
19.50
20.59
21.63
22.07
21.47
19.45
15.72
10.12
2.72
-6.16
-16.05
-26.40
-36.70
-46.34
-54.37
-59.42
-59.86
-54.31
-42.35
-24.90
-4.12
17.30
37.06
53.83
67.27
77.36
83.59
84.85
79.99
68.89
52.93
34.74
17.04
1.52
-11.59
-23.11
-33.91
-44.19
-53.43
-60.90
-66.38
-70.33
-73.55
-76.59
-79.31
-80.93
-80.57
-77.62
-72.15
-64.82
-56.62
-48.46
-40.76
-33.39
-25.92
-18.03
-9.91
-2.34
3.50
6.53
6.22
2.80
-2.94
-9.54
-14.92
-17.25
-15.28
-8.53
2.64
17.22
34.08
52.20
71.02
90.47
110.09
128.84
145.54
159.25
169.57
176.58
180.19
180.57
178.80
176.05
173.79
173.95
178.01
185.73
194.53
198.71
192.89
175.67
147.92
112.56
74.49
38.25
6.15
-22.31
-52.28
-88.45
-130.26
-177.70
-230.92
-287.13
-340.52
-383.03
-406.44
-409.04
-392.47
-356.97
-310.62
-266.33
-233.70
-216.70
-213.53
-218.56
-230.14
-245.42
-254.13
-252.43
-242.69
-227.54
-210.00
-193.68
-151.37
-77.67
-25.28
-7.57
-9.27
-21.71
-36.27
-45.88
-46.30
-36.60
-23.33
-11.56
3.73
24.43
48.47
74.71
101.93
128.45
152.17
167.29
170.60
167.53
161.43
152.76
142.76
132.45
122.10
111.27
96.98
78.22
60.10
47.03
41.64
46.12
60.91
84.15
111.84
137.41
154.50
159.72
150.54
126.44
90.80
50.41
13.67
-12.40
-25.35
-27.81
-26.03
-28.03
-40.16
-64.03
-96.02
-128.79
-153.95
-164.80
-158.10
-134.71
-98.98
-57.14
-15.51
21.17
50.51
72.09
86.31
93.44
93.27
85.77
72.21
55.67
40.43
30.44
27.52
30.66
36.75
42.32
45.32
45.69
44.76
43.89
43.42
42.57
40.07
35.28
28.59
21.21
14.46
9.10
5.14
2.13
-0.36
-2.48
-4.20
-5.63
-7.36
-10.40
-15.78
-23.99
-34.55
-46.06
-56.55
-64.03
-66.98
-64.58
-56.73
-44.22
-28.92
-13.89
-3.08
-0.26
-7.65
-24.88
-48.97
-75.42
-99.89
-119.49
-133.05
-140.34
-141.09
-134.36
-118.89
-94.00
-60.59
-21.32
19.78
58.46
91.34
116.68
134.58
146.54
154.55
159.90
162.43
160.45
151.72
134.87
110.53
81.44
51.34
23.36
-1.24
-23.02
-43.25
-62.51
-79.86
-93.32
-101.02
-102.39
-98.41
-90.94
-81.62
-71.20
-59.62
-46.72
-32.98
-19.71
-8.50
-0.53
4.09
6.22
7.16
8.10
9.90
13.16
18.55
26.92
39.14
55.68
76.02
98.45
120.23
138.32
150.54
156.29
156.52
152.83
146.12
135.83
120.32
98.27
70.14
38.59
7.63
-19.21
-40.24
-55.77
-66.84
-73.69
-75.22
-69.88
-57.24
-39.22
-19.76
-3.16
8.00
14.07
18.09
24.28
35.80
53.12
73.29
90.70
99.01
93.53
73.05
40.25
0.54
-40.19
-77.49
-109.18
-134.62
-153.16
-163.17
-162.36
-149.16
-124.41
-91.89
-57.40
-26.73
-3.71
10.80
18.32
21.42
22.22
21.55
18.96
13.61
5.14
-5.58
-16.52
-25.13
-29.28
-27.89
-21.07
-9.71
5.08
22.33
41.24
60.87
79.97
97.04
110.70
119.98
124.43
123.86
118.22
107.47
91.93
72.56
51.06
29.53
9.92
-6.39
-18.91
-27.93
-34.34
-39.31
-43.96
-49.10
-55.11
-61.98
-69.38
-76.80
-83.54
-88.80
-91.72
-91.66
-88.54
-83.16
-77.17
-72.48
-70.48
-71.25
-73.40
-74.65
-72.91
-67.36
-58.79
-49.11
-40.40
-33.87
-29.42
-25.86
-21.53
-14.97
-5.27
7.87
24.12
42.45
60.90
76.65
86.59
88.21
80.63
65.24
45.50
26.02
11.18
4.01
5.44
14.36
28.01
42.90
55.64
63.59
65.35
60.92
51.55
39.44
27.26
17.46
11.52
9.32
9.13
8.35
4.71
-2.58
-12.37
-22.10
-29.03
-31.46
-29.38
-24.08
-17.31
-10.37
-3.74
2.59
8.54
13.55
16.60
16.71
13.59
7.95
1.43
-3.89
-6.14
-4.39
1.12
9.08
17.65
25.15
30.62
33.99
35.81
36.80
37.32
37.20
35.88
32.78
27.58
20.47
11.99
2.81
-6.52
-15.76
-24.91
-34.11
-43.55
-53.33
-63.30
-72.87
-81.00
-86.25
-87.16
-82.73
-72.91
-58.64
-41.63
-23.71
-6.37
9.58
23.75
35.91
45.67
52.53
56.23
57.03
55.71
53.31
50.63
47.93
44.93
41.21
36.61
31.46
26.49
22.36
19.29
16.85
14.23
10.54
5.21
-1.82
-10.19
-19.32
-28.61
-37.49
-45.54
-52.50
-58.47
-63.93
-69.53
-75.64
-81.89
-87.01
-89.11
-86.46
-78.21
-64.79
-47.76
-29.23
-11.16
5.27
19.77
32.97
45.93
59.67
74.55
89.92
104.00
114.36
118.63
115.18
103.63
84.85
60.86
34.52
9.23
-11.48
-24.64
-28.51
-23.22
-10.77
5.51
21.86
35.03
42.88
44.50
40.21
31.17
19.06
5.61
-7.82
-20.53
-32.40
-43.56
-54.04
-63.55
-71.66
-78.08
-82.86
-86.22
-88.21
-88.44
-86.19
-80.94
-72.97
-63.60
-54.83
-48.36
-44.72
-42.82
-40.21
-34.15
-22.80
-6.05
14.24
34.98
53.14
66.92
76.45
83.25
89.09
94.57
98.51
98.38
91.64
77.17
56.01
30.93
5.31
-17.98
-37.22
-51.53
-60.33
-62.94
-58.84
-48.24
-32.61
-14.62
2.54
16.10
24.42
27.36
26.03
22.36
18.43
15.86
15.17
15.50
14.82
10.77
1.84
-11.69
-27.55
-42.29
-52.73
-57.13
-55.53
-49.33
-40.26
-29.90
-19.49
-10.20
-3.22
0.66
1.64
1.31
2.08
6.23
14.72
26.74
40.07
52.13
60.96
65.71
66.56
64.30
59.96
54.59
49.15
44.34
40.43
37.29
34.52
31.76
28.82
25.53
21.38
15.37
6.31
-6.46
-22.28
-38.92
-53.07
-61.53
-62.50
-56.27
-45.09
-32.09
-20.15
-10.94
-4.78
-1.11
0.69
0.92
-0.30
-2.52
-4.47
-4.38
-0.88
6.05
14.70
22.42
27.04
27.96
26.17
23.04
19.03
13.15
3.83
-9.52
-25.37
-40.28
-50.47
-53.65
-50.03
-41.91
-32.28
-23.38
-16.03
-9.83
-4.02
1.78
7.26
11.66
14.19
14.51
12.98
10.70
9.21
10.04
14.09
21.16
29.99
38.58
44.84
47.35
45.79
41.07
35.02
29.89
27.79
30.15
37.24
47.87
59.24
67.18
67.10
55.30
30.51
-5.09
-45.91
-84.16
-112.17
-124.76
-120.78
-103.11
-77.23
-49.10
-23.27
-2.08
14.03
25.55
33.03
36.70
36.79
34.14
30.36
27.61
27.74
31.45
37.84
44.78
49.78
51.00
47.90
41.46
33.72
27.13
23.79
24.92
30.38
38.55
46.44
50.28
46.66
33.84
12.88
-12.13
-34.97
-49.34
-51.07
-39.66
-18.33
7.26
31.16
48.93
58.53
60.00
54.67
44.33
30.94
16.65
3.73
-5.75
-10.65
-11.30
-9.53
-7.86
-8.39
-11.71
-16.70
-21.09
-22.63
-20.16
-14.06
-6.05
1.65
7.13
9.36
8.34
4.97
0.69
-2.89
-4.47
-3.50
-0.45
3.22
5.59
4.98
0.65
-6.96
-16.60
-26.87
-36.74
-45.80
-53.93
-60.93
-66.20
-68.95
-68.54
-64.86
-58.45
-50.25
-41.25
-32.18
-23.37
-14.82
-6.40
1.84
9.54
16.01
20.42
22.13
21.04
17.79
13.66
10.10
8.23
8.36
9.89
11.50
11.64
9.00
2.88
-6.62
-18.48
-30.92
-41.64
-48.40
-49.76
-45.71
-37.90
-29.12
-22.35
-19.56
-21.07
-25.53
-30.63
-34.05
-34.26
-30.77
-24.03
-15.02
-4.92
5.07
13.87
20.86
26.08
30.33
34.81
40.54
47.63
55.08
61.02
63.46
61.03
53.48
41.61
26.91
11.13
-4.17
-17.69
-28.55
-36.30
-41.02
-43.15
-43.35
-42.14
-39.77
-36.21
-31.46
-25.77
-19.83
-14.67
-11.29
-10.25
-11.27
-13.01
-13.47
-10.83
-4.47
4.49
13.39
19.04
18.94
12.17
-0.40
-16.48
-32.91
-46.11
-52.62
-49.78
-36.85
-15.85
8.43
29.77
42.79
45.16
38.44
27.03
15.87
8.35
5.33
5.72
7.87
10.71
14.03
17.99
22.30
26.11
28.45
29.01
28.63
29.01
31.85
37.93
46.59
55.97
63.72
67.89
67.41
62.17
52.81
40.41
26.28
11.95
-1.06
-11.47
-18.56
-22.35
-23.50
-22.93
-21.43
-19.40
-16.89
-13.71
-9.82
-5.44
-1.20
2.12
3.75
3.24
0.64
-3.38
-7.61
-10.37
-9.94
-5.00
4.70
17.83
31.48
41.70
44.92
39.35
25.98
8.49
-8.11
-19.33
-23.01
-20.07
-14.00
-9.30
-9.67
-16.58
-28.90
-43.51
-56.62
-65.09
-67.33
-63.45
-54.80
-43.09
-29.79
-15.82
-1.83
11.44
22.90
31.41
36.29
37.85
37.53
37.35
39.00
42.76
47.08
49.14
46.17
36.89
22.25
5.20
-10.62
-22.16
-28.21
-29.39
-27.26
-23.20
-17.91
-11.56
-4.40
2.76
8.97
13.02
14.20
12.85
10.29
8.22
7.92
9.84
13.59
18.84
24.82
30.80
36.46
41.92
47.51
53.50
59.89
66.39
72.95
78.52
81.46
80.37
74.91
66.13
56.10
47.07
36.57
24.42
11.41
-1.83
-15.06
-27.57
-37.87
-44.44
-46.80
-47.55
-47.55
-47.33
-46.68
-44.60
-39.69
-31.20
-19.74
-7.45
5.49
17.77
28.11
35.96
41.69
45.85
48.32
47.81
42.25
29.74
9.69
-17.08
-48.45
-81.72
-114.27
-144.11
-169.73
-189.84
-203.19
-209.10
-208.20
-202.81
-196.44
-192.31
-191.52
-191.97
-188.74
-176.05
-150.04
-110.73
-62.28
-11.36
35.58
74.69
105.48
129.94
150.79
169.68
186.72
200.93
211.16
217.00
218.96
218.06
215.16
210.39
203.16
192.69
178.84
162.63
146.12
131.42
119.44
108.77
95.70
75.64
45.26
4.55
-42.63
-89.86
-130.67
-160.99
-180.37
-191.31
-197.45
-201.61
-204.76
-206.29
-205.05
-200.48
-193.06
-183.96
-174.36
-164.88
-155.52
-145.90
-135.81
-125.36
-115.05
-105.57
-97.57
-91.39
-87.01
-84.03
-81.75
-79.44
-76.47
-72.46
-67.31
-60.94
-53.10
-43.23
-30.56
-14.43
5.37
28.51
54.32
82.27
112.14
143.83
176.55
207.65
232.22
243.66
235.79
205.48
154.77
91.38
26.91
-26.60
-60.43
-71.80
-64.07
-44.70
-21.86
-1.47
14.18
25.78
35.08
43.08
49.25
52.24
51.25
47.07
42.00
38.72
38.83
41.90
45.82
48.06
47.09
43.24
38.50
35.55
36.44
41.80
50.87
62.13
74.08
85.61
95.94
104.16
108.99
108.95
102.94
90.70
73.07
51.73
28.61
5.39
-16.67
-36.66
-53.88
-67.87
-78.54
-86.34
-92.10
-96.66
-100.48
-103.42
-105.03
-104.85
-102.86
-99.58
-95.82
-92.25
-88.95
-85.36
-80.50
-73.51
-64.10
-52.84
-41.02
-30.09
-21.02
-13.86
-7.52
-0.03
10.76
26.51
47.63
72.88
99.53
123.95
142.59
152.97
154.17
146.90
132.86
113.94
91.54
66.34
38.58
8.66
-22.31
-52.38
-79.09
-100.20
-114.48
-122.16
-124.92
-125.38
-126.04
-128.14
-130.90
-131.37
-125.31
-108.87
-80.47
-42.08
0.88
41.02
71.56
88.62
92.37
86.39
75.72
64.70
55.57
48.56
42.82
37.55
32.53
27.86
23.33
18.00
10.47
-0.31
-14.28
-29.94
-44.81
-56.34
-62.84
-63.99
-60.68
-54.51
-47.16
-39.84
-33.12
-26.96
-20.95
-14.60
-7.58
-0.01
7.50
13.95
18.21
19.47
17.59
13.28
7.86
2.87
-0.40
-1.23
0.57
5.05
12.16
21.61
32.41
42.42
48.55
47.65
37.59
18.09
-9.35
-42.11
-77.37
-112.31
-143.83
-168.05
-180.48
-177.13
-156.14
-118.91
-70.07
-16.04
36.97
84.68
125.12
158.12
184.13
203.42
215.86
221.21
219.59
211.60
198.19
180.36
158.91
134.51
107.88
79.95
51.94
25.24
1.10
-19.56
-36.37
-49.48
-59.36
-66.56
-71.53
-74.47
-75.46
-74.56
-72.09
-68.61
-64.83
-61.44
-58.81
-57.03
-55.90
-55.10
-54.22
-52.76
-49.93
-44.77
-36.31
-23.94
-7.87
10.75
29.99
47.51
61.09
69.03
70.25
64.51
52.40
35.47
15.95
-3.68
-21.53
-36.88
-50.36
-63.28
-76.61
-90.10
-102.11
-110.34
-112.96
-109.60
-101.42
-90.50
-78.68
-66.90
-55.07
-42.71
-29.64
-16.27
-3.50
7.78
17.10
24.46
30.08
34.14
36.66
37.66
37.38
36.46
35.86
36.42
38.44
41.14
42.52
39.58
29.07
8.51
-22.49
-61.50
-103.24
-140.64
-166.75
-176.64
-168.81
-145.36
-111.09
-71.81
-32.78
2.39
31.95
55.67
74.06
87.86
97.71
104.19
108.01
110.03
111.20
112.29
113.64
115.02
115.83
115.38
113.18
109.11
103.19
95.41
85.74
74.18
61.15
47.54
34.48
22.81
12.58
2.87
-7.69
-20.16
-34.52
-49.45
-62.87
-72.85
-78.46
-80.08
-79.11
-77.15
-75.23
-73.54
-71.50
-68.27
-63.24
-56.33
-47.94
-38.59
-28.65
-18.06
-6.55
6.13
19.76
33.49
45.91
55.35
60.23
59.49
52.69
40.21
23.31
4.08
-14.79
-30.50
-40.88
-44.99
-43.35
-37.61
-29.86
-21.95
-15.12
-10.16
-7.61
-7.99
-11.67
-18.53
-27.65
-37.46
-46.18
-52.41
-55.47
-55.39
-52.72
-48.27
-42.95
-37.66
-33.16
-29.75
-27.08
-24.24
-20.09
-13.74
-4.97
5.71
17.33
28.71
38.75
46.47
51.18
52.63
51.16
47.78
43.87
40.93
40.18
42.62
48.98
59.77
74.93
93.52
113.15
130.32
141.41
144.09
138.48
127.62
116.88
112.20
117.78
134.20
157.75
181.54
198.02
201.87
191.80
170.40
142.31
111.91
81.80
52.86
25.38
0.11
-21.48
-38.15
-49.94
-58.62
-66.99
-77.32
-90.25
-104.60
-118.27
-129.27
-136.76
-141.18
-143.66
-145.32
-146.69
-147.48
-146.68
-142.90
-134.85
-121.84
-104.11
-82.96
-60.62
-39.74
-22.90
-11.79
-6.82
-6.98
-10.34
-14.88
-19.37
-23.76
-28.99
-36.18
-45.77
-57.06
-68.22
-76.87
-80.82
-78.54
-69.32
-53.25
-30.98
-3.72
26.80
58.34
88.30
113.90
132.68
142.91
144.16
137.44
124.99
109.60
93.74
79.04
66.07
54.76
44.82
36.08
28.42
21.50
14.68
7.17
-1.43
-10.80
-19.89
-27.29
-31.92
-33.41
-32.25
-29.46
-26.16
-23.14
-20.86
-19.40
-18.72
-18.81
-19.69
-21.38
-23.79
-26.66
-29.44
-31.45
-31.96
-30.43
-26.72
-21.25
-15.11
-9.96
-7.76
-10.35
-18.91
-33.48
-52.74
-74.15
-94.46
-110.48
-119.91
-121.93
-117.31
-108.02
-96.34
-84.03
-71.73
-58.95
-44.67
-28.13
-9.52
9.95
28.43
44.22
56.42
65.12
71.12
75.38
78.49
80.45
80.85
79.24
75.48
69.91
63.29
56.40
49.73
43.29
36.68
29.45
21.40
12.79
4.29
-3.36
-9.64
-14.40
-17.85
-20.30
-22.07
-23.34
-24.28
-25.07
-26.02
-27.48
-29.73
-32.88
-36.77
-41.01
-44.99
-48.10
-49.90
-50.24
-49.28
-47.43
-45.09
-42.51
-39.63
-36.18
-31.88
-26.68
-20.98
-15.63
-11.68
-10.13
-11.55
-15.77
-21.82
-28.06
-32.61
-33.81
-30.75
-23.52
-13.02
-0.64
12.19
24.42
35.41
44.82
52.41
57.93
61.17
62.16
61.20
58.91
55.94
52.66
48.98
44.46
38.60
31.11
22.08
11.99
1.55
-8.46
-17.23
-23.97
-28.01
-28.86
-26.51
-21.56
-15.16
-8.80
-3.89
-1.49
-2.09
-5.52
-11.05
-17.47
-23.30
-27.07
-27.68
-24.68
-18.28
-9.16
1.72
13.49
25.46
37.23
48.61
59.50
69.81
79.38
87.82
94.44
98.27
98.24
93.48
83.69
69.36
51.80
32.87
14.54
-1.65
-14.98
-25.55
-34.03
-41.16
-47.16
-51.53
-53.14
-50.78
-43.79
-32.56
-18.58
-4.09
8.68
18.07
23.36
24.73
22.97
18.99
13.71
7.96
2.56
-1.71
-4.26
-4.99
-4.43
-3.64
-3.84
-5.93
-10.06
-15.54
-20.99
-24.78
-25.50
-22.51
-16.06
-7.24
2.38
11.10
17.51
20.69
20.28
16.61
10.69
4.16
-1.03
-3.24
-1.88
2.22
7.02
10.04
9.53
5.18
-1.67
-8.77
-13.88
-15.64
-13.82
-9.06
-2.33
5.52
13.88
22.23
29.92
36.23
40.51
42.49
42.46
41.08
39.12
36.99
34.55
31.20
26.25
19.34
10.64
0.81
-9.28
-18.90
-27.49
-34.64
-39.85
-42.42
-41.53
-36.68
-27.98
-16.39
-3.55
8.70
18.85
26.15
30.63
32.93
33.96
34.57
35.41
36.86
39.01
41.60
44.05
45.52
45.16
42.40
37.29
30.53
23.30
16.89
12.29
9.91
9.68
11.13
13.60
16.35
18.71
20.15
20.49
19.82
18.43
16.62
14.44
11.58
7.53
1.88
-5.31
-13.45
-21.59
-28.83
-34.66
-39.23
-43.15
-47.17
-51.74
-56.86
-62.12
-67.03
-71.34
-75.03
-78.12
-80.17
-80.02
-76.12
-67.28
-53.60
-36.86
-20.05
-6.21
2.91
7.58
9.89
12.60
17.82
26.04
36.08
45.66
52.48
55.02
52.96
46.97
38.30
28.31
18.22
9.05
1.66
-3.28
-5.44
-5.03
-2.90
-0.38
1.01
0.06
-3.79
-10.31
-18.55
-27.18
-35.01
-41.35
-46.29
-50.56
-55.11
-60.56
-66.81
-73.00
-77.99
-80.89
-81.39
-79.82
-76.85
-73.22
-69.44
-65.83
-62.54
-59.37
-55.61
-49.99
-41.00
-27.64
-10.11
9.86
29.44
45.70
56.72
62.27
63.59
62.64
61.09
59.76
58.58
57.07
54.90
52.04
48.54
44.13
38.11
29.81
19.35
8.16
-1.06
-5.30
-2.52
7.24
21.70
37.06
49.42
56.11
56.42
51.47
43.52
35.05
28.00
23.53
21.89
22.55
24.31
25.46
24.12
18.68
8.37
-6.40
-24.04
-42.13
-58.16
-70.29
-77.76
-80.96
-80.97
-78.89
-75.40
-70.47
-63.64
-54.40
-42.72
-29.26
-15.34
-2.46
8.25
16.42
22.51
27.39
31.81
35.93
39.25
40.80
39.70
35.59
28.93
20.87
12.89
6.40
2.27
0.73
1.44
3.79
7.11
10.81
14.42
17.38
19.02
18.57
15.50
9.80
2.23
-5.84
-12.93
-17.94
-20.53
-21.09
-20.44
-19.42
-18.55
-17.99
-17.56
-16.93
-15.67
-13.37
-9.81
-5.17
-0.21
3.80
5.46
3.84
-1.04
-8.14
-15.81
-22.34
-26.67
-28.52
-28.26
-26.43
-23.36
-19.04
-13.26
-5.90
2.84
12.35
21.83
30.43
37.57
42.91
46.44
48.30
48.68
47.83
46.00
43.52
40.68
37.69
34.48
30.63
25.51
18.50
9.26
-2.03
-14.71
-27.72
-39.85
-49.98
-57.18
-60.82
-60.77
-57.32
-51.35
-44.17
-37.27
-32.01
-29.27
-29.20
-31.24
-34.32
-37.08
-38.29
-37.07
-33.04
-26.39
-17.62
-7.45
3.51
14.77
26.02
37.08
47.65
57.36
65.76
72.48
77.31
80.26
81.54
81.35
79.80
76.88
72.52
66.72
59.66
51.72
43.33
34.87
26.49
18.10
9.53
0.79
-7.73
-15.15
-20.24
-21.83
-19.13
-12.05
-1.34
11.58
24.81
36.30
44.09
46.56
42.78
32.84
18.05
0.92
-15.40
-27.90
-34.59
-35.13
-30.77
-23.83
-16.77
-11.36
-8.29
-7.21
-7.23
-7.42
-7.18
-6.33
-5.04
-3.60
-2.22
-0.85
0.80
3.13
6.37
10.30
14.10
16.57
16.48
13.10
6.54
-2.32
-12.15
-21.58
-29.48
-35.07
-37.99
-38.34
-36.68
-33.98
-31.49
-30.29
-30.92
-33.21
-36.37
-39.30
-41.02
-40.90
-38.71
-34.52
-28.55
-21.20
-13.00
-4.55
3.50
10.67
16.69
21.60
25.67
29.31
32.91
36.68
40.64
44.60
48.25
51.24
53.25
54.09
53.66
51.92
48.91
44.54
38.55
30.58
20.35
8.10
-5.17
-17.57
-26.78
-30.66
-28.03
-19.12
-5.65
9.65
23.75
34.11
39.12
38.35
32.35
22.32
9.72
-3.99
-17.57
-29.96
-40.36
-48.26
-53.58
-56.61
-57.87
-57.87
-56.78
-54.41
-50.35
-44.31
-36.39
-27.20
-17.52
-8.08
0.77
9.05
16.92
24.39
31.10
36.33
39.22
39.13
35.90
30.00
22.41
14.33
6.75
0.19
-5.44
-10.72
-16.40
-23.13
-31.17
-40.27
-49.74
-58.61
-65.81
-70.38
-71.62
-69.25
-63.36
-54.39
-42.93
-29.64
-15.13
0.05
15.35
30.11
43.67
55.43
65.01
72.34
77.60
81.06
82.90
83.19
82.03
79.75
76.95
74.23
71.78
69.02
64.59
56.98
45.29
30.00
13.10
-2.52
-14.25
-20.86
-23.11
-23.39
-24.73
-29.42
-38.17
-49.90
-62.33
-72.98
-79.98
-82.55
-80.88
-75.68
-67.79
-58.01
-47.06
-35.73
-24.84
-15.02
-6.50
1.02
8.22
15.81
24.10
32.79
40.95
47.47
51.54
52.88
51.90
49.38
46.11
42.50
38.51
33.67
27.33
18.97
8.37
-4.25
-18.30
-32.82
-46.64
-58.52
-67.39
-72.48
-73.45
-70.45
-63.90
-54.45
-42.85
-29.85
-16.31
-3.23
8.32
17.38
23.38
26.32
26.81
25.77
24.10
22.25
20.16
17.39
13.41
7.92
1.03
-6.78
-14.75
-21.95
-27.41
-30.19
-29.63
-25.71
-19.22
-11.81
-5.52
-2.13
-2.38
-5.69
-10.37
-14.26
-15.66
-13.81
-8.97
-2.09
5.80
13.84
21.46
28.13
33.24
36.16
36.52
34.49
30.89
26.99
24.17
23.39
24.99
28.63
33.40
38.03
41.19
41.65
38.63
31.92
22.12
10.52
-1.16
-11.30
-18.90
-23.95
-27.38
-30.65
-35.12
-41.40
-49.01
-56.59
-62.44
-65.19
-64.35
-60.39
-54.34
-47.25
-39.66
-31.47
-22.20
-11.42
0.84
13.93
26.81
38.38
47.88
54.99
59.82
62.73
64.04
64.03
62.89
60.70
57.49
53.15
47.35
39.63
29.49
16.68
1.41
-15.48
-32.59
-48.22
-60.86
-69.65
-74.69
-76.96
-77.86
-78.61
-79.73
-80.76
-80.50
-77.54
-70.86
-60.23
-46.30
-30.31
-13.77
1.95
15.77
27.01
35.40
41.00
44.18
45.51
45.64
45.18
44.58
44.02
43.44
42.60
41.27
39.29
36.65
33.46
29.95
26.35
22.86
19.55
16.38
13.18
9.74
5.88
1.60
-2.91
-7.35
-11.52
-15.47
-19.48
-23.77
-28.22
-32.15
-34.53
-34.34
-31.20
-25.62
-18.89
-12.63
-8.18
-6.20
-6.57
-8.67
-11.78
-15.38
-19.14
-22.86
-26.22
-28.80
-30.08
-29.73
-27.73
-24.42
-20.40
-16.20
-12.15
-8.31
-4.53
-0.71
3.08
6.57
9.43
11.48
12.77
13.58
14.28
15.18
16.34
17.67
18.95
20.01
20.77
21.26
21.56
21.74
21.91
22.12
22.39
22.62
22.43
21.30
18.60
14.02
7.78
0.90
-5.02
-8.18
-7.29
-2.14
6.17
15.41
22.97
26.65
25.39
19.48
10.36
0.14
-9.12
-15.83
-19.12
-18.83
-15.41
-9.76
-3.05
3.39
8.33
10.89
10.82
8.54
5.08
1.72
-0.42
-0.83
0.29
2.10
3.60
4.01
3.10
1.18
-1.16
-3.45
-5.63
-8.18
-11.87
-17.42
-25.08
-34.39
-44.30
-53.36
-60.14
-63.54
-62.99
-58.59
-51.00
-41.39
-31.05
-21.18
-12.55
-5.41
0.45
5.43
9.85
13.74
16.90
19.03
19.93
19.51
17.83
15.01
11.28
6.97
2.59
-1.27
-4.08
-5.62
-5.98
-5.52
-4.69
-3.73
-2.53
-0.57
2.85
8.31
15.95
25.25
35.08
43.86
49.93
51.91
48.93
40.82
28.18
12.33
-4.83
-21.08
-34.34
-43.07
-46.60
-45.08
-39.22
-29.78
-17.29
-1.99
15.85
35.54
55.79
74.85
90.96
102.85
109.96
112.47
110.96
106.12
98.57
88.95
78.06
66.91
56.55
47.77
40.71
34.80
28.85
21.48
11.76
-0.36
-13.84
-26.84
-37.31
-43.72
-45.57
-43.48
-38.70
-32.58
-25.96
-19.05
-11.65
-3.62
4.71
12.60
19.10
23.49
25.49
25.24
23.07
19.28
14.15
8.08
1.79
-3.73
-7.55
-9.28
-9.37
-9.08
-9.94
-13.10
-18.82
-26.44
-34.66
-42.14
-47.93
-51.68
-53.49
-53.74
-52.81
-50.93
-48.14
-44.34
-39.29
-32.76
-24.64
-15.16
-4.87
5.37
14.59
21.89
26.69
28.81
28.54
26.58
23.92
21.54
20.04
19.37
18.73
16.78
12.14
4.03
-7.20
-20.00
-31.89
-40.15
-42.76
-39.22
-31.05
-21.44
-14.28
-12.79
-18.33
-29.88
-44.57
-58.91
-70.01
-76.31
-77.54
-74.15
-66.78
-56.05
-42.74
-28.15
-14.00
-2.05
6.55
11.72
14.36
15.86
17.47
19.78
22.62
25.35
27.23
27.89
27.44
26.43
25.60
25.50
26.29
27.72
29.37
30.96
32.60
34.75
38.00
42.59
48.24
54.14
59.27
62.86
64.67
65.04
64.59
63.95
63.37
62.73
61.61
59.47
55.87
50.51
43.25
34.19
23.65
12.30
1.07
-8.98
-17.04
-22.97
-27.49
-32.09
-38.59
-48.46
-62.22
-79.24
-97.87
-115.80
-130.47
-139.27
-139.84
-130.37
-110.15
-80.16
-43.30
-4.06
32.48
61.93
81.56
90.63
89.99
81.42
66.98
48.82
29.26
10.53
-5.69
-18.92
-30.15
-41.03
-52.36
-62.74
-68.07
-62.65
-41.31
-1.59
54.92
122.70
193.53
258.10
307.75
335.72
338.20
314.86
268.92
206.58
135.83
64.88
0.69
-51.93
-90.54
-114.96
-126.83
-129.10
-125.39
-119.29
-113.55
-109.66
-107.77
-107.01
-106.29
-104.86
-102.66
-100.20
-98.18
-96.93
-96.19
-95.22
-93.22
-89.81
-85.22
-80.15
-75.42
-71.59
-68.73
-66.49
-64.34
-61.82
-58.68
-54.91
-50.58
-45.81
-40.71
-35.35
-29.82
-24.24
-18.74
-13.33
-7.94
-2.39
3.48
9.73
16.25
22.81
29.10
34.83
39.82
43.93
47.04
48.98
49.48
48.18
44.77
39.01
30.82
20.27
7.69
-6.20
-20.15
-32.48
-41.40
-45.54
-44.57
-39.40
-31.97
-24.65
-19.42
-17.31
-18.27
-21.42
-25.56
-29.57
-32.70
-34.51
-34.84
-33.68
-31.17
-27.57
-23.30
-18.81
-14.53
-10.71
-7.39
-4.36
-1.30
2.05
5.73
9.52
12.96
15.54
16.86
16.78
15.46
13.33
10.98
9.07
8.18
8.66
10.57
13.60
17.21
20.68
23.30
24.50
23.95
21.71
18.37
14.99
12.86
13.04
15.80
20.36
25.13
28.33
28.84
26.59
22.59
18.21
14.49
11.72
9.53
7.38
5.02
2.76
1.21
0.91
2.00
4.12
6.66
9.08
11.16
13.04
15.04
17.44
20.25
23.20
25.84
27.76
28.79
28.99
28.61
27.90
26.99
25.78
24.07
21.60
18.32
14.47
10.68
7.91
7.24
9.52
15.06
23.36
33.16
42.78
50.56
55.28
56.35
53.86
48.38
40.79
32.13
23.46
15.91
10.43
7.66
7.75
10.29
14.37
18.86
22.72
25.27
26.26
25.75
24.00
21.26
17.75
13.78
9.72
6.04
3.12
1.20
0.35
0.49
1.58
3.60
6.57
10.55
15.55
21.64
28.96
37.82
48.53
61.28
75.79
91.27
106.38
119.54
129.29
134.70
135.60
132.57
126.73
119.37
111.61
104.13
97.13
90.44
83.73
76.72
69.22
61.24
52.94
44.56
36.42
28.81
21.93
15.69
9.58
2.68
-6.22
-18.14
-33.59
-52.13
-72.50
-92.81
-111.10
-125.81
-136.03
-141.62
-143.06
-141.30
-137.50
-132.93
-128.72
-125.66
-123.87
-122.63
-120.56
-115.99
-107.67
-95.32
-79.97
-63.63
-48.56
-36.49
-28.01
-22.51
-18.65
-15.08
-10.95
-6.17
-1.20
3.37
7.18
10.30
13.04
15.69
18.15
19.82
19.83
17.29
11.79
3.60
-6.43
-17.08
-27.20
-36.02
-43.21
-48.86
-53.20
-56.51
-59.01
-60.80
-61.88
-62.08
-61.07
-58.53
-54.33
-48.71
-42.36
-36.24
-31.18
-27.51
-24.83
-22.22
-18.64
-13.37
-6.26
2.34
11.91
22.15
33.11
45.07
58.35
73.11
89.40
107.05
125.56
143.82
159.77
170.52
173.12
165.68
148.46
124.19
97.29
72.51
53.50
42.01
38.05
40.70
48.85
61.48
77.38
94.70
110.76
122.43
126.93
122.81
110.53
92.31
71.32
50.43
31.13
13.27
-4.44
-23.16
-42.97
-62.59
-80.11
-94.07
-104.37
-112.35
-120.02
-129.06
-140.07
-152.61
-165.44
-176.93
-184.99
-187.12
-180.66
-163.65
-136.00
-100.13
-60.68
-23.11
7.94
29.89
42.44
46.83
44.66
37.09
24.45
6.47
-17.04
-45.80
-78.31
-110.95
-137.69
-151.05
-144.71
-116.63
-70.93
-17.03
33.65
72.09
94.47
102.16
99.25
89.38
73.99
52.81
25.84
-5.08
-36.10
-62.98
-83.12
-96.72
-106.34
-115.66
-127.97
-144.96
-166.22
-188.69
-206.85
-213.68
-202.41
-169.19
-115.34
-48.31
19.70
75.22
107.77
113.29
94.97
61.47
23.16
-11.45
-37.74
-54.90
-64.27
-67.50
-65.70
-59.50
-49.85
-38.43
-27.40
-18.57
-12.73
-9.69
-9.12
-11.64
-19.29
-34.39
-57.46
-85.33
-110.55
-123.20
-114.44
-80.42
-24.58
42.80
107.73
156.87
181.51
179.49
154.87
115.75
71.54
30.48
-1.63
-21.89
-29.86
-26.99
-15.93
0.00
17.23
32.46
43.30
48.72
49.40
47.40
45.33
45.28
47.97
52.55
57.15
59.81
59.39
56.00
50.78
45.23
40.58
37.43
35.80
35.31
35.50
35.82
35.69
34.47
31.69
27.27
21.63
15.64
10.17
5.43
0.53
-6.69
-19.24
-40.22
-71.53
-112.85
-160.96
-209.24
-248.62
-269.86
-266.15
-234.90
-178.45
-103.63
-20.70
58.08
120.94
159.01
168.11
149.69
110.56
61.06
12.08
-28.02
-56.13
-72.92
-80.80
-82.38
-79.74
-74.27
-66.90
-58.54
-50.30
-45.50
-45.60
-48.97
-52.44
-53.94
-53.37
-52.05
-51.93
-54.73
-65.99
-86.83
-112.31
-135.03
-150.35
-157.60
-158.91
-157.54
-156.70
-166.34
-190.12
-222.29
-252.83
-274.98
-286.92
-290.20
-287.88
-283.49
-290.11
-313.46
-347.58
-380.76
-404.61
-415.63
-413.16
-397.74
-307.44
-131.77
81.20
267.72
397.38
472.73
509.36
523.03
525.40
523.26
509.81
481.69
443.61
404.33
366.69
329.35
290.68
251.40
214.00
174.13
131.14
90.13
57.75
36.54
25.32
21.57
26.53
38.96
51.87
60.27
63.37
62.37
57.02
45.98
28.76
6.85
-16.84
-40.38
-60.43
-72.40
-72.38
-59.15
-33.90
0.70
41.14
82.86
120.25
148.59
165.39
170.82
167.10
157.88
146.89
136.79
128.16
120.19
111.58
101.58
90.52
79.57
70.04
62.61
57.10
52.50
47.78
42.19
35.42
27.47
18.49
8.82
-0.94
-9.76
-16.40
-19.70
-19.13
-15.20
-9.37
-3.67
0.05
0.64
-2.02
-7.22
-13.81
-20.75
-27.46
-33.93
-40.54
-47.61
-55.04
-62.17
-67.84
-71.00
-71.07
-68.36
-63.85
-58.78
-54.10
-50.28
-47.34
-45.22
-44.12
-44.39
-46.43
-50.24
-55.24
-60.40
-64.46
-66.28
-65.14
-60.73
-53.10
-42.59
-29.70
-15.11
0.32
15.54
29.44
40.86
48.87
52.91
53.10
50.22
45.64
40.88
37.12
34.83
33.65
32.65
30.80
27.48
22.71
17.06
11.36
6.33
2.29
-0.76
-3.12
-5.17
-7.34
-10.03
-13.59
-18.23
-23.88
-30.08
-35.85
-39.75
-40.21
-35.97
-26.67
-13.12
2.67
18.09
30.72
39.00
42.47
41.36
36.17
27.30
15.34
1.35
-12.99
-25.88
-36.27
-44.59
-52.58
-62.23
-74.37
-87.71
-99.00
-104.38
-101.01
-88.18
-67.44
-41.92
-15.22
9.47
29.86
44.79
54.31
59.51
62.20
64.31
67.24
71.50
76.70
81.91
86.12
88.62
89.05
87.50
84.46
80.74
77.07
73.43
68.73
60.90
47.65
27.74
1.85
-27.22
-55.38
-78.43
-93.22
-98.20
-93.42
-80.24
-61.07
-39.16
-18.07
-0.76
11.33
18.78
23.97
29.94
38.83
50.96
64.87
78.22
89.05
96.66
101.46
104.28
105.54
104.87
101.39
94.29
83.24
68.41
50.14
28.80
5.01
-19.77
-42.86
-60.46
-68.63
-64.54
-47.61
-19.85
14.66
50.77
83.40
108.52
123.68
128.17
122.84
109.77
91.63
71.14
50.45
30.96
13.43
-1.92
-15.14
-26.40
-35.54
-42.31
-46.54
-48.33
-47.99
-46.01
-43.26
-41.11
-41.25
-44.88
-52.23
-62.39
-73.67
-84.40
-93.55
-101.63
-110.37
-121.76
-135.88
-150.57
-161.92
-165.70
-158.80
-139.27
-108.01
-68.62
-26.82
13.26
49.08
79.68
104.94
125.28
143.18
160.21
176.13
188.36
197.23
204.28
211.26
218.54
225.19
232.49
240.18
245.81
243.91
234.22
218.85
200.85
182.12
163.67
150.11
144.06
144.58
145.29
145.05
144.63
145.57
148.15
126.06
68.61
-13.65
-79.17
-125.31
-156.21
-180.25
-198.41
-210.67
-217.44
-215.87
-205.60
-189.91
-176.77
-167.80
-161.67
-155.82
-149.20
-142.05
-132.33
-119.70
-106.44
-98.51
-97.17
-101.53
-109.52
-119.66
-131.02
-141.48
-150.77
-161.25
-177.95
-202.11
-231.58
-260.88
-283.10
-291.54
-280.74
-249.34
-200.54
-141.45
-78.80
-18.22
36.50
82.93
120.01
148.01
167.79
180.46
187.06
189.16
188.30
185.68
181.79
176.58
169.58
160.17
147.80
132.18
113.24
91.15
66.16
38.55
8.62
-23.11
-55.70
-87.61
-116.67
-140.38
-156.41
-163.30
-160.88
-150.54
-134.86
-116.97
-99.67
-84.79
-72.92
-63.58
-55.69
-48.06
-39.80
-30.55
-20.53
-10.38
-0.96
7.05
13.38
18.17
21.87
25.02
28.14
31.70
36.13
41.69
48.05
54.00
57.50
56.43
49.71
38.00
23.58
9.19
-3.52
-14.82
-26.44
-39.94
-54.97
-68.69
-76.75
-75.44
-63.62
-43.36
-18.85
5.63
27.42
45.99
62.18
76.94
90.40
101.87
110.52
116.12
119.37
121.45
123.35
125.23
126.29
125.19
120.67
112.09
99.69
84.62
68.63
53.63
41.22
32.24
26.50
23.02
20.43
17.68
14.30
10.40
6.14
1.33
-4.73
-12.97
-23.96
-37.45
-52.21
-66.47
-78.48
-87.09
-91.94
-93.31
-91.84
-88.12
-82.61
-75.59
-67.33
-58.19
-48.69
-39.46
-31.09
-24.05
-18.69
-15.48
-15.02
-18.06
-25.09
-35.95
-49.69
-64.73
-79.45
-92.65
-103.74
-112.48
-118.47
-120.82
-118.13
-109.05
-92.83
-69.81
-41.47
-10.10
21.68
51.45
77.36
98.32
114.00
124.50
130.09
130.96
127.24
119.23
107.67
93.76
78.92
64.39
50.86
38.39
26.62
15.20
3.96
-6.82
-16.65
-24.89
-30.91
-34.10
-33.90
-29.82
-21.68
-9.93
4.08
18.17
29.74
36.62
37.79
33.89
26.83
19.12
12.78
8.80
7.06
6.86
7.40
8.10
8.56
8.55
8.18
8.35
10.92
18.30
32.37
53.25
78.53
103.76
123.67
133.67
130.82
114.29
85.41
47.78
7.23
-29.18
-55.01
-66.90
-65.97
-57.34
-47.53
-41.18
-39.11
-38.56
-35.70
-28.38
-17.48
-6.10
2.46
6.58
6.76
4.65
1.68
-1.62
-5.43
-9.88
-14.47
-18.19
-20.20
-20.47
-20.03
-20.55
-23.63
-30.02
-39.27
-49.81
-59.40
-65.85
-67.56
-64.03
-55.90
-44.76
-32.82
-22.30
-15.01
-11.90
-12.94
-17.21
-23.29
-29.67
-35.21
-39.28
-41.76
-42.77
-42.54
-41.19
-38.73
-35.19
-30.74
-25.78
-20.98
-17.11
-14.88
-14.68
-16.46
-19.70
-23.57
-27.21
-30.02
-31.78
-32.71
-33.22
-33.65
-34.04
-34.07
-33.06
-30.24
-24.90
-16.56
-4.97
9.86
27.77
48.39
71.16
95.19
119.21
141.67
160.91
175.62
185.14
189.74
190.47
188.70
185.67
181.97
177.61
172.22
165.62
158.23
151.06
145.38
142.08
141.26
141.99
142.69
141.64
137.54
129.72
118.12
103.13
85.28
65.28
43.89
21.88
-0.22
-22.40
-45.16
-69.34
-95.41
-122.93
-150.24
-174.81
-194.13
-206.52
-211.69
-210.43
-204.00
-193.41
-179.18
-161.55
-141.01
-118.71
-96.37
-75.86
-58.51
-44.73
-34.01
-25.29
-17.65
-10.80
-5.36
-2.54
-3.63
-9.32
-19.31
-32.40
-46.84
-60.95
-73.49
-83.77
-91.33
-95.71
-96.25
-92.30
-83.56
-70.45
-54.16
-36.53
-19.54
-4.92
6.28
13.86
18.36
20.79
22.29
23.72
25.57
28.00
31.00
34.54
38.60
43.06
47.51
51.29
53.57
53.68
51.42
47.09
41.33
34.76
27.63
19.67
10.34
-0.82
-13.77
-27.86
-42.05
-55.31
-66.95
-76.84
-85.08
-91.78
-96.80
-99.88
-100.75
-99.20
-94.94
-87.34
-75.44
-58.30
-35.57
-8.04
22.30
52.74
80.60
103.75
120.96
131.91
136.80
136.30
131.48
123.50
113.43
102.19
90.89
81.30
75.59
75.38
80.48
88.37
94.99
96.62
91.76
81.68
69.15
56.39
43.52
28.83
10.64
-10.53
-31.21
-46.22
-51.29
-45.37
-31.20
-13.91
1.39
11.39
15.18
13.79
8.90
1.83
-6.66
-16.20
-26.28
-35.93
-43.93
-49.25
-51.56
-51.47
-50.30
-49.63
-50.73
-54.11
-59.46
-65.82
-71.93
-76.67
-79.35
-79.85
-78.42
-75.40
-70.97
-65.04
-57.27
-47.25
-34.73
-19.80
-3.04
14.54
31.74
47.37
60.59
71.03
78.79
84.26
87.84
89.84
90.35
89.29
86.52
81.94
75.54
67.37
57.59
46.43
34.30
21.85
9.89
-0.68
-9.17
-15.20
-18.77
-20.21
-19.96
-18.48
-16.19
-13.51
-10.86
-8.61
-7.06
-6.46
-6.96
-8.78
-12.12
-17.07
-23.35
-30.32
-37.07
-42.64
-46.32
-47.78
-46.98
-44.16
-39.67
-34.02
-27.80
-21.59
-15.78
-10.44
-5.28
0.07
5.77
11.58
16.84
20.70
22.50
22.00
19.53
15.83
11.83
8.36
5.89
4.37
3.25
1.65
-1.39
-6.68
-14.69
-25.35
-38.11
-51.85
-65.03
-75.90
-82.90
-84.98
-81.90
-74.19
-62.93
-49.39
-34.72
-19.73
-4.98
9.14
22.29
34.10
44.29
52.69
59.26
64.08
67.20
68.67
68.51
66.86
64.04
60.49
56.70
52.88
48.89
44.21
38.16
30.18
20.14
8.36
-4.43
-17.16
-28.51
-37.06
-41.47
-40.80
-34.96
-24.91
-12.59
-0.38
9.58
16.06
18.92
18.93
17.14
14.37
10.95
6.85
2.10
-2.97
-7.62
-10.99
-12.49
-12.07
-10.16
-7.52
-4.85
-2.56
-0.76
0.65
1.79
2.75
3.49
3.96
4.08
3.79
3.04
1.76
-0.19
-2.94
-6.66
-11.40
-17.01
-23.01
-28.65
-33.03
-35.31
-35.07
-32.41
-28.02
-22.89
-18.17
-14.78
-13.33
-13.99
-16.57
-20.54
-25.08
-29.22
-31.99
-32.64
-30.79
-26.58
-20.55
-13.52
-6.28
0.60
6.86
12.49
17.57
22.11
25.93
28.65
29.79
29.08
26.64
23.13
19.58
17.05
16.08
16.40
16.88
15.93
12.10
4.74
-5.61
-17.23
-27.52
-33.70
-33.54
-26.06
-11.94
6.45
25.60
41.83
52.42
56.36
54.52
48.95
41.84
34.49
26.96
18.42
8.11
-3.89
-16.18
-26.55
-32.87
-34.04
-30.57
-24.42
-18.29
-14.58
-14.41
-17.25
-21.19
-23.72
-22.60
-16.50
-5.07
11.11
30.64
51.25
69.82
82.94
87.92
84.06
73.16
59.07
46.01
36.75
31.53
28.34
24.41
17.78
8.30
-2.80
-13.83
-23.57
-31.77
-38.75
-44.84
-50.00
-53.87
-56.11
-56.74
-56.26
-55.47
-55.12
-55.56
-56.57
-57.52
-57.66
-56.53
-54.25
-51.44
-49.01
-47.75
-47.91
-49.10
-50.30
-50.21
-47.62
-41.83
-32.77
-21.03
-7.76
5.64
17.88
28.07
35.93
41.75
46.22
50.18
54.23
58.48
62.52
65.60
66.99
66.22
63.15
58.00
51.16
43.11
34.33
25.53
17.85
12.86
12.09
16.36
25.47
38.10
52.16
65.15
74.86
80.06
80.85
78.23
73.56
68.22
63.61
60.56
58.92
57.78
56.27
54.42
52.97
52.74
54.39
58.43
64.24
69.77
72.16
69.46
62.07
52.42
43.35
37.44
36.54
40.11
44.94
46.14
39.57
23.79
-0.14
-30.51
-65.20
-101.69
-132.42
-147.00
-141.00
-120.26
-93.88
-66.94
-40.65
-18.19
3.33
23.52
38.89
44.95
39.15
22.18
1.24
-17.93
-30.58
-32.68
-22.56
-1.07
28.12
59.35
86.16
102.42
103.03
86.79
57.69
22.61
-11.36
-40.08
-63.38
-83.41
-101.53
-116.13
-121.37
-109.54
-76.68
-26.47
29.08
73.80
93.85
83.40
46.07
-7.13
-62.40
-107.85
-135.21
-139.69
-119.44
-76.01
-15.69
50.01
106.62
141.15
146.46
123.74
81.33
30.96
-16.69
-54.86
-81.41
-97.58
-106.39
-111.21
-114.30
-115.68
-112.58
-100.30
-74.84
-36.01
10.76
55.67
88.38
102.51
98.11
80.89
58.57
37.05
18.69
3.26
-9.74
-19.51
-24.30
-23.26
-17.98
-12.41
-11.09
-16.65
-28.51
-43.22
-56.32
-64.17
-65.25
-60.10
-50.89
-40.91
-33.84
-32.59
-37.51
-45.24
-49.28
-42.85
-23.04
6.28
34.80
50.03
43.26
14.04
-29.53
-74.74
-110.11
-129.76
-134.40
-128.87
-118.56
-107.05
-95.75
-85.14
-76.07
-69.94
-68.25
-71.36
-77.97
-85.26
-89.96
-89.64
-83.67
-73.51
-62.12
-52.75
-47.60
-46.93
-49.04
-51.09
-50.51
-46.26
-39.47
-32.89
-29.68
-31.88
-39.40
-50.07
-60.61
-67.97
-70.41
-67.96
-62.04
-54.73
-47.87
-42.19
-36.89
-29.69
-17.66
1.41
27.70
58.54
89.06
113.75
128.90
134.07
132.04
127.26
123.62
122.93
124.55
126.47
126.60
124.09
119.30
113.08
105.91
97.74
88.51
79.01
71.19
67.32
69.22
76.94
88.16
98.83
104.80
103.59
95.24
81.89
65.75
49.15
33.78
20.54
9.88
2.23
-2.06
-3.24
-2.96
-5.49
-13.83
-28.52
-47.83
-69.38
-91.44
-113.98
-138.27
-165.53
-197.55
-231.46
-261.11
-280.77
-288.79
-288.20
-284.72
-283.42
-286.29
-294.18
-301.97
-301.50
-286.34
-255.07
-211.23
-160.97
-110.07
-45.12
29.98
100.70
154.30
188.37
208.13
220.85
230.38
239.04
248.39
252.55
248.60
236.19
216.42
190.92
161.99
132.70
106.66
86.61
71.43
60.63
54.29
52.29
53.53
56.18
58.39
59.06
57.99
54.54
50.14
47.54
49.27
56.26
67.45
80.67
93.76
105.35
114.44
120.90
125.04
127.17
127.12
124.32
118.15
108.44
95.63
80.56
63.90
46.33
28.41
10.34
-8.47
-29.28
-53.50
-82.47
-112.76
-138.68
-156.18
-164.50
-165.19
-160.49
-152.64
-143.65
-137.56
-135.27
-138.23
-147.18
-160.46
-173.55
-180.20
-174.75
-154.20
-115.45
-61.68
-0.30
60.42
114.01
156.68
186.71
203.34
206.47
197.31
178.63
154.80
131.07
111.72
98.60
90.69
85.21
79.14
70.82
60.05
47.92
36.19
26.50
19.73
15.75
13.53
11.39
7.51
0.22
-10.74
-23.72
-35.89
-44.75
-49.45
-51.04
-51.66
-53.01
-55.81
-58.25
-56.45
-46.54
-26.87
1.47
35.76
72.56
108.29
137.82
156.40
161.59
154.08
137.66
118.43
103.36
96.61
97.23
97.19
87.38
63.82
29.37
-8.16
-39.76
-58.50
-63.18
-58.81
-57.34
-69.95
-101.01
-147.24
-200.38
-250.38
-287.46
-306.62
-291.96
-242.73
-178.36
-123.67
-89.76
-72.85
-67.32
-65.10
-62.73
-58.34
-52.06
-41.62
-18.45
22.22
77.73
132.72
170.03
180.50
166.35
135.05
97.10
63.75
44.74
41.18
49.84
65.71
82.82
96.03
101.16
97.63
86.32
71.64
57.95
47.77
41.51
36.90
30.01
16.23
-6.61
-36.90
-69.98
-101.03
-126.67
-145.54
-158.22
-166.10
-170.43
-171.13
-166.88
-155.98
-138.12
-114.74
-88.72
-63.54
-42.16
-26.00
-14.65
-6.25
1.45
9.64
17.89
24.30
26.41
22.39
11.84
-4.04
-22.71
-41.05
-56.08
-65.60
-68.89
-67.11
-63.16
-61.01
-64.25
-74.57
-90.83
-109.29
-124.80
-132.49
-129.06
-113.18
-85.13
-46.31
0.94
52.99
104.66
149.64
181.92
197.59
196.29
181.44
158.97
135.23
114.89
99.96
89.96
83.11
77.68
72.81
68.55
65.49
64.26
65.35
68.97
75.10
83.28
92.60
101.65
108.92
113.43
115.18
115.26
115.40
117.20
121.27
126.95
132.43
135.47
134.20
127.81
116.83
103.03
88.87
76.77
68.29
63.46
60.60
56.70
48.43
33.30
10.65
-18.00
-49.42
-79.80
-105.93
-126.03
-139.98
-148.89
-154.49
-158.46
-162.07
-165.91
-169.85
-173.00
-174.08
-171.80
-165.45
-155.26
-142.38
-128.30
-114.08
-99.87
-85.02
-68.97
-52.04
-35.70
-22.04
-12.59
-7.41
-5.05
-3.39
-0.75
3.28
8.01
12.48
16.35
20.21
25.15
31.84
39.90
47.91
54.03
56.84
55.89
51.74
45.61
39.00
33.29
29.56
28.50
30.33
34.80
41.37
49.41
58.32
67.49
76.14
83.13
86.98
86.18
79.69
67.33
49.93
29.20
7.19
-14.06
-32.99
-48.60
-60.38
-68.23
-72.20
-72.40
-68.97
-62.19
-52.67
-41.50
-30.12
-19.96
-12.09
-6.85
-4.04
-3.20
-4.04
-6.63
-11.29
-18.24
-27.39
-38.31
-50.46
-63.37
-76.57
-89.32
-100.36
-108.02
-110.80
-108.16
-100.87
-90.71
-79.63
-68.79
-58.14
-46.79
-33.72
-18.51
-1.52
16.48
34.84
53.30
71.90
90.57
108.77
125.49
139.50
149.72
155.47
156.69
153.96
148.55
142.25
136.90
134.01
134.34
137.96
144.62
154.03
165.89
179.38
192.62
202.50
205.36
198.10
179.38
150.12
113.00
71.35
28.17
-14.31
-54.43
-90.57
-121.01
-144.15
-159.05
-165.85
-165.72
-160.39
-151.68
-141.07
-129.67
-118.36
-107.81
-98.57
-91.00
-85.23
-81.27
-79.08
-78.65
-80.05
-83.41
-88.91
-96.65
-106.39
-117.21
-127.42
-134.72
-136.92
-132.79
-122.78
-109.00
-94.48
-81.94
-72.68
-66.21
-60.64
-53.71
-43.77
-30.30
-13.83
4.47
23.32
41.62
58.50
73.30
85.58
95.21
102.42
107.70
111.49
113.97
114.91
113.86
110.46
104.72
97.22
89.08
81.71
76.47
74.36
75.53
79.02
82.62
83.14
77.18
62.30
38.02
6.35
-28.54
-61.55
-88.22
-105.84
-113.88
-113.36
-105.84
-92.60
-74.35
-51.74
-25.97
0.88
26.17
47.54
63.80
75.22
83.11
88.74
92.41
92.98
88.41
76.85
57.76
32.31
2.96
-27.52
-56.97
-84.18
-108.54
-129.53
-146.34
-158.19
-164.86
-167.01
-165.88
-162.37
-156.22
-146.02
-130.03
-107.54
-79.74
-49.53
-20.29
5.59
27.58
46.79
64.89
82.85
100.33
115.93
128.01
135.46
137.97
135.90
129.85
120.53
108.73
95.51
82.32
70.86
62.86
59.64
61.80
68.88
79.20
90.06
98.09
100.06
93.61
77.87
53.70
23.54
-9.12
-40.43
-66.97
-86.35
-97.57
-100.98
-97.83
-89.66
-77.78
-63.06
-46.17
-27.94
-9.72
6.71
19.58
27.69
30.88
29.88
25.89
19.88
12.12
2.19
-10.55
-26.36
-44.63
-63.81
-81.75
-96.22
-105.37
-108.12
-104.34
-95.00
-82.22
-69.03
-58.73
-53.69
-54.35
-58.80
-63.37
-64.17
-58.74
-47.00
-31.14
-14.41
0.45
12.27
21.64
30.11
39.14
49.25
59.88
69.87
78.15
84.15
87.90
89.79
90.37
90.42
91.16
94.13
100.71
111.13
123.80
135.43
142.28
141.85
134.21
121.91
108.59
97.05
87.98
79.97
70.90
59.54
46.47
33.66
23.11
15.61
10.23
4.93
-2.26
-12.19
-24.19
-36.44
-46.71
-53.14
-54.69
-51.46
-44.89
-37.65
-33.27
-35.41
-46.80
-68.16
-97.65
-131.13
-163.29
-189.21
-205.57
-211.22
-206.80
-194.22
-175.80
-153.50
-128.55
-101.48
-72.49
-41.87
-10.64
19.47
45.77
65.16
75.32
75.68
67.55
53.76
37.86
23.16
12.68
7.75
7.91
11.56
16.96
22.53
27.25
30.83
33.52
36.85
41.75
48.09
55.36
63.40
72.09
81.18
90.36
99.10
108.27
117.96
126.95
133.24
135.00
130.60
119.29
101.85
72.32
32.92
-7.67
-40.99
-63.95
-77.35
-83.24
-85.19
-85.28
-85.74
-87.46
-91.04
-96.20
-101.24
-100.16
-88.50
-64.79
-31.16
6.97
44.16
75.46
97.65
110.05
114.51
113.57
109.61
104.21
97.61
89.71
79.57
65.82
47.51
24.78
-1.43
-29.38
-56.69
-80.83
-99.10
-109.59
-111.73
-106.38
-95.51
-81.97
-68.61
-57.57
-49.92
-45.46
-43.24
-42.10
-41.10
-39.64
-37.65
-35.43
-33.40
-32.02
-31.61
-32.26
-33.82
-35.88
-37.90
-39.32
-39.68
-38.72
-36.55
-33.65
-30.77
-28.81
-28.42
-29.78
-32.48
-35.73
-38.54
-40.29
-40.83
-40.47
-39.76
-39.19
-39.11
-39.75
-41.27
-43.66
-46.63
-49.40
-50.76
-49.45
-44.73
-36.86
-27.06
-17.07
-8.34
-1.62
3.24
7.01
10.61
14.73
19.65
25.45
32.16
39.95
48.66
57.60
65.68
71.68
74.64
74.12
70.41
64.43
57.63
50.99
44.85
39.40
34.91
31.58
29.10
26.39
22.06
15.52
7.00
-2.01
-8.51
-8.90
-0.79
15.71
37.96
61.96
84.46
102.75
114.88
119.96
117.92
108.83
92.72
70.06
39.20
5.26
-22.95
-39.85
-46.18
-46.26
-44.33
-42.67
-41.26
-38.71
-33.05
-24.15
-14.41
-6.61
-1.99
0.12
1.61
4.35
9.10
14.96
20.20
21.73
17.85
9.49
-0.34
-8.36
-12.43
-12.21
-8.64
-3.50
0.44
0.86
-3.14
-11.29
-22.61
-35.56
-48.17
-58.87
-61.81
-55.47
-41.99
-25.04
-8.48
4.79
13.56
18.65
21.98
25.25
27.73
26.21
18.32
3.67
-16.65
-40.97
-67.53
-94.80
-120.91
-144.41
-164.73
-179.34
-184.67
-178.49
-161.15
-134.94
-102.86
-66.57
-18.42
36.75
86.47
121.00
138.59
142.59
138.06
128.95
118.73
109.31
100.33
92.74
88.59
88.53
90.60
89.12
77.10
51.25
12.86
-33.31
-79.07
-115.68
-137.52
-144.47
-133.38
-112.11
-89.23
-70.78
-60.16
-58.00
-63.99
-73.03
-79.75
-79.02
-68.39
-46.88
-17.32
14.04
39.85
55.63
58.69
50.47
37.25
26.49
25.28
36.22
57.06
77.48
85.96
77.97
59.28
40.35
27.61
25.17
28.02
31.70
33.50
33.68
34.78
35.55
35.44
33.12
27.80
19.02
7.84
-4.36
-15.51
-23.48
-27.12
-26.37
-22.85
-18.49
-15.06
-12.87
-11.52
-9.96
-7.21
-2.94
2.69
8.87
14.78
19.73
23.55
26.09
27.31
27.23
25.81
23.24
19.53
14.79
9.07
2.62
-4.33
-11.43
-18.24
-24.28
-29.08
-32.48
-34.59
-35.72
-36.18
-36.23
-36.23
-36.84
-39.15
-44.49
-53.87
-67.30
-83.40
-99.46
-112.16
-118.64
-117.32
-108.37
-93.55
-75.58
-57.36
-41.14
-28.10
-18.20
-10.50
-3.71
3.20
10.63
18.40
25.90
32.47
37.46
40.30
40.48
37.70
32.20
24.95
17.50
11.49
7.97
7.06
8.01
9.75
11.48
13.04
14.77
17.05
19.91
22.78
24.72
24.70
21.94
16.14
7.49
-3.22
-14.51
-24.27
-30.10
-30.13
-23.88
-12.75
0.27
11.63
18.74
20.90
19.39
16.55
14.32
13.18
12.02
8.98
2.71
-6.58
-16.89
-25.11
-28.18
-24.40
-14.32
-1.06
10.29
14.07
5.92
-15.39
-47.14
-83.14
-115.68
-138.19
-147.45
-144.42
-133.33
-119.52
-107.03
-97.11
-87.94
-75.74
-56.42
-27.44
11.05
55.97
101.94
142.80
173.43
191.24
196.83
193.51
185.88
178.03
172.29
168.80
166.12
162.36
156.04
146.63
134.30
119.56
102.86
84.55
65.19
45.81
27.98
13.42
3.16
-3.06
-6.80
-10.30
-15.34
-22.30
-29.87
-35.76
-37.84
-35.24
-28.72
-20.28
-12.23
-6.33
-3.31
-2.92
-4.30
-6.38
-8.13
-8.95
-8.79
-8.17
-7.95
-8.87
-11.00
-13.60
-15.40
-15.24
-12.71
-8.45
-3.77
-0.02
2.12
2.88
2.99
3.08
3.12
2.22
-0.77
-6.44
-14.10
-21.61
-26.02
-24.68
-16.39
-1.84
16.66
36.21
54.42
70.00
82.68
92.55
99.43
102.71
101.71
96.31
87.28
76.13
64.51
53.55
43.56
34.26
25.24
16.38
7.96
0.46
-5.82
-10.78
-14.36
-16.19
-15.58
-11.78
-4.70
4.64
14.08
21.00
23.31
20.35
13.26
4.56
-2.92
-7.21
-7.80
-5.69
-2.70
-0.72
-1.00
-3.77
-8.25
-13.10
-16.92
-18.77
-18.34
-15.71
-11.33
-5.72
0.66
7.57
14.71
21.74
28.46
35.01
42.20
50.74
60.87
72.28
84.35
96.16
106.62
114.82
120.42
124.42
127.90
131.93
137.75
146.85
159.92
175.75
190.82
199.93
198.80
184.08
155.39
116.29
73.95
35.66
5.72
-15.77
-31.40
-42.54
-50.12
-53.90
-53.77
-50.59
-48.18
-52.49
-68.62
-104.62
-154.15
-200.26
-227.00
-230.66
-216.96
-195.12
-172.63
-153.19
-137.25
-122.30
-109.31
-98.40
-90.60
-85.58
-82.91
-81.82
-81.46
-81.03
-74.29
-61.98
-47.22
-36.69
-28.89
-20.16
-6.15
16.42
48.35
90.95
138.12
181.50
213.30
229.66
229.80
215.55
189.85
155.62
115.78
72.01
27.05
-15.84
-52.99
-82.44
-104.05
-119.29
-130.56
-140.12
-150.08
-160.22
-167.99
-168.72
-157.70
-131.92
-91.74
-41.70
10.31
54.84
84.26
94.63
86.25
62.58
29.03
-8.12
-42.33
-67.33
-78.09
-71.85
-49.69
-17.32
15.77
39.21
45.55
33.14
6.85
-24.05
-49.51
-62.28
-59.94
-44.69
-21.97
1.59
19.69
27.29
21.31
1.56
-28.60
-62.21
-90.21
-104.33
-99.99
-78.33
-46.06
-13.41
9.08
13.91
-1.12
-32.17
-70.57
-105.16
-125.58
-125.14
-102.58
-62.20
-12.30
37.52
79.05
107.36
121.19
122.00
112.69
96.73
77.54
58.44
42.66
32.89
30.58
35.28
44.20
52.60
55.13
47.48
27.99
-1.64
-36.94
-72.24
-102.59
-125.18
-139.58
-146.67
-147.20
-140.86
-126.74
-104.93
-77.72
-49.57
-25.61
-9.45
-1.96
-1.54
-5.76
-13.14
-23.59
-37.12
-52.55
-67.00
-76.92
-79.95
-76.34
-68.64
-60.26
-53.84
-50.15
-48.89
-50.02
-54.35
-63.37
-77.60
-95.62
-114.14
-129.81
-140.15
-144.57
-144.32
-141.17
-136.28
-129.22
-118.36
-102.14
-80.73
-55.07
-26.71
1.84
27.48
46.00
53.65
48.23
29.66
-0.28
-35.93
-69.20
-92.63
-101.37
-95.02
-75.94
-47.59
-14.15
19.20
49.34
75.21
96.55
113.97
127.12
135.89
139.85
148.39
160.69
169.25
169.16
157.41
141.37
124.98
107.83
92.01
75.73
55.39
30.09
1.90
-26.14
-51.14
-72.42
-89.46
-101.21
-106.75
-105.79
-97.50
-81.38
-58.74
-32.35
-6.69
14.52
29.24
36.54
36.38
30.46
21.71
13.05
6.81
3.75
3.82
6.62
11.40
17.51
25.08
34.86
47.28
62.04
77.61
91.88
102.86
109.10
110.13
106.57
99.72
90.92
81.15
70.96
60.77
51.20
43.04
37.15
34.06
33.74
35.52
38.33
41.01
42.64
42.69
41.12
38.35
35.23
32.78
31.94
33.16
36.27
40.42
44.46
47.28
48.31
47.60
45.74
43.44
41.15
38.62
34.81
28.06
16.65
-0.43
-22.88
-48.79
-75.07
-98.28
-115.62
-125.64
-128.38
-125.05
-117.45
-107.52
-96.97
-87.22
-79.36
-74.07
-71.48
-71.18
-72.38
-74.20
-76.00
-77.47
-78.61
-79.41
-79.64
-78.84
-76.42
-72.02
-65.74
-58.10
-49.83
-41.61
-33.81
-26.63
-20.13
-14.41
-9.63
-5.83
-2.90
-0.64
1.10
2.39
3.19
3.51
3.52
3.44
3.35
3.01
1.89
-0.61
-4.72
-10.15
-16.16
-21.92
-26.95
-31.27
-35.25
-39.21
-43.07
-46.14
-47.52
-46.47
-42.91
-37.52
-31.33
-25.18
-19.09
-12.23
-3.22
9.14
25.33
44.94
67.06
90.70
115.20
140.05
164.37
186.39
203.33
212.03
210.00
196.53
173.08
142.87
109.73
76.91
46.37
18.92
-5.17
-25.50
-41.33
-51.85
-56.81
-56.82
-53.17
-47.30
-40.23
-32.43
-24.00
-15.25
-7.02
-0.58
2.77
2.26
-1.86
-8.34
-15.31
-20.89
-23.84
-23.88
-21.66
-18.28
-14.63
-10.99
-6.98
-1.93
4.50
12.10
20.27
28.32
35.68
41.76
45.62
46.06
42.31
34.99
26.71
21.52
23.19
33.15
49.54
67.81
83.06
92.49
96.64
98.68
102.20
109.06
118.38
127.36
132.94
133.38
128.82
120.64
110.47
99.42
88.05
76.87
66.71
58.80
54.32
53.75
56.45
60.78
64.64
66.14
64.18
58.82
51.18
43.19
36.94
34.11
35.53
41.05
49.65
59.80
69.94
78.96
86.62
93.45
100.42
108.39
117.50
126.62
133.28
134.35
126.74
108.69
79.71
40.68
-6.16
-57.22
-108.01
-153.66
-189.82
-213.73
-224.41
-223.82
-216.43
-207.50
-201.20
-199.57
-202.18
-206.45
-208.91
-205.20
-192.46
-170.21
-140.02
-104.63
-67.68
-32.78
-2.61
20.99
38.56
50.78
57.59
58.62
53.93
43.75
28.95
11.00
-15.38
-48.52
-80.32
-102.99
-115.00
-120.08
-123.98
-132.51
-145.06
-157.50
-162.65
-154.52
-130.88
-93.26
-42.43
16.83
78.74
138.15
190.51
233.02
263.25
279.06
279.67
266.42
241.71
208.84
171.65
134.33
102.71
82.95
79.52
92.86
118.37
146.96
168.90
178.10
174.56
164.63
157.35
160.02
174.85
198.24
222.25
238.37
240.60
227.19
200.62
165.46
125.96
84.29
40.73
-5.23
-52.93
-99.82
-142.60
-179.39
-211.86
-245.06
-284.85
-333.97
-388.89
-439.35
-471.62
-474.06
-441.95
-379.44
-297.56
-209.77
-127.45
-57.69
-3.51
34.23
55.08
58.60
44.99
15.75
-26.25
-77.49
-134.20
-192.08
-245.86
-289.13
-314.86
-316.90
-292.17
-242.58
-175.95
-105.16
-45.20
-8.57
-0.49
-16.51
-44.13
-68.45
-78.93
-73.78
-59.57
-46.50
-42.36
-48.82
-61.36
-72.77
-77.74
-75.05
-66.84
-55.86
-43.45
-29.46
-14.12
0.74
11.54
13.32
1.83
-23.65
-58.61
-93.58
-116.91
-120.00
-100.10
-61.21
-14.21
27.43
53.75
62.63
60.33
57.84
64.34
84.01
115.44
150.61
178.50
190.63
183.58
159.52
132.20
112.59
104.95
110.88
127.58
149.40
170.78
187.81
197.79
198.36
186.75
156.06
112.31
71.38
46.56
39.29
41.71
44.05
40.25
28.98
13.50
-0.33
-9.70
-15.62
-20.92
-27.11
-33.27
-37.29
-38.24
-36.74
-34.37
-33.58
-36.91
-45.82
-59.23
-73.75
-84.68
-87.64
-79.52
-59.10
-28.67
7.27
43.02
74.25
99.03
117.17
128.62
132.73
128.76
110.47
77.64
35.02
-8.09
-40.92
-55.61
-50.31
-29.70
-2.83
20.38
33.57
34.53
25.36
11.01
-2.67
-10.75
-10.33
-1.09
14.51
32.50
47.31
53.38
46.69
26.26
-5.23
-41.86
-75.88
-99.83
-108.23
-99.94
-78.45
-50.55
-23.66
-3.20
9.11
15.45
20.48
29.01
43.21
61.29
77.73
85.24
77.90
54.11
17.74
-22.67
-56.79
-76.17
-77.30
-62.55
-38.71
-13.73
6.74
21.40
32.75
44.67
59.58
76.63
91.88
100.45
99.20
88.15
70.27
49.75
30.14
13.44
0.70
-6.77
-6.71
3.12
23.37
51.90
84.18
114.71
139.03
154.87
161.90
160.88
152.71
138.20
118.40
94.76
68.64
40.33
8.58
-28.38
-70.72
-114.76
-152.27
-172.53
-166.61
-131.81
-73.82
-5.62
56.82
99.90
116.53
107.24
78.21
37.54
-8.10
-55.13
-102.40
-149.27
-193.81
-232.31
-260.29
-274.31
-273.55
-259.73
-235.80
-203.96
-164.36
-115.47
-56.00
12.71
85.53
154.49
211.58
251.70
274.52
283.88
285.55
284.56
283.61
282.99
281.60
278.02
270.95
259.20
241.37
216.20
183.21
143.42
99.36
54.34
11.26
-28.40
-65.06
-100.70
-137.78
-177.72
-219.61
-259.73
-292.35
-311.60
-313.58
-297.74
-267.18
-227.49
-185.14
-146.00
-114.84
-95.15
-89.21
-97.92
-120.33
-153.32
-191.60
-228.52
-257.28
-272.56
-271.76
-255.83
-229.17
-198.51
-170.94
-151.81
-143.33
-144.38
-151.48
-160.21
-166.47
-167.14
-160.19
-144.76
-121.18
-91.15
-57.26
-22.29
11.77
44.08
74.36
101.82
124.17
137.80
139.18
127.04
103.65
74.59
46.65
25.20
12.39
7.18
6.92
9.27
13.35
19.37
27.60
37.40
47.46
56.84
65.90
76.59
91.42
112.14
138.70
169.34
201.44
232.34
259.59
280.55
291.96
290.01
271.45
234.87
181.78
116.53
45.23
-25.70
-90.76
-145.79
-187.80
-214.73
-225.64
-221.18
-204.00
-178.53
-150.01
-122.94
-99.95
-81.21
-64.92
-48.46
-29.76
-8.31
14.58
36.29
53.83
64.72
67.75
63.23
52.85
39.12
24.75
12.08
2.63
-2.88
-4.44
-2.49
2.26
8.95
16.57
24.04
30.41
35.07
37.97
39.75
41.55
44.59
49.56
56.23
63.26
68.64
70.29
66.74
57.55
43.25
25.08
4.63
-16.57
-37.14
-56.02
-72.49
-86.08
-96.51
-103.37
-105.94
-103.04
-93.32
-75.72
-50.32
-18.86
15.23
47.41
73.20
89.37
94.79
90.50
79.14
63.81
47.13
30.74
15.37
1.32
-11.05
-21.19
-28.63
-33.20
-35.34
-35.72
-34.82
-32.55
-28.29
-21.54
-12.69
-3.41
3.65
5.89
1.86
-8.20
-22.58
-39.05
-55.67
-71.14
-84.27
-93.46
-96.43
-91.00
-76.29
-53.67
-26.83
-0.61
20.78
35.17
42.94
46.31
47.86
49.28
50.65
50.67
47.58
40.21
28.72
14.80
1.14
-9.48
-15.15
-15.52
-11.83
-6.27
-1.19
1.72
1.85
-0.52
-4.56
-9.41
-14.40
-19.07
-23.04
-25.93
-27.26
-26.55
-23.34
-17.32
-8.57
2.31
14.03
24.80
32.84
37.01
37.31
34.94
31.84
29.81
29.83
31.69
34.49
37.33
39.97
43.09
47.71
54.44
62.80
71.17
77.50
80.25
79.10
74.97
69.40
63.69
58.38
53.12
47.18
39.93
31.13
20.94
9.72
-2.05
-13.87
-25.13
-35.12
-42.96
-47.65
-48.08
-43.19
-32.19
-14.98
7.50
33.12
58.88
81.53
98.40
107.98
110.32
106.64
98.83
88.96
78.94
70.04
62.56
55.87
48.82
40.46
30.26
18.25
5.12
-7.75
-18.46
-25.02
-25.69
-19.39
-5.81
13.53
35.15
54.48
67.32
71.16
65.68
52.86
36.27
21.16
11.17
6.86
6.39
7.11
6.69
3.49
-3.35
-13.66
-24.04
-32.36
-39.12
-45.86
-52.78
-58.47
-61.30
-60.62
-56.81
-47.17
-32.05
-15.91
-3.80
2.77
6.61
12.48
24.44
45.05
79.48
126.95
179.39
226.57
262.12
285.35
298.56
304.45
270.04
188.07
83.26
-10.40
-76.27
-115.01
-133.76
-137.43
-134.70
-130.48
-121.75
-107.00
-89.17
-72.70
-62.96
-60.52
-64.31
-73.33
-85.90
-96.27
-101.45
-103.24
-105.65
-111.00
-118.38
-125.31
-129.23
-127.65
-117.02
-97.54
-73.85
-51.99
-35.39
-23.36
-12.95
-1.94
9.32
18.05
18.71
5.95
-21.55
-59.31
-98.75
-131.55
-152.91
-161.92
-159.70
-147.85
-127.51
-99.58
-65.81
-29.43
5.22
34.40
56.86
73.91
88.15
101.22
112.38
118.68
116.84
105.55
86.85
66.09
50.05
44.03
49.58
63.53
79.70
91.53
94.63
88.01
73.61
54.67
34.08
13.78
-5.11
-21.37
-33.73
-41.59
-46.08
-50.05
-56.91
-68.41
-82.77
-94.87
-97.39
-84.09
-53.09
-8.29
42.03
88.44
123.81
145.45
154.25
154.97
154.06
156.86
165.98
181.21
200.24
219.31
233.76
236.86
224.58
196.31
153.67
99.28
37.27
-26.54
-85.10
-131.98
-166.62
-189.65
-203.12
-211.60
-222.01
-240.35
-269.23
-307.06
-349.00
-392.67
-431.38
-455.43
-456.50
-432.13
-385.49
-323.69
-255.23
-161.80
-51.96
48.94
122.60
169.61
199.17
220.75
239.21
255.68
270.19
278.73
281.85
280.46
277.80
275.76
275.22
276.31
278.32
279.36
273.47
257.74
233.28
203.28
169.81
133.73
95.13
53.82
9.69
-38.67
-89.17
-135.59
-169.62
-184.68
-178.26
-153.61
-119.48
-87.52
-69.09
-69.51
-86.74
-113.63
-142.59
-168.53
-189.63
-205.88
-216.79
-220.54
-213.91
-194.23
-161.47
-119.04
-72.42
-27.01
13.89
49.85
82.48
113.98
145.57
176.56
204.35
225.37
236.56
236.85
227.83
213.24
197.61
184.47
175.22
169.01
163.54
156.40
145.92
131.35
112.40
88.55
58.87
22.34
-21.38
-71.43
-125.38
-179.58
-229.94
-272.97
-306.94
-332.45
-352.20
-369.95
-389.09
-411.42
-436.73
-462.94
-486.75
-504.55
-513.29
-511.29
-498.64
-476.99
-448.91
-416.78
-382.11
-345.41
-306.87
-267.23
-228.08
-191.52
-159.07
-130.94
-105.98
-82.54
-59.54
-36.97
-15.66
3.75
21.58
39.47
60.02
85.99
119.43
160.86
208.79
259.75
308.99
351.64
384.02
404.61
414.15
414.90
409.54
400.13
387.75
372.72
355.16
335.51
314.63
293.64
273.52
254.83
237.61
221.45
205.91
190.86
176.80
164.82
156.04
150.83
148.03
144.81
137.15
120.95
93.39
54.12
5.68
-46.71
-96.37
-136.76
-163.23
-174.12
-170.79
-156.69
-135.91
-111.95
-87.16
-62.88
-39.99
-19.10
-0.61
15.53
29.89
43.27
56.21
68.56
79.47
87.69
92.11
92.19
88.22
81.24
72.77
64.45
57.39
51.85
47.11
41.85
34.85
25.63
14.75
3.55
-6.57
-14.84
-21.38
-27.02
-32.70
-38.97
-45.67
-52.17
-57.66
-61.52
-63.38
-63.12
-60.68
-56.09
-49.51
-41.33
-32.23
-23.01
-14.46
-7.11
-1.25
3.10
6.04
7.68
8.19
7.75
6.68
5.32
4.04
3.12
2.63
2.38
2.05
1.38
0.26
-1.15
-2.53
-3.48
-3.75
-3.36
-2.70
-2.33
-2.76
-4.16
-6.30
-8.62
-10.28
-10.36
-8.12
-3.28
4.05
13.39
24.06
35.40
46.80
58.28
70.52
84.22
99.24
114.34
127.31
135.76
138.20
134.50
127.03
119.96
116.97
119.13
124.29
128.12
125.67
113.07
87.79
50.06
2.69
-50.33
-104.47
-154.23
-193.30
-216.37
-221.47
-212.27
-195.66
-178.53
-165.42
-157.29
-151.40
-143.03
-128.70
-100.12
-58.61
-14.58
22.39
50.23
71.12
86.08
93.60
92.26
79.74
56.21
26.44
-1.33
-19.43
-24.48
-18.30
-2.74
16.82
34.71
46.77
52.41
54.14
55.05
56.51
58.12
58.74
57.15
52.99
46.24
37.07
25.79
12.48
-2.77
-19.26
-35.54
-50.52
-63.80
-75.88
-87.45
-98.45
-107.99
-114.77
-117.84
-117.14
-113.90
-109.70
-105.58
-101.23
-95.13
-85.41
-71.05
-52.53
-31.75
-11.39
6.23
19.88
29.52
35.95
40.29
43.59
46.59
49.75
53.15
56.52
59.33
60.97
61.02
59.37
56.15
51.36
44.60
34.97
21.56
4.07
-16.69
-38.87
-60.21
-78.98
-94.66
-107.88
-119.93
-132.03
-144.77
-158.07
-171.36
-183.83
-194.49
-202.33
-206.47
-206.36
-202.14
-194.68
-185.26
-174.96
-164.00
-151.63
-136.53
-117.72
-95.42
-71.43
-48.75
-30.59
-19.27
-15.59
-18.71
-26.75
-37.68
-50.02
-63.12
-76.93
-91.56
-106.99
-122.97
-139.17
-155.21
-170.52
-183.96
-193.61
-197.01
-191.77
-176.49
-151.57
-119.25
-83.08
-46.85
-13.49
15.57
40.28
61.47
80.13
96.84
111.74
124.70
135.70
145.22
154.47
165.30
179.46
197.44
217.39
234.80
243.62
238.26
215.97
178.08
129.88
78.92
32.93
-1.88
-21.51
-24.25
-10.64
16.28
51.19
87.39
118.79
141.92
157.05
167.64
178.42
193.43
214.85
242.96
276.74
314.06
351.50
384.07
405.95
412.37
401.68
376.44
342.39
305.78
270.53
236.92
202.71
165.41
124.45
81.73
40.47
3.28
-29.09
-57.58
-83.47
-107.12
-127.60
-143.71
-155.12
-163.09
-170.01
-178.15
-188.55
-200.55
-212.34
-222.11
-228.82
-232.60
-234.51
-235.74
-236.77
-236.94
-234.36
-226.69
-212.12
-190.46
-163.49
-134.66
-107.87
-86.07
-70.39
-60.09
-53.39
-48.59
-44.65
-41.32
-38.68
-36.74
-35.21
-33.56
-30.99
-26.58
-19.28
-8.16
7.34
27.12
50.43
76.03
102.73
129.85
157.27
185.17
213.36
240.72
265.10
283.86
294.84
297.16
291.57
279.87
263.97
245.07
223.44
198.90
171.62
142.40
112.35
82.16
51.68
20.31
-11.99
-43.59
-71.12
-90.57
-99.20
-97.01
-87.17
-74.83
-65.10
-61.26
-63.89
-71.27
-80.58
-89.10
-94.90
-97.03
-95.37
-90.42
-83.29
-75.64
-69.37
-66.16
-66.85
-71.03
-77.13
-83.09
-87.14
-88.45
-87.27
-84.66
-81.77
-79.40
-77.60
-75.84
-73.34
-69.38
-63.61
-56.00
-46.75
-36.19
-24.72
-12.89
-1.45
8.75
16.83
22.23
24.86
25.27
24.53
23.89
24.38
26.44
29.87
33.95
37.84
40.88
42.77
43.52
43.22
41.94
39.70
36.60
32.92
29.09
25.60
22.78
20.73
19.37
18.52
18.01
17.74
17.61
17.56
17.63
18.00
18.97
20.83
23.72
27.45
31.57
35.43
38.50
40.48
41.35
41.31
40.67
39.67
38.46
37.13
35.82
34.79
34.55
35.61
38.34
42.62
47.71
52.38
55.10
54.49
49.63
40.30
26.91
10.47
-7.52
-25.12
-40.18
-50.71
-55.46
-54.36
-48.71
-40.85
-33.40
-28.37
-26.60
-27.62
-30.02
-31.96
-31.59
-27.14
-16.84
0.88
26.90
60.55
99.18
138.64
174.59
204.20
227.09
244.75
258.86
269.16
272.70
264.85
241.71
202.70
151.65
95.73
42.89
-1.07
-34.41
-59.25
-80.06
-101.44
-126.45
-155.95
-189.20
-224.71
-260.68
-294.60
-322.40
-338.38
-336.54
-313.52
-271.11
-216.72
-160.73
-111.91
-73.52
-42.36
-11.71
23.60
63.15
100.45
126.28
133.71
121.82
95.87
64.29
34.67
11.49
-3.57
-9.59
-4.63
14.04
47.77
94.00
145.50
192.04
223.72
234.80
225.17
199.25
163.28
122.79
81.52
41.79
5.39
-26.08
-50.99
-68.48
-79.06
-84.37
-86.29
-85.78
-82.16
-73.57
-58.68
-37.29
-11.28
15.27
37.04
49.05
48.27
34.24
8.53
-27.20
-69.96
-115.73
-160.14
-198.96
-228.75
-246.85
-252.16
-245.61
-232.60
-218.09
-205.30
-195.93
-190.51
-189.06
-190.14
-191.34
-190.34
-189.58
-189.91
-190.31
-190.04
-190.44
-195.77
-209.73
-232.95
-261.74
-293.67
-320.73
-332.16
-320.33
-284.76
-233.00
-174.83
-117.80
-36.76
65.96
167.52
245.19
287.69
304.58
301.68
282.64
250.44
211.12
166.80
122.41
84.02
55.65
37.35
31.20
35.54
45.59
55.93
57.96
47.57
24.51
-5.37
-34.11
-54.07
-58.82
-44.34
-7.55
44.19
99.68
147.48
178.57
187.61
173.60
140.29
95.82
50.42
11.72
-14.72
-26.50
-24.70
-13.44
1.87
16.73
28.93
38.52
45.62
50.69
54.06
55.89
56.08
54.66
51.97
48.59
45.07
41.20
36.46
30.32
22.68
14.16
6.04
-0.19
-3.29
-2.80
0.72
6.24
12.95
20.74
30.14
41.72
55.26
69.31
81.62
90.15
94.23
95.05
95.13
97.24
103.20
113.18
125.89
139.21
150.98
159.52
163.75
163.08
157.27
146.46
131.22
112.63
92.11
71.14
50.84
31.73
13.71
-3.60
-20.32
-36.02
-49.85
-61.07
-69.75
-77.06
-84.85
-94.72
-106.99
-120.36
-132.31
-140.20
-142.38
-138.61
-129.85
-117.51
-102.79
-86.51
-69.25
-51.72
-34.86
-19.71
-7.12
2.30
8.47
11.77
13.00
13.24
13.53
14.52
16.25
18.20
19.61
19.98
19.28
17.91
16.51
15.44
14.76
14.20
13.45
12.28
10.55
8.14
4.93
0.83
-4.03
-9.25
-14.22
-18.31
-21.05
-22.20
-21.80
-20.11
-17.48
-14.28
-10.81
-7.19
-3.39
0.71
5.15
9.81
14.33
18.24
21.10
22.61
22.60
21.08
18.12
13.97
9.06
3.96
-0.70
-4.57
-7.74
-10.63
-13.81
-17.63
-22.00
-26.47
-30.53
-33.86
-36.49
-38.68
-40.64
-42.30
-43.32
-43.25
-41.82
-39.03
-35.10
-30.38
-25.05
-19.21
-12.86
-6.10
0.87
7.73
14.10
19.52
23.49
25.45
25.00
22.14
17.48
12.26
7.91
5.58
5.68
7.90
11.58
16.04
20.80
25.34
28.73
29.47
25.85
16.54
1.20
-19.39
-43.68
-69.83
-96.09
-120.99
-143.23
-161.89
-176.55
-187.59
-195.92
-202.56
-207.89
-211.43
-212.09
-208.90
-201.80
-191.81
-180.72
-170.21
-161.03
-152.55
-142.78
-128.87
-107.90
-78.17
-40.26
2.55
45.01
81.71
109.39
128.55
143.24
159.11
180.68
209.12
241.84
273.79
299.64
315.51
319.84
313.16
297.49
275.53
250.12
223.52
196.80
169.65
140.76
108.84
73.68
36.69
0.56
-31.67
-57.85
-77.33
-90.83
-99.82
-105.93
-110.39
-113.93
-117.12
-120.86
-126.80
-137.04
-152.98
-173.83
-195.77
-212.47
-217.23
-205.76
-178.16
-138.95
-95.11
-53.26
-17.50
11.11
33.67
51.92
67.36
81.18
94.83
110.35
130.26
156.76
190.92
232.02
277.35
322.49
362.25
391.75
407.56
408.38
395.05
369.96
336.05
296.08
252.25
206.33
159.87
114.17
70.06
27.79
-12.80
-51.59
-87.66
-119.13
-143.90
-160.72
-169.99
-173.83
-175.14
-176.32
-178.35
-180.67
-181.91
-180.88
-177.16
-171.17
-163.73
-155.75
-148.12
-141.95
-138.47
-138.66
-142.52
-148.71
-154.73
-157.84
-156.22
-149.56
-138.94
-126.05
-112.36
-98.80
-86.00
-74.72
-65.97
-60.63
-58.75
-59.30
-60.37
-60.10
-57.53
-53.00
-47.75
-43.01
-39.15
-35.28
-29.46
-19.51
-3.66
18.86
47.80
82.06
120.38
161.87
206.36
253.98
304.21
354.86
401.60
438.66
460.53
463.88
448.89
419.12
380.18
337.77
296.17
257.66
222.89
191.70
163.71
138.45
115.16
92.54
68.82
42.18
11.40
-23.45
-60.80
-97.87
-131.76
-160.59
-184.42
-205.24
-226.05
-249.40
-276.01
-304.38
-331.42
-353.83
-369.49
-378.17
-381.37
-381.36
-380.01
-378.02
-374.81
-369.00
-359.29
-345.32
-328.15
-309.99
-293.44
-280.32
-270.87
-263.44
-255.19
-243.09
-225.07
-200.52
-170.04
-134.98
-96.80
-57.00
-17.38
19.98
53.19
81.60
106.42
130.31
155.72
183.00
209.47
230.46
241.81
242.31
234.61
223.81
214.57
208.61
204.23
197.94
187.13
172.07
155.84
142.66
135.42
134.15
135.92
136.12
130.39
116.20
93.89
66.62
39.47
17.93
6.18
5.81
15.57
32.10
51.41
70.34
87.37
102.46
116.28
129.37
141.72
152.84
162.19
169.34
173.87
175.19
172.60
165.63
154.52
140.30
124.35
107.77
90.80
72.99
53.73
33.07
11.89
-8.48
-27.02
-43.70
-59.40
-75.34
-92.27
-110.17
-128.52
-147.08
-166.24
-186.93
-209.76
-234.15
-258.00
-278.09
-291.25
-295.43
-290.28
-276.97
-257.38
-233.18
-205.51
-175.18
-143.23
-111.20
-80.85
-53.51
-29.56
-8.53
10.45
27.76
42.85
54.30
60.56
60.89
55.92
47.29
36.96
26.66
17.58
10.26
4.77
0.81
-2.11
-4.46
-7.27
-11.89
-19.19
-28.81
-38.92
-46.51
-48.18
-41.32
-24.67
-0.26
27.08
51.93
70.61
82.18
88.07
91.02
93.61
98.37
105.32
112.53
118.07
121.72
124.54
127.96
132.90
139.36
147.69
155.90
160.25
157.25
145.52
125.34
97.55
62.85
13.70
-45.34
-100.43
-138.97
-156.36
-153.76
-135.59
-108.34
-79.05
-53.39
-33.00
-18.39
-8.90
-5.45
-8.55
-17.81
-31.72
-47.52
-61.67
-70.08
-71.41
-67.39
-61.14
-54.67
-49.41
-45.79
-43.81
-43.46
-44.42
-47.25
-53.10
-62.70
-75.39
-89.60
-103.35
-114.74
-122.32
-125.01
-122.81
-116.69
-108.01
-97.74
-86.63
-75.35
-64.82
-56.21
-50.35
-47.33
-45.98
-43.82
-37.63
-24.68
-3.70
24.82
59.14
97.10
136.51
175.02
209.76
237.49
255.34
262.13
259.17
250.02
239.07
229.72
223.13
218.19
212.55
204.09
191.82
176.09
158.08
139.20
120.65
103.22
87.29
72.79
59.30
46.36
33.66
21.22
9.38
-1.44
-11.00
-19.33
-26.70
-33.31
-39.23
-44.30
-48.39
-51.45
-53.68
-55.38
-56.88
-58.37
-60.05
-62.24
-65.51
-70.62
-78.34
-89.11
-102.89
-119.03
-136.38
-153.46
-168.63
-180.17
-186.58
-186.80
-180.62
-168.97
-153.87
-137.95
-123.48
-111.40
-100.69
-88.56
-71.32
-45.55
-9.27
37.32
91.37
147.59
198.95
238.04
258.99
259.17
240.07
206.86
166.63
126.14
90.05
60.40
37.21
19.67
7.01
-1.43
-6.59
-9.92
-13.21
-17.87
-24.25
-31.60
-38.43
-43.46
-46.20
-47.08
-47.00
-46.72
-46.35
-45.30
-42.56
-37.17
-28.68
-17.44
-4.64
7.79
17.67
23.08
22.92
17.21
7.04
-5.91
-19.89
-33.39
-45.04
-53.23
-55.99
-51.53
-39.20
-20.43
1.08
20.18
31.89
33.01
23.08
4.35
-19.26
-43.48
-64.88
-81.44
-92.60
-98.81
-101.06
-100.39
-97.56
-92.99
-86.85
-79.20
-70.17
-59.95
-48.71
-36.55
-23.51
-9.67
4.78
19.40
33.54
46.34
56.78
63.91
67.08
66.33
62.61
57.72
53.78
52.40
54.05
57.66
60.98
61.50
57.55
48.94
37.05
24.27
12.92
4.53
-0.49
-2.54
-2.36
-0.63
1.98
4.49
5.38
2.77
-4.82
-17.75
-35.13
-55.34
-76.92
-99.26
-122.22
-145.08
-165.28
-178.03
-177.29
-157.86
-117.58
-58.66
12.60
87.66
158.23
218.17
264.09
294.63
309.28
307.68
289.97
257.90
215.85
170.67
129.99
99.84
82.64
76.78
77.86
80.81
81.75
78.67
70.93
58.40
41.03
19.15
-6.07
-32.57
-57.94
-80.38
-99.36
-115.60
-130.26
-144.03
-156.66
-167.19
-174.62
-178.63
-179.69
-178.65
-176.12
-172.07
-165.95
-157.22
-145.86
-132.61
-118.65
-104.96
-91.63
-77.53
-60.52
-38.28
-9.52
25.07
62.31
97.03
123.46
136.90
135.34
120.09
95.50
67.48
41.78
22.24
10.03
3.80
0.71
-2.13
-6.53
-12.76
-20.00
-27.08
-33.27
-38.61
-43.60
-48.78
-54.30
-59.81
-64.84
-69.08
-72.76
-76.54
-81.15
-86.96
-93.68
-100.27
-105.30
-107.45
-106.10
-101.65
-95.55
-89.84
-86.53
-86.92
-91.24
-98.57
-107.18
-115.08
-120.56
-122.48
-120.46
-114.76
-106.13
-95.56
-83.95
-71.76
-58.81
-44.27
-26.96
-5.95
19.00
47.28
77.64
108.84
140.23
171.89
204.26
237.21
269.31
297.55
317.89
326.40
320.50
299.83
266.48
224.43
178.70
134.21
95.01
63.63
40.85
25.68
15.78
8.09
-0.28
-11.26
-25.43
-42.08
-59.69
-76.48
-90.85
-101.64
-108.16
-110.19
-107.95
-102.13
-93.72
-83.86
-73.57
-63.53
-54.02
-44.99
-36.18
-27.34
-18.35
-9.30
-0.48
7.70
14.91
21.06
26.34
31.13
35.62
39.65
42.71
44.26
44.16
42.94
41.70
41.63
43.49
47.24
52.11
56.95
60.63
62.37
61.86
59.28
55.23
50.65
46.56
43.74
42.39
41.93
41.24
39.17
35.12
29.29
22.61
16.10
10.43
5.53
0.84
-4.17
-9.43
-13.98
-16.21
-14.48
-7.78
3.71
18.48
33.77
45.89
50.64
44.11
23.87
-9.80
-53.18
-99.47
-140.33
-168.23
-178.53
-170.48
-146.74
-111.96
-71.10
-28.41
12.77
49.91
81.11
105.31
122.61
134.18
141.74
146.64
149.11
148.28
142.80
131.86
115.84
96.36
75.58
55.53
37.48
22.03
9.41
-0.18
-6.68
-10.39
-12.33
-14.12
-17.37
-23.00
-30.73
-39.29
-47.10
-53.05
-56.95
-59.44
-61.38
-63.23
-64.69
-64.93
-63.11
-58.91
-52.77
-45.60
-38.34
-31.53
-25.18
-18.98
-12.73
-6.55
-0.89
3.75
7.14
9.48
11.38
13.48
16.21
19.57
23.21
26.61
29.38
31.42
32.97
34.46
36.25
38.44
40.74
42.54
43.26
42.64
40.99
39.16
38.25
39.11
41.97
46.32
50.98
54.45
55.10
51.50
42.75
28.77
10.53
-9.91
-29.89
-46.92
-59.37
-66.94
-70.49
-71.37
-70.80
-69.37
-67.05
-63.56
-58.60
-52.21
-44.78
-36.71
-28.13
-18.89
-8.74
2.39
14.28
26.44
38.00
47.76
54.36
56.72
54.20
46.67
34.39
18.01
-1.00
-20.62
-38.18
-50.56
-54.85
-49.53
-35.65
-16.92
1.44
15.57
23.31
24.44
20.48
14.01
7.55
2.67
-0.09
-0.71
2.73
10.95
22.25
33.03
39.65
39.54
31.63
16.64
-2.73
-18.91
-25.28
-18.89
-0.63
26.73
59.67
94.31
127.28
156.55
185.84
217.61
250.19
278.59
297.95
305.43
300.22
283.17
231.23
140.67
30.62
-70.31
-145.13
-192.26
-217.77
-228.70
-230.62
-227.33
-217.06
-199.63
-178.45
-158.98
-144.92
-136.57
-131.52
-126.05
-117.54
-100.53
-73.75
-41.24
-9.97
14.41
29.63
36.38
36.89
33.67
30.89
31.09
34.74
41.38
51.11
64.54
81.54
100.42
117.50
129.09
131.28
121.43
99.60
69.37
37.05
9.41
-8.61
-15.42
-12.34
-3.21
7.24
14.89
17.07
12.56
1.06
-17.31
-42.17
-72.78
-108.32
-147.82
-189.77
-231.53
-268.71
-295.66
-306.95
-299.39
-273.58
-233.84
-186.44
-137.30
-90.19
-46.78
-7.94
24.92
49.58
64.17
68.76
66.00
60.10
54.74
51.29
48.49
43.85
35.54
23.72
10.50
-1.20
-9.16
-12.45
-11.21
-5.92
3.15
15.80
31.47
48.90
66.29
81.91
94.62
104.19
111.00
115.59
118.36
119.52
119.30
118.08
116.42
114.75
113.15
111.08
107.51
101.25
91.45
78.02
61.75
44.06
26.40
9.75
-5.78
-20.89
-36.77
-54.52
-74.63
-96.74
-119.50
-140.87
-158.60
-170.78
-176.24
-174.74
-166.76
-152.99
-133.91
-109.60
-80.07
-45.86
-8.63
28.78
62.81
90.09
108.37
117.06
117.14
110.69
100.05
87.18
73.37
59.21
44.95
30.69
16.60
2.96
-9.94
-21.84
-32.52
-41.80
-49.57
-55.84
-60.75
-64.56
-67.67
-70.41
-72.96
-75.20
-76.75
-77.20
-76.36
-74.46
-72.17
-70.30
-69.38
-69.28
-69.16
-67.80
-64.23
-58.24
-50.65
-43.01
-37.02
-33.73
-33.19
-34.33
-35.41
-34.56
-30.42
-22.76
-12.77
-3.13
2.60
0.98
-9.90
-29.22
-53.10
-75.43
-89.93
-92.56
-83.19
-65.80
-46.93
-33.17
-28.83
-34.69
-48.36
-65.59
-82.02
-94.22
-100.19
-99.11
-90.97
-76.38
-56.58
-33.49
-9.59
12.50
30.56
43.32
50.74
53.94
54.81
55.25
56.56
58.99
61.82
63.80
63.87
61.70
57.87
53.53
49.85
47.43
46.11
45.13
43.59
40.95
37.25
33.04
29.06
25.88
23.68
22.25
21.15
19.99
18.50
16.72
14.85
13.13
11.80
10.94
10.48
10.23
9.97
9.53
8.89
8.16
7.50
7.03
6.73
6.49
6.19
5.87
5.67
5.87
6.63
7.94
9.52
10.94
11.76
11.78
11.03
9.75
8.29
6.86
5.54
4.27
2.93
1.48
-0.04
-1.48
-2.71
-3.66
-4.43
-5.20
-6.14
-7.35
-8.77
-10.27
-11.66
-12.85
-13.83
-14.70
-15.63
-16.74
-18.03
-19.28
-20.13
-20.20
-19.24
-17.26
-14.54
-11.51
-8.57
-5.94
-3.61
-1.43
0.74
2.93
5.02
6.82
8.17
9.00
9.35
9.32
9.05
8.62
8.14
7.67
7.24
6.88
6.55
6.22
5.84
5.39
4.87
4.33
3.90
3.73
3.89
4.37
5.00
5.47
5.48
4.85
3.64
2.16
0.82
-0.04
-0.35
-0.33
-0.45
-1.20
-2.94
-5.71
-9.23
-12.91
-16.02
-17.82
-17.80
-15.82
-12.05
-6.96
-1.11
5.05
11.23
17.34
23.32
29.05
34.24
38.57
41.77
43.66
44.20
43.45
41.53
38.62
34.96
30.88
26.75
22.91
19.50
16.53
13.94
11.79
10.29
9.84
10.69
12.80
15.68
18.59
20.86
22.20
22.89
23.71
25.56
28.92
33.58
38.65
42.94
45.51
46.16
45.56
44.96
45.59
48.08
52.25
57.28
62.29
66.75
70.71
74.76
79.71
86.34
95.05
105.60
116.79
126.37
131.25
128.26
115.39
93.09
64.88
36.95
16.28
8.15
14.05
31.06
53.02
73.07
86.39
91.96
92.49
92.89
97.87
109.76
127.51
147.06
162.90
169.89
164.84
147.12
118.40
81.70
40.22
-3.47
-47.58
-90.66
-130.88
-165.82
-192.89
-210.33
-218.19
-218.56
-214.83
-210.30
-206.84
-204.40
-201.65
-197.29
-191.45
-186.25
-185.31
-192.37
-209.66
-236.82
-270.51
-305.03
-333.39
-348.91
-346.63
-324.57
-283.86
-228.09
-161.81
-89.44
-14.76
58.62
126.51
183.98
226.16
249.80
254.57
243.38
221.18
193.06
162.81
132.50
103.27
76.22
52.60
33.01
16.27
-1.27
-25.00
-60.16
-109.34
-170.60
-237.09
-298.47
-343.90
-365.36
-360.06
-331.03
-285.62
-232.72
-179.91
-131.65
-89.16
-51.40
-16.52
17.18
50.80
84.66
117.97
148.49
172.65
186.45
186.95
173.82
149.96
120.93
93.27
72.48
61.53
60.53
67.33
78.63
91.18
102.51
111.22
116.58
118.19
115.63
108.26
95.32
76.31
51.67
23.15
-5.86
-31.05
-48.26
-54.79
-50.11
-36.09
-16.49
4.31
22.27
34.83
40.78
39.83
32.43
19.54
2.68
-15.96
-33.40
-46.46
-51.75
-46.56
-29.70
-1.75
34.67
74.80
111.86
138.70
149.38
142.05
119.51
88.49
57.84
35.94
28.15
33.45
47.53
62.06
70.96
73.18
70.45
64.26
54.73
41.34
24.07
5.74
-11.88
-25.50
-32.68
-33.38
-29.83
-25.16
-22.04
-21.80
-24.18
-28.05
-31.80
-34.79
-37.69
-41.66
-47.31
-54.13
-60.63
-64.96
-66.06
-63.69
-59.05
-54.31
-51.66
-52.40
-56.52
-62.80
-69.13
-73.17
-72.60
-66.01
-53.42
-36.35
-17.42
0.37
14.65
24.45
30.45
34.72
39.75
47.47
58.59
72.47
87.46
101.47
112.55
119.28
120.99
117.61
109.54
97.34
81.54
62.70
41.49
18.99
-3.04
-22.44
-37.11
-45.74
-48.38
-46.52
-42.63
-39.25
-38.15
-39.89
-44.00
-49.63
-56.17
-63.45
-71.66
-80.87
-90.53
-99.31
-105.21
-106.31
-101.52
-91.08
-76.44
-59.68
-42.77
-26.79
-11.78
3.12
18.56
34.08
48.16
59.07
65.89
68.97
69.84
70.35
72.38
76.62
82.19
87.36
90.63
91.24
88.87
83.63
75.61
66.22
57.09
49.41
43.58
39.78
37.80
36.70
35.44
32.96
30.18
28.66
29.50
33.00
39.31
48.36
59.31
71.13
73.51
60.22
33.52
1.69
-28.43
-53.74
-72.46
-86.83
-97.86
-106.31
-111.83
-114.75
-115.44
-115.38
-115.26
-114.70
-113.29
-110.95
-108.87
-107.76
-108.03
-109.64
-111.97
-113.44
-112.06
-106.55
-96.27
-81.70
-63.40
-42.63
-21.58
-3.26
9.80
16.31
16.47
12.15
6.01
1.05
-0.54
1.94
7.84
15.96
25.12
34.31
42.62
48.93
52.09
51.21
46.13
37.84
28.49
21.06
18.56
23.52
37.44
60.42
90.97
125.85
160.31
188.90
206.93
211.87
204.23
187.16
165.10
142.03
120.27
100.26
81.48
63.75
47.80
34.95
26.11
20.88
17.69
14.68
10.80
6.72
4.42
5.87
11.47
19.31
26.02
28.56
25.65
17.72
6.41
-6.33
-18.73
-29.17
-35.71
-36.13
-28.67
-13.52
5.59
22.54
31.48
29.53
18.07
1.62
-14.74
-27.84
-37.52
-46.45
-57.36
-70.57
-84.33
-96.77
-107.99
-120.44
-136.93
-152.47
-158.02
-145.83
-115.84
-76.62
-40.33
-17.27
-11.98
-21.44
-36.41
-47.34
-47.00
-31.33
-0.94
39.26
82.14
120.08
146.50
157.51
152.11
126.63
84.20
32.00
-21.07
-65.87
-96.05
-110.46
-112.85
-110.49
-111.01
-118.59
-133.41
-151.83
-166.76
-171.11
-161.19
-136.93
-101.13
-58.19
-12.12
34.61
71.91
91.96
95.88
90.35
82.09
74.63
68.16
61.71
54.31
45.91
39.02
37.85
42.20
49.54
55.67
55.49
45.16
23.30
-8.52
-45.10
-79.91
-108.13
-127.32
-134.25
-127.92
-109.65
-82.78
-52.14
-22.25
3.12
21.14
30.92
33.52
30.86
25.23
18.55
11.84
5.51
-0.66
-7.71
-16.71
-28.25
-42.33
-57.76
-72.35
-83.51
-88.90
-87.11
-78.02
-62.28
-40.83
-14.53
16.28
51.64
91.46
134.67
178.63
218.97
250.29
267.53
267.46
250.10
218.82
179.37
137.86
98.89
64.48
34.22
6.38
-20.79
-48.01
-74.80
-99.79
-121.35
-138.07
-149.00
-153.77
-152.58
-146.26
-136.18
-124.07
-111.62
-100.19
-90.64
-83.23
-77.72
-73.26
-68.43
-61.35
-50.18
-33.75
-12.15
13.18
39.90
65.56
88.35
107.45
122.83
134.88
143.96
150.21
153.69
154.45
152.64
148.49
142.26
134.27
125.11
115.65
107.02
100.39
96.54
95.62
96.95
99.23
100.94
100.97
98.91
95.12
90.32
84.97
78.85
70.93
59.63
43.40
21.21
-7.04
-40.34
-76.49
-112.34
-144.44
-169.86
-186.99
-196.02
-198.73
-197.69
-195.31
-193.14
-191.91
-191.90
-193.38
-196.65
-201.74
-207.93
-213.62
-216.62
-214.80
-206.67
-191.74
-170.45
-143.96
-113.98
-82.50
-51.70
-23.56
0.36
19.25
33.08
42.38
48.01
50.84
51.84
51.91
51.96
52.75
54.70
57.89
62.04
66.72
71.48
76.01
79.97
83.00
84.66
84.50
82.14
77.50
70.79
62.59
53.78
45.29
37.84
31.74
26.82
22.61
18.69
15.02
12.03
10.43
10.84
13.38
17.61
22.76
28.22
33.99
40.74
49.57
61.45
76.80
95.05
114.69
133.64
149.83
161.77
169.00
172.10
172.33
170.93
168.37
163.99
156.09
142.47
121.31
91.94
55.40
14.59
-26.00
-61.08
-85.84
-97.44
-96.15
-85.76
-72.55
-63.20
-62.35
-70.83
-85.44
-100.34
-109.47
-108.70
-96.98
-76.09
-49.46
-20.78
7.04
32.18
53.72
71.33
84.91
94.47
100.04
101.50
98.51
90.48
76.63
56.12
28.40
-6.43
-47.12
-91.11
-134.77
-173.75
-203.78
-221.75
-226.68
-220.11
-205.73
-188.18
-171.76
-159.31
-151.67
-147.80
-145.67
-143.29
-139.19
-132.47
-122.32
-108.09
-89.37
-66.21
-38.97
-8.79
22.28
51.68
76.96
97.13
112.22
122.91
130.19
135.86
141.16
145.85
148.17
145.48
136.81
122.29
102.89
80.55
59.15
42.45
32.41
28.67
28.89
32.02
36.76
41.50
44.98
48.80
55.71
67.69
85.07
106.22
131.07
158.47
185.75
197.42
182.24
142.23
91.68
51.65
22.62
2.61
-10.43
-18.83
-23.74
-24.65
-21.44
-15.69
-10.67
-10.25
-14.62
-22.55
-32.54
-43.18
-52.20
-57.93
-60.38
-60.97
-61.77
-62.22
-61.11
-57.55
-51.36
-42.48
-31.75
-21.19
-13.45
-10.77
-12.56
-16.65
-20.24
-20.69
-15.85
-4.89
11.12
29.12
44.53
53.16
51.77
38.81
14.69
-18.51
-57.60
-98.80
-137.75
-169.62
-189.41
-193.34
-180.53
-153.55
-117.69
-78.57
-40.03
-3.48
31.15
63.38
91.24
111.62
121.81
120.43
109.05
91.31
71.02
50.61
30.40
10.06
-10.28
-29.49
-47.00
-61.66
-72.19
-78.14
-80.02
-79.86
-79.41
-79.76
-81.42
-86.53
-95.89
-108.54
-122.63
-136.12
-148.33
-158.31
-164.75
-166.54
-165.39
-161.91
-155.01
-143.09
-124.97
-102.32
-77.25
-51.80
-12.48
41.13
97.80
143.97
169.41
180.45
182.59
179.47
174.49
169.69
163.81
156.19
147.07
136.58
124.44
108.59
88.14
63.95
37.96
10.52
-17.22
-43.38
-66.19
-84.63
-99.63
-112.08
-122.42
-131.01
-139.30
-147.84
-155.80
-161.39
-162.45
-157.91
-147.24
-130.81
-110.24
-88.81
-69.67
-54.69
-43.98
-36.01
-28.76
-20.38
-10.20
0.86
10.53
16.86
19.37
19.42
19.52
21.88
27.44
35.61
44.74
53.11
59.85
65.14
69.92
75.10
81.05
87.33
92.77
96.01
95.99
92.56
86.58
79.72
73.92
70.44
69.26
69.04
67.78
63.91
57.28
49.24
41.94
37.26
35.81
36.58
37.50
36.54
32.76
26.84
20.49
15.50
12.82
12.25
12.63
12.59
11.40
9.31
7.73
7.78
9.60
12.37
14.98
16.52
16.77
16.10
15.06
14.72
14.88
14.12
11.02
5.28
-2.20
-9.41
-14.08
-14.51
-8.54
3.79
20.47
38.82
56.79
72.94
86.76
98.60
109.15
120.72
133.25
143.91
148.74
144.78
130.94
109.06
83.74
47.86
3.87
-39.43
-74.29
-99.18
-114.64
-123.90
-126.98
-122.11
-108.69
-86.11
-56.86
-24.55
8.71
43.17
79.32
109.22
123.39
116.18
91.11
56.34
20.61
-8.89
-27.82
-35.55
-35.91
-32.62
-29.42
-28.41
-30.67
-36.33
-44.92
-54.60
-63.37
-68.68
-67.48
-58.38
-42.43
-24.05
-10.13
-8.09
-22.98
-55.45
-97.65
-134.43
-152.06
-147.25
-126.89
-100.80
-76.07
-55.48
-38.78
-24.69
-12.60
-3.34
1.83
2.91
1.45
-0.42
-1.06
0.08
2.77
6.10
8.80
9.86
9.34
8.31
7.88
8.58
10.30
12.43
13.48
11.99
6.72
-1.90
-11.17
-16.78
-14.48
-1.94
19.94
46.92
73.22
93.99
107.30
114.35
117.81
119.72
120.40
118.72
113.49
104.94
95.27
87.94
86.07
91.00
101.79
115.87
130.06
141.82
149.00
150.72
147.37
140.23
130.84
120.43
109.38
97.31
83.45
67.24
48.96
29.70
10.83
-6.59
-22.24
-36.29
-48.87
-59.49
-67.05
-70.29
-68.75
-63.39
-56.60
-51.57
-51.39
-58.28
-73.11
-95.36
-123.25
-154.30
-185.75
-215.05
-240.17
-259.67
-272.84
-279.89
-282.29
-282.58
-283.51
-286.44
-289.81
-288.90
-277.67
-252.09
-213.37
-169.01
-130.64
-109.49
-111.58
-134.94
-170.40
-205.18
-227.56
-230.42
-212.34
-176.45
-128.33
-74.10
-19.36
31.19
73.97
106.81
129.24
142.69
149.96
154.32
158.45
163.66
169.70
175.05
177.59
175.28
166.95
152.83
134.72
115.59
98.72
86.50
79.60
76.97
76.44
75.72
73.44
69.32
64.11
58.86
54.38
50.96
48.35
45.99
43.32
39.97
35.85
31.21
26.51
22.31
19.08
16.99
15.86
15.27
14.71
13.83
12.56
11.06
9.54
8.15
6.86
5.47
3.74
1.49
-1.32
-4.54
-7.81
-10.68
-12.69
-13.57
-13.32
-12.23
-10.76
-9.22
-7.69
-5.92
-3.55
-0.39
3.43
7.44
11.08
13.89
15.72
16.64
16.87
16.63
16.10
15.38
14.59
13.84
13.20
12.69
12.26
11.85
11.43
11.03
10.63
10.21
9.67
8.96
8.10
7.16
6.25
5.41
4.55
3.52
2.15
0.39
-1.69
-3.88
-6.00
-7.96
-9.77
-11.60
-13.62
-16.01
-18.79
-21.85
-24.94
-27.71
-29.78
-30.77
-30.44
-28.64
-25.46
-21.18
-16.27
-11.22
-6.41
-2.04
1.95
5.65
9.14
12.34
15.09
17.23
18.74
19.75
20.46
21.00
21.39
21.59
21.58
21.44
21.32
21.33
21.49
21.70
21.78
21.62
21.15
20.42
19.54
18.63
17.78
16.99
16.23
15.41
14.42
13.23
11.87
10.46
9.14
8.01
7.14
6.49
5.95
5.34
4.48
3.22
1.57
-0.21
-1.63
-2.15
-1.32
1.01
4.68
9.32
14.57
20.21
26.23
32.66
39.42
46.24
52.67
58.34
63.11
67.19
71.08
75.38
80.43
86.15
91.98
97.20
101.25
104.20
106.78
110.04
114.69
120.45
125.92
129.04
127.81
121.10
108.97
92.45
73.10
52.84
33.80
18.33
8.47
4.93
6.21
8.46
6.65
-3.11
-21.57
-45.64
-69.46
-86.87
-93.78
-89.53
-76.68
-59.50
-42.31
-28.23
-18.99
-14.93
-15.16
-17.84
-20.73
-21.90
-20.48
-16.72
-11.70
-6.76
-2.59
1.01
4.69
8.23
9.83
6.46
-5.06
-26.88
-60.14
-104.68
-158.62
-217.74
-275.44
-323.25
-352.14
-354.94
-328.80
-277.55
-210.93
-141.51
-80.75
-36.41
-11.40
-4.03
-9.32
-16.86
-16.69
-4.00
18.29
43.62
66.16
82.54
91.74
94.41
92.62
88.25
82.61
76.45
69.82
61.62
49.95
33.53
10.83
-17.48
-48.97
-79.81
-105.62
-122.51
-128.48
-123.48
-109.21
-88.36
-63.59
-37.53
-12.55
9.77
29.15
44.24
54.43
59.78
60.91
58.90
54.78
49.35
43.31
37.29
31.79
27.46
24.80
23.99
24.95
27.19
29.86
32.05
33.02
32.40
30.45
27.71
24.69
21.81
19.16
16.63
13.92
10.70
6.68
1.91
-3.37
-8.73
-13.69
-17.92
-21.38
-24.31
-27.13
-30.28
-33.88
-37.81
-41.72
-45.12
-47.55
-48.61
-48.11
-46.07
-42.71
-38.29
-33.00
-26.92
-20.01
-12.26
-3.84
4.85
13.21
20.66
26.78
31.40
34.51
36.27
36.78
36.15
34.49
31.92
28.67
24.98
21.14
17.35
13.74
10.27
6.87
3.42
-0.10
-3.66
-7.14
-10.46
-13.55
-16.47
-19.30
-22.20
-25.36
-28.91
-32.88
-37.09
-41.06
-44.15
-45.73
-45.43
-43.36
-40.12
-36.65
-33.92
-32.72
-33.41
-35.91
-39.70
-43.99
-47.86
-50.48
-51.26
-49.96
-46.71
-41.93
-36.16
-29.90
-23.48
-17.01
-10.47
-3.94
2.25
7.54
11.30
13.23
13.70
13.85
15.33
19.78
28.09
40.18
55.08
71.35
87.64
103.01
116.98
129.25
139.63
147.99
154.33
158.73
161.26
161.76
159.71
154.36
144.95
131.04
112.70
90.56
65.73
39.75
14.36
-8.72
-28.08
-42.94
-53.30
-59.93
-64.12
-67.29
-70.80
-75.64
-82.39
-91.06
-100.92
-110.50
-117.72
-120.43
-116.94
-106.65
-90.31
-69.99
-48.54
-28.83
-12.89
-1.35
6.54
12.31
17.33
22.02
25.66
26.87
24.38
17.91
8.47
-1.91
-10.80
-16.07
-16.31
-10.93
-0.15
15.16
33.54
53.02
71.44
86.87
98.01
104.40
106.39
104.80
100.63
94.68
87.50
79.35
70.38
60.74
50.60
40.19
29.79
19.68
10.18
1.58
-5.95
-12.38
-17.87
-22.71
-27.07
-30.98
-34.19
-36.20
-36.50
-34.73
-30.83
-25.17
-18.38
-11.20
-4.32
1.77
6.80
10.72
13.60
15.59
16.83
17.46
17.66
17.57
17.40
17.40
17.86
19.01
20.96
23.63
26.74
29.91
32.83
35.32
37.37
39.03
40.24
40.82
40.50
39.10
36.73
33.75
30.70
27.98
25.66
23.41
20.70
17.04
12.25
6.52
0.27
-6.00
-11.98
-17.50
-22.52
-27.00
-30.85
-34.01
-36.54
-38.68
-40.73
-42.92
-45.20
-47.24
-48.46
-48.30
-46.45
-42.97
-38.22
-32.74
-26.99
-21.29
-15.76
-10.42
-5.29
-0.44
4.03
8.04
11.54
14.54
17.00
18.88
20.08
20.56
20.32
19.46
18.13
16.50
14.75
13.05
11.57
10.37
9.41
8.58
7.72
6.77
5.80
4.96
4.44
4.24
4.20
4.04
3.51
2.54
1.28
-0.01
-1.14
-2.06
-2.92
-3.92
-5.24
-6.84
-8.57
-10.27
-11.88
-13.49
-15.29
-17.38
-19.64
-21.70
-23.06
-23.28
-22.11
-19.60
