1.592933285000000000e+09
-2.999999999999999889e-02
5.059999999999999609e+00
1.791000000000000014e+01
7.934000000000000341e+01
2.282500000000000000e+02
-4.865000000000000000e+02
-5.910000000000000142e+00
1.556200000000000045e+02
4.528000000000000114e+01
-4.450000000000000178e+00
-3.203000000000000114e+01
1.946999999999999886e+01
3.470000000000000195e+00
6.269999999999999574e+00
8.220000000000000639e+00
-1.382000000000000028e+01
-5.500000000000000000e+00
-7.509999999999999787e+00
1.340000000000000080e+00
1.023000000000000043e+01
9.080000000000000071e+00
-1.226999999999999957e+01
-3.250000000000000000e+00
1.659999999999999920e+00
-7.589999999999999858e+00
6.110000000000000320e+00
1.009999999999999964e+01
-6.599999999999999645e+00
-1.764999999999999858e+01
6.540000000000000036e+00
8.669999999999999929e+00
-2.264000000000000057e+01
2.120000000000000107e+00
2.487999999999999901e+01
-2.830000000000000071e+00
-3.957999999999999829e+01
1.143999999999999950e+01
1.267099999999999937e+02
-9.798000000000000398e+01
-1.612999999999999901e+01
-1.106800000000000068e+02
-6.540999999999999659e+01
1.440500000000000114e+02
-3.689999999999999858e+01
-6.128999999999999915e+01
2.622699999999999818e+02
-2.666000000000000014e+01
-1.440500000000000114e+02
5.821000000000000085e+01
-4.477000000000000313e+01
7.639999999999999680e+00
1.659999999999999920e+00
-4.146999999999999886e+01
-2.060999999999999943e+01
1.315500000000000114e+02
-8.962999999999999545e+01
-5.581000000000000227e+01
-1.258000000000000007e+01
6.780000000000000249e+00
5.347999999999999687e+01
7.787000000000000455e+01
-3.221200000000000045e+02
-1.615099999999999909e+02
-6.309000000000000341e+01
4.900000000000000355e+00
1.982100000000000080e+02
1.157900000000000063e+02
1.566399999999999864e+02
-3.210299999999999727e+02
-1.136200000000000045e+02
7.289000000000000057e+01
9.487000000000000455e+01
2.057000000000000028e+01
-4.246999999999999886e+01
2.464000000000000057e+01
6.815000000000000568e+01
-1.729999999999999982e+00
-1.946999999999999886e+01
3.621999999999999886e+01
1.141999999999999993e+01
-1.104599999999999937e+02
-4.624000000000000199e+01
-2.032999999999999829e+01
-1.548000000000000043e+01
1.360999999999999943e+01
1.393999999999999950e+01
-1.234999999999999964e+01
-4.419999999999999929e+00
2.257000000000000028e+01
8.169999999999999929e+00
-2.198999999999999844e+01
2.691000000000000014e+01
1.064000000000000057e+01
-1.131000000000000050e+01
-3.900000000000000133e-01
1.680999999999999872e+01
8.980000000000000426e+00
-2.908999999999999986e+01
1.090000000000000080e+00
-4.939000000000000057e+01
1.645399999999999920e+02
3.909100000000000250e+02
-1.190499999999999972e+02
-9.850199999999999818e+02
3.653700000000000045e+02
7.882999999999999829e+01
-1.265300000000000011e+02
2.189199999999999875e+02
1.778499999999999943e+02
-8.034999999999999432e+01
-8.181000000000000227e+01
-2.362400000000000091e+02
1.984099999999999966e+02
1.436999999999999922e+01
-2.424099999999999966e+02
2.587500000000000000e+02
-2.451999999999999957e+01
-9.150000000000000000e+01
-8.739000000000000057e+01
-3.089000000000000057e+01
1.862000000000000099e+01
3.249499999999999886e+02
-1.420099999999999909e+02
-3.362200000000000273e+02
2.748999999999999773e+02
2.995699999999999932e+02
5.938799999999999955e+02
-3.737599999999999909e+02
-3.012799999999999727e+02
-1.349000000000000021e+01
8.439000000000000057e+01
-2.225000000000000000e+01
-3.609000000000000341e+01
-1.174399999999999977e+02
-3.194999999999999929e+01
3.987599999999999909e+02
2.605999999999999872e+01
-2.282899999999999920e+02
3.820000000000000284e+01
-3.245000000000000284e+01
-8.720999999999999375e+01
3.360099999999999909e+02
-3.292000000000000171e+01
-7.730000000000000426e+00
-4.746000000000000085e+01
1.458999999999999986e+01
5.690000000000000391e+00
2.410999999999999943e+01
-3.738700000000000045e+02
3.745000000000000000e+02
-5.652400000000000091e+02
2.872200000000000273e+02
2.349799999999999898e+02
1.191400000000000006e+02
1.036999999999999922e+01
-2.890000000000000000e+02
-9.101999999999999602e+01
-3.026000000000000156e+01
2.164000000000000057e+01
4.967000000000000171e+01
-3.900999999999999801e+01
-1.273000000000000043e+01
-2.405999999999999872e+01
6.109000000000000341e+01
-2.239000000000000057e+01
2.410000000000000142e+01
1.001999999999999957e+01
2.709999999999999964e+00
1.680999999999999872e+01
-3.550000000000000000e+01
-7.990000000000000213e+00
-3.300000000000000155e-01
-7.931999999999999318e+01
-8.056999999999999318e+01
4.989000000000000057e+01
2.459499999999999886e+02
2.069999999999999929e+01
1.005000000000000000e+02
-1.182099999999999937e+02
1.171800000000000068e+02
-8.660000000000000142e+00
2.714000000000000057e+01
-1.097000000000000064e+01
-8.079000000000000625e+01
-1.365600000000000023e+02
6.096999999999999886e+01
1.212600000000000051e+02
-3.817999999999999972e+01
-8.201999999999999602e+01
-2.276999999999999957e+01
1.754699999999999989e+02
4.117000000000000171e+01
2.791000000000000014e+01
-1.486999999999999922e+01
-1.238799999999999955e+02
-3.422999999999999687e+01
3.600999999999999801e+01
2.010699999999999932e+02
3.045500000000000114e+02
-1.837899999999999920e+02
-5.297999999999999545e+02
-8.926999999999999602e+01
1.075900000000000034e+02
-1.870699999999999932e+02
-6.546499999999999773e+02
5.946900000000000546e+02
1.317700000000000102e+02
-4.231000000000000227e+01
-5.324000000000000199e+01
1.852199999999999989e+02
-8.528000000000000114e+01
-5.129999999999999716e+01
6.084000000000000341e+01
2.469000000000000128e+01
-6.307000000000000028e+01
3.318999999999999773e+01
3.571999999999999886e+01
-2.989000000000000057e+01
2.535000000000000142e+01
2.771999999999999886e+01
-1.510000000000000009e+00
-1.744000000000000128e+01
2.894999999999999929e+01
6.769999999999999574e+00
1.041000000000000014e+01
9.432999999999999829e+01
-1.668400000000000034e+02
-1.142000000000000028e+02
1.835000000000000000e+02
6.765999999999999659e+01
-4.392000000000000171e+01
-1.935000000000000142e+01
1.281000000000000050e+01
9.240000000000000213e+00
-8.919999999999999929e+00
2.694000000000000128e+01
4.450000000000000178e+00
-3.162999999999999901e+01
2.955999999999999872e+01
1.591999999999999993e+01
-3.650000000000000000e+01
3.420000000000000284e+01
-3.400000000000000244e-01
-1.510999999999999943e+01
-4.689000000000000057e+01
5.949000000000000199e+01
8.401999999999999602e+01
-6.330000000000000071e+00
-1.105100000000000051e+02
-9.128000000000000114e+01
-2.589200000000000159e+02
2.270200000000000102e+02
-2.194999999999999929e+01
-7.656000000000000227e+01
-8.800000000000000044e-01
2.946000000000000085e+01
1.496000000000000085e+01
-3.714000000000000057e+01
5.568999999999999773e+01
3.824000000000000199e+01
-7.879999999999999893e+00
1.887000000000000099e+01
3.768999999999999773e+01
2.042000000000000171e+01
-7.545999999999999375e+01
3.842999999999999972e+01
-7.370999999999999375e+01
-1.258100000000000023e+02
1.904699999999999989e+02
9.273000000000000398e+01
-5.497999999999999687e+01
-3.985999999999999943e+01
4.539000000000000057e+01
3.959999999999999964e+00
-1.141500000000000057e+02
7.815000000000000568e+01
7.339999999999999858e+00
6.851999999999999602e+01
-3.260999999999999943e+01
6.920000000000000284e+01
-3.947999999999999687e+01
-1.375000000000000000e+02
-6.635999999999999943e+01
9.143999999999999773e+01
-4.735000000000000142e+01
-1.241999999999999993e+01
4.492999999999999972e+01
8.034000000000000341e+01
2.682999999999999829e+01
-8.023999999999999488e+01
3.625999999999999801e+01
-1.133499999999999943e+02
-2.405900000000000034e+02
4.897999999999999687e+01
5.238099999999999454e+02
8.817000000000000171e+01
-1.916899999999999977e+02
-2.770699999999999932e+02
-5.880800000000000409e+02
4.623199999999999932e+02
2.988600000000000136e+02
1.879999999999999893e+00
-3.313999999999999773e+02
2.119699999999999989e+02
1.305399999999999920e+02
-1.744999999999999929e+01
-3.389999999999999858e+01
1.419300000000000068e+02
-4.790999999999999659e+01
-1.225799999999999983e+02
2.209999999999999964e+00
1.331899999999999977e+02
-4.425999999999999801e+01
6.156000000000000227e+01
1.075000000000000000e+01
2.101000000000000156e+01
-2.342000000000000171e+01
1.912400000000000091e+02
-3.428999999999999915e+01
9.723999999999999488e+01
-3.913100000000000023e+02
-4.518100000000000023e+02
4.988899999999999864e+02
3.478000000000000114e+02
-2.431299999999999955e+02
-7.729000000000000625e+01
4.256000000000000227e+01
-1.475999999999999979e+01
1.713799999999999955e+02
4.657999999999999829e+01
-2.867400000000000091e+02
9.089000000000000057e+01
-1.687999999999999901e+01
2.103000000000000114e+01
4.704999999999999716e+01
1.414000000000000057e+01
4.356000000000000227e+01
3.001999999999999957e+01
-2.605099999999999909e+02
-4.669999999999999929e+00
-5.669999999999999929e+00
-5.396000000000000085e+01
2.592999999999999972e+01
-7.868000000000000682e+01
6.650000000000000000e+01
6.125000000000000000e+01
2.200000000000000000e+01
-8.956999999999999318e+01
4.475000000000000000e+01
1.625000000000000000e+01
2.278000000000000114e+01
-7.485999999999999943e+01
-3.621000000000000085e+01
-1.266099999999999994e+02
1.789099999999999966e+02
5.528999999999999915e+01
5.015999999999999659e+01
-9.098999999999999488e+01
-9.750000000000000000e+00
6.518999999999999773e+01
2.635000000000000142e+01
-7.917000000000000171e+01
1.334600000000000080e+02
1.970300000000000011e+02
-1.563899999999999864e+02
-6.378999999999999915e+01
-3.565999999999999659e+01
-9.754999999999999716e+01
-6.437999999999999545e+01
4.575999999999999801e+01
1.175300000000000011e+02
6.269999999999999574e+00
-2.053600000000000136e+02
1.067099999999999937e+02
6.648000000000000398e+01
-3.510999999999999943e+01
-1.800800000000000125e+02
1.435600000000000023e+02
-5.253000000000000114e+01
-6.918999999999999773e+01
-2.614000000000000057e+01
2.601000000000000156e+01
4.959999999999999964e+00
-5.788000000000000256e+01
-1.006000000000000050e+01
-4.828999999999999915e+01
1.392299999999999898e+02
2.106800000000000068e+02
2.605000000000000071e+01
-1.013700000000000045e+02
1.385999999999999943e+01
-5.072999999999999687e+01
2.301999999999999957e+01
-1.985000000000000142e+01
-1.068999999999999950e+01
-5.009999999999999787e+00
-5.959999999999999964e+00
4.999000000000000199e+01
-1.666000000000000014e+01
-8.728000000000000114e+01
3.452000000000000313e+01
-2.542999999999999972e+01
7.429999999999999716e+01
-1.117999999999999972e+02
5.946999999999999886e+01
-5.900000000000000355e+00
-1.126999999999999957e+01
1.459999999999999964e+01
5.131000000000000227e+01
-3.062000000000000099e+01
-5.646999999999999886e+01
4.632999999999999829e+01
1.729999999999999982e+00
-4.459999999999999964e+00
-8.062000000000000455e+01
8.304000000000000625e+01
1.696100000000000136e+02
7.384000000000000341e+01
-6.651000000000000512e+01
-7.875000000000000000e+01
2.180000000000000071e+01
-4.634000000000000341e+01
6.889000000000000057e+01
-8.093000000000000682e+01
2.799999999999999822e+00
1.592500000000000000e+02
1.125600000000000023e+02
-3.569700000000000273e+02
-7.767000000000000171e+01
1.284499999999999886e+02
4.611999999999999744e+01
-2.803000000000000114e+01
9.343999999999999773e+01
4.257000000000000028e+01
-2.398999999999999844e+01
-7.542000000000000171e+01
1.465399999999999920e+02
-9.331999999999999318e+01
8.099999999999999645e+00
1.358300000000000125e+02
-3.160000000000000142e+00
-1.091800000000000068e+02
1.896000000000000085e+01
1.107000000000000028e+02
-4.396000000000000085e+01
-7.340000000000000568e+01
6.089999999999999858e+01
6.534999999999999432e+01
-2.937999999999999901e+01
1.120000000000000107e+00
-6.519999999999999574e+00
-6.370000000000000107e+00
2.648999999999999844e+01
-6.953000000000000114e+01
7.454999999999999716e+01
5.509999999999999787e+00
-7.807999999999999829e+01
-6.049999999999999822e+00
-1.798000000000000043e+01
1.585999999999999943e+01
-1.019999999999999929e+01
5.459000000000000341e+01
-6.153000000000000114e+01
6.049999999999999822e+00
-4.190999999999999659e+01
2.116000000000000014e+01
5.529999999999999716e+01
3.670000000000000284e+01
2.492000000000000171e+01
4.892999999999999972e+01
-2.108999999999999986e+01
5.589999999999999858e+00
-4.125000000000000000e+01
9.890000000000000568e+00
-2.107000000000000028e+01
4.763000000000000256e+01
-4.214000000000000057e+01
1.903999999999999915e+01
2.703000000000000114e+01
3.792999999999999972e+01
-2.292999999999999972e+01
-5.000000000000000000e+00
-1.657999999999999829e+01
3.785000000000000142e+01
-2.319999999999999929e+01
3.080000000000000071e+01
2.442000000000000171e+01
-7.450000000000000178e+00
-1.441100000000000136e+02
-1.135999999999999943e+01
1.926899999999999977e+02
-1.913100000000000023e+02
-1.055699999999999932e+02
2.851000000000000156e+01
-7.179999999999999716e+01
4.189999999999999858e+01
1.089500000000000028e+02
-1.034200000000000017e+02
-1.385999999999999943e+01
6.634000000000000341e+01
-1.088700000000000045e+02
2.785999999999999943e+01
-2.696000000000000085e+01
5.049999999999999822e+00
-1.771299999999999955e+02
1.803600000000000136e+02
-7.456000000000000227e+01
1.075000000000000000e+01
-9.009999999999999432e+01
2.446000000000000085e+01
-6.150000000000000000e+01
1.041899999999999977e+02
4.753999999999999915e+01
-7.354000000000000625e+01
5.949000000000000199e+01
-7.990000000000000213e+00
-2.423999999999999844e+01
4.261999999999999744e+01
1.815399999999999920e+02
-7.731999999999999318e+01
-8.295999999999999375e+01
-7.687000000000000455e+01
1.095999999999999943e+02
-3.340999999999999659e+01
-3.042999999999999972e+01
-1.080199999999999960e+02
8.045000000000000284e+01
-1.440000000000000036e+01
-5.024000000000000199e+01
-2.805999999999999872e+01
5.890999999999999659e+01
-2.155999999999999872e+01
1.349000000000000021e+01
1.453999999999999915e+01
2.335999999999999943e+01
-2.098999999999999844e+01
-1.879999999999999893e+00
2.992000000000000171e+01
-2.748999999999999844e+01
3.540999999999999659e+01
1.359999999999999964e+01
-3.465999999999999659e+01
-3.685999999999999943e+01
2.830999999999999872e+01
-4.135000000000000142e+01
-5.936999999999999744e+01
5.707000000000000028e+01
5.610999999999999943e+01
-4.213000000000000256e+01
1.642000000000000171e+01
3.790000000000000036e+00
-1.942000000000000171e+01
-2.233999999999999986e+01
4.829999999999999716e+01
-4.997999999999999687e+01
-3.303999999999999915e+01
7.979999999999999716e+01
-1.912999999999999901e+01
-3.076999999999999957e+01
6.370000000000000107e+00
-3.148999999999999844e+01
1.669000000000000128e+01
3.854999999999999716e+01
3.235000000000000142e+01
-3.639000000000000057e+01
6.750000000000000000e+00
-4.292999999999999972e+01
7.695000000000000284e+01
-3.817000000000000171e+01
8.220000000000000639e+00
8.369999999999999218e+00
8.320000000000000284e+00
-2.741000000000000014e+01
5.799999999999999822e+00
4.118999999999999773e+01
-6.243999999999999773e+01
5.982000000000000028e+01
-6.085999999999999943e+01
1.576999999999999957e+01
2.994999999999999929e+01
-3.214999999999999858e+01
-2.880000000000000071e+01
1.358000000000000007e+01
2.130000000000000071e+01
1.400000000000000133e-01
-8.299999999999999600e-01
-5.335999999999999943e+01
1.903000000000000114e+01
-5.699999999999999512e-01
-4.307000000000000028e+01
1.061200000000000045e+02
-4.371999999999999886e+01
1.928000000000000114e+01
-5.167999999999999972e+01
2.880999999999999872e+01
-3.921999999999999886e+01
-2.814999999999999858e+01
2.550000000000000000e+01
6.395000000000000284e+01
-3.209000000000000341e+01
6.192999999999999972e+01
-6.264999999999999858e+01
-5.192999999999999972e+01
-9.693000000000000682e+01
-4.581000000000000227e+01
4.392999999999999972e+01
-3.939999999999999858e+01
-1.880999999999999872e+01
9.070000000000000284e+00
2.035999999999999943e+01
4.120000000000000107e+00
2.578000000000000114e+01
5.385999999999999943e+01
2.400000000000000000e+01
2.896000000000000085e+01
9.712999999999999545e+01
-3.359000000000000341e+01
-1.205600000000000023e+02
7.179999999999999716e+00
-5.320000000000000284e+01
-1.864000000000000057e+01
1.731200000000000045e+02
1.269300000000000068e+02
-1.200199999999999960e+02
4.243999999999999773e+01
3.364999999999999858e+01
-1.279699999999999989e+02
2.316000000000000014e+01
-1.928999999999999915e+01
7.154000000000000625e+01
4.796999999999999886e+01
3.169000000000000128e+01
-2.661499999999999773e+02
-8.079999999999999716e+01
-6.598999999999999488e+01
-2.878799999999999955e+02
5.093600000000000136e+02
5.775000000000000000e+01
-6.042999999999999972e+01
1.281599999999999966e+02
-9.399999999999999467e-01
-4.053999999999999915e+01
-4.642999999999999972e+01
4.886999999999999744e+01
2.290000000000000036e+00
2.669999999999999929e+00
-7.437000000000000455e+01
6.723999999999999488e+01
1.850000000000000089e+00
3.882999999999999829e+01
5.009999999999999787e+00
9.162999999999999545e+01
-4.125000000000000000e+01
-1.080100000000000051e+02
2.251899999999999977e+02
1.455699999999999932e+02
-1.678000000000000114e+02
-1.612500000000000000e+02
1.480099999999999909e+02
3.854999999999999716e+01
-6.357999999999999829e+01
4.168999999999999773e+01
-7.543999999999999773e+01
1.252300000000000040e+02
1.040000000000000036e+01
-7.559000000000000341e+01
-9.265000000000000568e+01
1.245000000000000000e+02
-2.489000000000000057e+01
8.800000000000000711e+00
1.336699999999999875e+02
-2.837999999999999901e+01
-2.055000000000000071e+01
-1.721000000000000085e+01
-1.467999999999999972e+01
-4.969999999999999751e+00
1.776100000000000136e+02
6.528000000000000114e+01
-1.934099999999999966e+02
-9.320000000000000284e+00
-4.919999999999999929e+00
5.367999999999999972e+01
-9.178000000000000114e+01
1.319099999999999966e+02
8.168000000000000682e+01
1.378999999999999915e+01
-6.581999999999999318e+01
4.736999999999999744e+01
2.185000000000000142e+01
-8.779999999999999361e+00
-1.043999999999999950e+01
1.649999999999999911e+00
-1.973000000000000043e+01
5.288000000000000256e+01
-3.800000000000000044e-01
-7.519999999999999574e+00
-1.140000000000000036e+01
-2.507999999999999829e+01
2.978999999999999915e+01
-3.353999999999999915e+01
-1.617999999999999972e+01
3.064000000000000057e+01
-1.383000000000000007e+01
-5.653000000000000114e+01
2.807000000000000028e+01
2.553000000000000114e+01
6.056000000000000227e+01
3.743999999999999773e+01
-6.693999999999999773e+01
5.935000000000000142e+01
-2.646999999999999886e+01
1.411500000000000057e+02
-3.600999999999999801e+01
-1.241000000000000014e+01
-4.285000000000000142e+01
-8.514000000000000057e+01
-5.109000000000000341e+01
-4.218999999999999773e+01
1.264699999999999989e+02
1.035900000000000034e+02
-6.937999999999999545e+01
-3.015000000000000000e+02
2.525500000000000114e+02
5.906000000000000227e+01
1.243199999999999932e+02
-1.645000000000000000e+02
-2.999999999999999889e-01
7.081999999999999318e+01
-5.103999999999999915e+01
1.376599999999999966e+02
-1.010100000000000051e+02
-5.206000000000000227e+01
8.281999999999999318e+01
-1.266700000000000017e+02
1.449999999999999956e+00
-6.425000000000000000e+01
1.962899999999999920e+02
8.328000000000000114e+01
1.030300000000000011e+02
-1.488899999999999864e+02
-6.896999999999999886e+01
3.989999999999999858e+01
6.748999999999999488e+01
-7.240000000000000568e+01
-3.831000000000000227e+01
-1.851000000000000156e+01
1.369000000000000057e+02
2.817000000000000171e+01
-9.100000000000000000e+01
-1.090000000000000000e+02
9.520999999999999375e+01
8.262000000000000455e+01
-2.596999999999999886e+01
-5.696999999999999886e+01
-2.028999999999999915e+01
8.231999999999999318e+01
-6.696999999999999886e+01
2.589000000000000057e+01
-5.872999999999999687e+01
5.988000000000000256e+01
1.342100000000000080e+02
-2.419000000000000128e+01
-2.055699999999999932e+02
6.754999999999999716e+01
5.535999999999999943e+01
-7.669999999999999929e+00
6.969999999999999751e+00
-2.937999999999999901e+01
-3.964000000000000057e+01
-2.880999999999999872e+01
-4.939999999999999858e+01
3.995000000000000284e+01
2.639000000000000057e+01
1.088299999999999983e+02
-6.610000000000000320e+00
-3.500000000000000000e+00
1.864999999999999858e+01
-1.784900000000000091e+02
9.273999999999999488e+01
-7.078000000000000114e+01
2.648999999999999844e+01
3.554999999999999716e+01
-9.960000000000000853e+00
2.620000000000000107e+00
-6.729999999999999716e+01
1.063000000000000078e+01
1.148000000000000043e+01
-2.387999999999999901e+01
-2.817999999999999972e+01
-1.070300000000000011e+02
1.722899999999999920e+02
-6.799999999999999822e+00
-8.130000000000000782e+00
2.990000000000000213e+00
8.268000000000000682e+01
-5.820000000000000284e+00
-7.799999999999999822e+00
1.471000000000000085e+01
1.377500000000000000e+02
-5.011999999999999744e+01
-1.372500000000000000e+02
-6.150000000000000355e+00
-5.299000000000000199e+01
8.426000000000000512e+01
6.849999999999999645e+00
-9.998999999999999488e+01
7.904999999999999716e+01
2.798999999999999844e+01
-1.959999999999999964e+00
-5.002000000000000313e+01
-5.507000000000000028e+01
-1.415000000000000036e+01
1.078299999999999983e+02
-3.235000000000000142e+01
3.485999999999999943e+01
3.714999999999999858e+01
4.446000000000000085e+01
-1.156200000000000045e+02
-7.860999999999999943e+01
-2.899999999999999911e+00
-2.694999999999999929e+01
2.532999999999999829e+01
4.636999999999999744e+01
2.770000000000000018e+00
2.026999999999999957e+01
9.664000000000000057e+01
5.432000000000000028e+01
6.993999999999999773e+01
-1.080100000000000051e+02
-1.400200000000000102e+02
-8.031999999999999318e+01
1.905099999999999909e+02
1.689000000000000057e+02
4.072999999999999687e+01
-2.975600000000000023e+02
-3.148600000000000136e+02
-4.235999999999999943e+01
-5.860999999999999943e+01
1.785000000000000000e+02
1.123100000000000023e+02
-3.824000000000000199e+01
9.903000000000000114e+01
3.453000000000000114e+01
-9.982999999999999829e+01
5.410999999999999943e+01
1.004500000000000028e+02
1.548700000000000045e+02
-1.318100000000000023e+02
-2.743100000000000023e+02
2.845600000000000023e+02
-1.007000000000000028e+02
-9.792000000000000171e+01
-1.602100000000000080e+02
1.270400000000000063e+02
7.659000000000000341e+01
-2.569999999999999929e+01
-8.310000000000000497e+00
8.949999999999999289e+00
4.325000000000000000e+01
1.523000000000000043e+01
-3.534000000000000341e+01
-8.426999999999999602e+01
4.757999999999999829e+01
-1.440000000000000036e+01
3.183999999999999986e+01
6.940000000000000568e+01
-4.318999999999999773e+01
5.586999999999999744e+01
7.115999999999999659e+01
-4.585999999999999943e+01
1.269500000000000028e+02
-1.304799999999999898e+02
-1.253100000000000023e+02
-5.931000000000000227e+01
1.012199999999999989e+02
5.467000000000000171e+01
-8.289999999999999147e+00
1.963100000000000023e+02
-3.926700000000000159e+02
2.556800000000000068e+02
1.337299999999999898e+02
-1.136299999999999955e+02
1.139800000000000040e+02
1.313499999999999943e+02
-4.114200000000000159e+02
-1.915200000000000102e+02
2.597500000000000000e+02
2.548300000000000125e+02
-4.671000000000000085e+01
4.327000000000000313e+01
2.562999999999999901e+01
-5.609000000000000341e+01
3.120000000000000107e+00
-8.619999999999999218e+00
1.357599999999999909e+02
-1.542299999999999898e+02
5.022999999999999687e+01
5.240999999999999659e+01
-6.379999999999999716e+01
-3.175000000000000000e+01
5.614999999999999858e+01
-1.713600000000000136e+02
-4.875000000000000000e+01
-1.839600000000000080e+02
1.247000000000000028e+02
-1.879999999999999893e+00
3.140600000000000023e+02
3.279999999999999805e+00
-2.325999999999999943e+02
-4.859000000000000341e+01
1.298499999999999943e+02
1.424000000000000057e+02
-7.126999999999999602e+01
-8.845000000000000284e+01
8.750000000000000000e+00
4.193999999999999773e+01
1.896999999999999886e+01
3.454999999999999716e+01
-5.546000000000000085e+01
9.918000000000000682e+01
-3.440999999999999659e+01
-1.607299999999999898e+02
-9.589999999999999858e+00
-2.607999999999999829e+01
3.424000000000000199e+01
-1.890600000000000023e+02
-3.203299999999999841e+02
1.224099999999999966e+02
-7.549999999999999822e+00
1.673000000000000043e+01
1.416000000000000014e+01
9.504999999999999716e+01
7.114000000000000057e+01
-1.401999999999999886e+02
1.324000000000000021e+01
8.140000000000000568e+00
7.099999999999999645e-01
-1.063000000000000078e+01
-3.037999999999999901e+01
5.580000000000000071e+00
-1.209899999999999949e+02
-1.525500000000000114e+02
2.737900000000000205e+02
-3.167000000000000171e+01
-2.172299999999999898e+02
1.909199999999999875e+02
7.006000000000000227e+01
-1.771599999999999966e+02
-1.123599999999999994e+02
-2.946000000000000085e+01
4.488899999999999864e+02
-6.079999999999999716e+01
-3.800099999999999909e+02
-1.700399999999999920e+02
2.346100000000000136e+02
9.389000000000000057e+01
1.621899999999999977e+02
-2.701999999999999957e+01
-2.902799999999999727e+02
6.056000000000000227e+01
-3.892000000000000171e+01
1.180699999999999932e+02
-1.004300000000000068e+02
-6.167000000000000171e+01
-1.033499999999999943e+02
-3.763000000000000256e+01
2.231299999999999955e+02
9.380000000000000782e+00
-6.551000000000000512e+01
-1.234800000000000040e+02
1.666299999999999955e+02
-4.620000000000000284e+01
7.040000000000000036e+00
-1.926000000000000156e+01
-2.351000000000000156e+01
6.097999999999999687e+01
-4.820000000000000284e+00
1.582299999999999898e+02
8.175000000000000000e+01
-1.746200000000000045e+02
-9.519999999999999574e+00
-6.530000000000000249e+00
-9.368000000000000682e+01
-1.204599999999999937e+02
2.042599999999999909e+02
1.577999999999999936e+01
-7.356999999999999318e+01
4.271000000000000085e+01
4.656000000000000227e+01
-1.621000000000000085e+01
-1.704799999999999898e+02
1.318600000000000136e+02
-3.928999999999999915e+01
-1.898000000000000043e+01
3.446000000000000085e+01
5.150000000000000000e+01
-5.221000000000000085e+01
1.801000000000000156e+01
2.669999999999999929e+00
2.673000000000000043e+01
-7.031000000000000227e+01
-1.005300000000000011e+02
1.004200000000000017e+02
1.256000000000000050e+01
-1.373000000000000114e+02
1.050000000000000000e+01
1.183599999999999994e+02
-5.780000000000000249e+00
-8.006999999999999318e+01
1.660000000000000142e+01
-7.635999999999999943e+01
-3.540999999999999659e+01
-4.692999999999999972e+01
3.055999999999999872e+01
4.610999999999999943e+01
1.180000000000000071e+01
6.629999999999999893e+00
-2.709999999999999964e+00
-2.012999999999999901e+01
9.349999999999999645e+00
3.890000000000000124e+00
-9.230000000000000426e+00
4.177000000000000313e+01
1.068999999999999950e+01
4.496000000000000085e+01
1.282599999999999909e+02
1.097600000000000051e+02
-2.103300000000000125e+02
-3.050299999999999727e+02
2.433799999999999955e+02
-2.984700000000000273e+02
1.484900000000000091e+02
1.165799999999999983e+02
2.226999999999999957e+01
1.118599999999999994e+02
5.472999999999999687e+01
-3.768999999999999773e+01
-7.259999999999999432e+01
1.125499999999999972e+02
-4.263000000000000256e+01
-7.643999999999999773e+01
8.218999999999999773e+01
3.017999999999999972e+01
-9.785999999999999943e+01
-1.120600000000000023e+02
7.839999999999999858e+00
9.096999999999999886e+01
2.610999999999999943e+01
-1.873000000000000043e+01
-5.735999999999999943e+01
-3.640999999999999659e+01
-9.604999999999999716e+01
7.190999999999999659e+01
4.515999999999999659e+01
3.352000000000000313e+01
-7.801999999999999602e+01
1.378600000000000136e+02
-1.240699999999999932e+02
1.074500000000000028e+02
9.562000000000000455e+01
-7.648999999999999488e+01
-2.136200000000000045e+02
5.084000000000000341e+01
7.750000000000000000e+01
2.276000000000000156e+01
1.683700000000000045e+02
-6.235000000000000142e+01
1.000400000000000063e+02
-2.057299999999999898e+02
2.228000000000000114e+01
5.914999999999999858e+01
1.857500000000000000e+02
-1.461999999999999922e+01
-1.344999999999999929e+01
-5.760000000000000142e+01
1.218100000000000023e+02
-7.940999999999999659e+01
-1.249699999999999989e+02
1.470699999999999932e+02
-1.393000000000000114e+02
-1.019999999999999929e+01
8.104999999999999716e+01
4.193999999999999773e+01
7.730000000000000426e+00
-1.408000000000000007e+01
1.309399999999999977e+02
8.710000000000000853e+00
-3.067000000000000171e+01
-1.520600000000000023e+02
2.770000000000000018e+00
-1.448000000000000043e+01
8.606999999999999318e+01
4.896000000000000085e+01
-7.310999999999999943e+01
-2.776700000000000159e+02
-1.935999999999999943e+01
1.347199999999999989e+02
4.332000000000000028e+01
6.860000000000000320e+00
-3.549999999999999822e+00
1.225999999999999979e+01
-1.689999999999999947e+00
-2.546000000000000085e+01
2.139000000000000057e+01
1.623000000000000043e+01
-1.629999999999999893e+00
7.107999999999999829e+01
1.089699999999999989e+02
-9.378000000000000114e+01
-2.589999999999999858e+00
-3.288000000000000114e+02
9.173999999999999488e+01
-1.284799999999999898e+02
4.331000000000000227e+01
1.916000000000000014e+01
-4.171999999999999886e+01
2.678000000000000114e+01
-1.000000000000000056e-01
-4.335999999999999943e+01
-2.989999999999999858e+01
7.134999999999999432e+01
9.056000000000000227e+01
-1.105000000000000000e+02
2.687000000000000099e+01
1.044000000000000057e+02
-1.238000000000000078e+01
1.072000000000000064e+01
3.532000000000000028e+01
6.519999999999999574e+00
-4.829999999999999716e+01
1.887999999999999901e+01
4.959999999999999964e+00
-1.026999999999999957e+01
8.599999999999999645e+00
1.002999999999999936e+01
-8.630000000000000782e+00
-2.919999999999999929e+01
1.848999999999999844e+01
1.023000000000000043e+01
-2.428999999999999915e+01
-2.551000000000000156e+01
1.138000000000000078e+01
6.580000000000000071e+00
-2.076999999999999957e+01
1.707000000000000028e+01
1.689999999999999947e+00
-2.353000000000000114e+01
-4.240000000000000213e+00
8.000000000000000444e-01
-1.135999999999999943e+01
-1.452999999999999936e+01
2.282000000000000028e+01
1.917999999999999972e+01
-1.633999999999999986e+01
-1.418999999999999950e+01
4.375999999999999801e+01
5.530000000000000249e+00
-3.062999999999999901e+01
1.100000000000000000e+01
-2.439999999999999947e+00
-1.250000000000000000e+01
1.109999999999999964e+01
2.592000000000000171e+01
-2.009999999999999787e+00
-3.119000000000000128e+01
2.389999999999999858e+01
1.703999999999999915e+01
-2.117000000000000171e+01
-4.035999999999999943e+01
1.764000000000000057e+01
1.380000000000000071e+01
-1.425000000000000000e+01
1.165000000000000036e+01
9.500000000000000000e+00
-1.076999999999999957e+01
-1.575000000000000000e+01
1.717999999999999972e+01
6.980000000000000426e+00
-1.526999999999999957e+01
-5.030000000000000249e+00
8.669999999999999929e+00
-9.380000000000000782e+00
-1.878000000000000114e+01
1.646000000000000085e+01
7.280000000000000249e+00
-1.121000000000000085e+01
9.019999999999999574e+00
1.750000000000000000e+01
-7.690000000000000391e+00
-3.459000000000000341e+01
1.333000000000000007e+01
1.721000000000000085e+01
-1.183000000000000007e+01
9.099999999999999645e+00
6.450000000000000178e+00
-1.830999999999999872e+01
-1.926000000000000156e+01
3.048000000000000043e+01
-1.469999999999999973e+00
-3.420000000000000284e+01
3.000000000000000000e+00
1.814999999999999858e+01
-5.940000000000000391e+00
-2.882999999999999829e+01
2.787999999999999901e+01
1.828000000000000114e+01
-1.651999999999999957e+01
7.199999999999999734e-01
7.480000000000000426e+00
-1.979999999999999982e+00
-2.000000000000000000e+01
2.400000000000000000e+01
1.026999999999999957e+01
-1.550999999999999979e+01
1.359999999999999964e+01
2.407999999999999829e+01
-5.040000000000000036e+00
-4.697999999999999687e+01
2.241000000000000014e+01
1.428999999999999915e+01
-1.001999999999999957e+01
7.719999999999999751e+00
1.500000000000000000e+01
-7.490000000000000213e+00
-2.892000000000000171e+01
3.485999999999999943e+01
9.899999999999999911e-01
-2.594000000000000128e+01
-1.678000000000000114e+01
1.498000000000000043e+01
-2.046000000000000085e+01
-7.889999999999999680e+00
6.490000000000000213e+00
1.930000000000000071e+01
-1.322000000000000064e+01
-2.580000000000000071e+01
6.409000000000000341e+01
1.145600000000000023e+02
-1.282199999999999989e+02
-7.368000000000000682e+01
4.759999999999999787e+00
-4.482999999999999829e+01
7.484000000000000341e+01
3.768999999999999773e+01
2.529999999999999805e+00
-2.617000000000000171e+01
1.565000000000000036e+01
-1.409999999999999964e+01
-3.278000000000000114e+01
6.860000000000000320e+00
1.009999999999999964e+01
-2.089000000000000057e+01
-5.342000000000000171e+01
1.951000000000000156e+01
5.830000000000000071e+00
-1.964999999999999858e+01
5.195000000000000284e+01
3.477000000000000313e+01
-2.757000000000000028e+01
-4.309999999999999609e+00
4.799999999999999822e-01
-9.830000000000000071e+00
2.999999999999999889e-01
2.830999999999999872e+01
1.525999999999999979e+01
-3.220000000000000195e+00
5.809999999999999609e+00
-2.594000000000000128e+01
-1.883999999999999986e+01
2.146000000000000085e+01
1.318999999999999950e+01
-7.089999999999999858e+00
5.919999999999999929e+00
2.294999999999999929e+01
-5.330000000000000071e+00
-2.646999999999999886e+01
7.099999999999999645e-01
1.989999999999999991e+00
-6.900000000000000355e+00
6.700000000000000400e-01
1.303999999999999915e+01
1.120000000000000107e+00
-2.335999999999999943e+01
1.757000000000000028e+01
-1.189999999999999947e+00
-2.298999999999999844e+01
-2.399999999999999911e+00
6.889999999999999680e+00
-6.440000000000000391e+00
-1.732000000000000028e+01
1.828999999999999915e+01
7.519999999999999574e+00
-2.405999999999999872e+01
9.019999999999999574e+00
1.948999999999999844e+01
-8.800000000000000711e+00
-2.012999999999999901e+01
1.732999999999999829e+01
1.010000000000000009e+00
-3.087000000000000099e+01
2.582999999999999829e+01
1.080000000000000071e+01
-1.572000000000000064e+01
1.259999999999999964e+01
1.277999999999999936e+01
-1.508999999999999986e+01
-2.775000000000000000e+01
3.030000000000000071e+01
1.167999999999999972e+01
-2.246000000000000085e+01
1.500000000000000000e+01
2.708999999999999986e+01
-3.790000000000000036e+00
-4.732999999999999829e+01
1.682999999999999829e+01
1.294999999999999929e+01
-2.194999999999999929e+01
8.550000000000000711e+00
2.023999999999999844e+01
6.839999999999999858e+00
-3.166000000000000014e+01
2.258999999999999986e+01
1.912000000000000099e+01
-3.411999999999999744e+01
-2.767999999999999972e+01
1.499000000000000021e+01
-1.923799999999999955e+02
1.927500000000000000e+02
-5.582000000000000028e+01
7.650000000000000355e+00
-9.970999999999999375e+01
2.154699999999999989e+02
-5.914999999999999858e+01
-7.826999999999999602e+01
1.917000000000000171e+01
2.842999999999999972e+01
-6.330000000000000071e+00
-2.344999999999999929e+01
-8.630000000000000782e+00
2.685000000000000142e+01
2.719000000000000128e+01
-2.216000000000000014e+01
-1.150000000000000000e+01
9.619999999999999218e+00
-8.880000000000000782e+00
-1.124000000000000021e+01
5.599999999999999645e+00
6.549999999999999822e+00
-9.179999999999999716e+00
1.296000000000000085e+01
1.183999999999999986e+01
-7.740000000000000213e+00
1.766000000000000014e+01
1.278999999999999915e+01
-1.381000000000000050e+01
5.000000000000000000e-01
-4.349999999999999645e+00
8.900000000000000133e-01
-7.030000000000000249e+00
1.819999999999999929e+01
1.044999999999999929e+01
-4.950000000000000178e+00
7.299999999999999822e-01
3.346000000000000085e+01
4.664000000000000057e+01
-4.146000000000000085e+01
8.845999999999999375e+01
-3.572999999999999687e+01
1.076299999999999955e+02
-7.254000000000000625e+01
-6.107000000000000028e+01
2.860000000000000142e+01
5.182000000000000028e+01
1.551999999999999957e+01
-9.090999999999999659e+01
-6.971999999999999886e+01
1.293899999999999864e+02
8.900000000000000355e+00
-5.370000000000000284e+01
-1.999000000000000057e+02
7.470999999999999375e+01
4.795000000000000284e+01
2.359999999999999876e+00
-3.117000000000000171e+01
9.290999999999999659e+01
-4.009999999999999787e+00
-4.827000000000000313e+01
1.267399999999999949e+02
5.114000000000000057e+01
1.126599999999999966e+02
-1.151999999999999957e+01
-2.635999999999999943e+01
-4.363000000000000256e+01
-9.945000000000000284e+01
7.107999999999999829e+01
-3.419999999999999929e+00
-6.984999999999999432e+01
1.277999999999999972e+02
1.360999999999999943e+02
-3.372999999999999687e+01
-8.681999999999999318e+01
-9.087999999999999545e+01
4.236999999999999744e+01
8.414000000000000057e+01
-4.453000000000000114e+01
1.301999999999999957e+01
9.939999999999999503e+00
1.163299999999999983e+02
-2.987999999999999901e+01
-4.679999999999999716e+01
-4.614999999999999858e+01
-3.978000000000000114e+01
-9.050000000000000711e+00
6.075999999999999801e+01
4.054999999999999716e+01
2.632999999999999829e+01
-2.096000000000000085e+01
-1.469999999999999929e+01
1.855999999999999872e+01
1.600000000000000089e+00
-3.579999999999999716e+01
3.271999999999999886e+01
-4.799999999999999822e-01
-3.289000000000000057e+01
-4.139999999999999680e+00
3.396999999999999886e+01
1.144999999999999929e+01
-2.657999999999999829e+01
1.405000000000000071e+01
-3.620000000000000107e+00
-2.569000000000000128e+01
1.866000000000000014e+01
2.096999999999999886e+01
3.105000000000000071e+01
-1.205900000000000034e+02
6.454000000000000625e+01
-9.669999999999999929e+00
5.910000000000000142e+00
4.086999999999999744e+01
-2.373999999999999844e+01
-7.600000000000000000e+01
1.331000000000000050e+01
2.587999999999999901e+01
5.419999999999999929e+00
-1.630000000000000071e+01
9.869999999999999218e+00
9.589999999999999858e+00
2.994000000000000128e+01
4.293999999999999773e+01
-1.041000000000000014e+01
-2.905000000000000071e+01
-3.589999999999999858e+00
-4.570000000000000284e+00
2.049999999999999822e+00
-3.309000000000000341e+01
2.100000000000000000e+01
6.519999999999999574e+00
-3.503999999999999915e+01
8.650000000000000355e+00
-1.948000000000000043e+01
-9.776000000000000512e+01
6.959999999999999432e+01
9.259999999999999432e+01
9.425000000000000000e+01
-1.301500000000000057e+02
-1.850000000000000089e+00
1.176999999999999957e+01
-2.308999999999999986e+01
5.339999999999999858e+00
1.338000000000000078e+01
-6.889999999999999680e+00
-2.937000000000000099e+01
3.091000000000000014e+01
2.919999999999999929e+00
-2.160000000000000142e+01
3.149999999999999911e+00
1.478999999999999915e+01
-8.390000000000000568e+00
-2.148000000000000043e+01
2.442000000000000171e+01
1.316999999999999993e+01
-1.442999999999999972e+01
1.892000000000000171e+01
-1.499999999999999944e-01
-1.316000000000000014e+01
-3.456000000000000227e+01
1.807000000000000028e+01
3.390000000000000124e+00
-2.137999999999999901e+01
1.291000000000000014e+01
1.803000000000000114e+01
-3.609999999999999876e+00
-4.160999999999999943e+01
1.625000000000000000e+01
1.594999999999999929e+01
-1.633999999999999986e+01
1.348000000000000043e+01
1.498000000000000043e+01
-8.800000000000000711e+00
-2.758999999999999986e+01
3.114999999999999858e+01
8.880000000000000782e+00
-3.639000000000000057e+01
2.689999999999999947e+00
2.112999999999999901e+01
-4.969999999999999751e+00
-2.598999999999999844e+01
3.089000000000000057e+01
7.639999999999999680e+00
-3.885000000000000142e+01
1.767000000000000171e+01
3.252000000000000313e+01
-2.439999999999999858e+01
-3.039999999999999858e+01
2.898999999999999844e+01
5.690000000000000391e+00
-3.363000000000000256e+01
3.417000000000000171e+01
1.719999999999999929e+01
-1.639999999999999858e+01
-9.130000000000000782e+00
3.518999999999999773e+01
-6.099999999999999645e+00
-5.497999999999999687e+01
3.613000000000000256e+01
2.023000000000000043e+01
-2.419000000000000128e+01
1.031000000000000050e+01
4.554999999999999716e+01
4.454999999999999716e+01
-9.840000000000000568e+01
9.630000000000000782e+00
1.198599999999999994e+02
-1.286699999999999875e+02
-1.706599999999999966e+02
-2.970000000000000195e+00
-1.637000000000000099e+01
2.466000000000000014e+01
2.508999999999999986e+01
-2.976000000000000156e+01
-4.850000000000000000e+01
-2.535000000000000142e+01
1.503199999999999932e+02
2.075500000000000114e+02
-1.356500000000000057e+02
3.867999999999999972e+01
-1.712999999999999901e+01
-2.950000000000000000e+01
-5.799000000000000199e+01
2.742000000000000171e+01
2.803000000000000114e+01
-4.947999999999999687e+01
2.055000000000000071e+01
1.560999999999999943e+01
0.000000000000000000e+00
2.317000000000000171e+01
2.423000000000000043e+01
-1.250000000000000000e+00
-7.780000000000000249e+00
1.500000000000000000e+00
-1.546000000000000085e+01
-2.621000000000000085e+01
3.069000000000000128e+01
4.917000000000000171e+01
-3.634000000000000341e+01
-4.835000000000000142e+01
-3.183999999999999986e+01
-1.642000000000000171e+01
-8.999999999999999667e-02
3.439999999999999947e+00
2.885000000000000142e+01
1.889000000000000057e+01
2.251999999999999957e+01
-4.699999999999999734e-01
-3.571000000000000085e+01
1.041999999999999993e+01
2.339000000000000057e+01
1.459999999999999964e+01
-1.416000000000000014e+01
8.650000000000000355e+00
1.471000000000000085e+01
2.399999999999999911e+00
-9.009999999999999787e+00
1.441000000000000014e+01
-7.000000000000000666e-02
-1.558000000000000007e+01
6.600000000000000311e-01
-1.659999999999999920e+00
-7.889999999999999680e+00
-1.514000000000000057e+01
1.682999999999999829e+01
1.071000000000000085e+01
-7.360000000000000320e+00
-4.589999999999999858e+00
7.549999999999999822e+00
-5.290000000000000036e+00
-1.928000000000000114e+01
1.841000000000000014e+01
5.778000000000000114e+01
9.229999999999999716e+01
-1.113499999999999943e+02
-4.415999999999999659e+01
-2.950000000000000178e+00
-2.071999999999999886e+01
1.405000000000000071e+01
2.148000000000000043e+01
-1.300000000000000044e-01
-1.489999999999999991e+00
7.259999999999999787e+00
-2.160000000000000142e+00
-1.567999999999999972e+01
2.528000000000000114e+01
1.213000000000000078e+01
-5.400000000000000355e-01
1.891000000000000014e+01
2.719999999999999929e+01
1.871999999999999886e+01
-2.205000000000000071e+01
-3.996999999999999886e+01
-2.264000000000000057e+01
-7.229000000000000625e+01
-4.124000000000000199e+01
4.932000000000000028e+01
-5.419999999999999929e+00
-1.935000000000000142e+01
-2.999999999999999889e-02
3.032999999999999829e+01
1.607999999999999829e+01
-5.879999999999999893e+00
3.035999999999999943e+01
3.166000000000000014e+01
6.375999999999999801e+01
8.468999999999999773e+01
6.521999999999999886e+01
-7.812000000000000455e+01
-1.323199999999999932e+02
-7.971999999999999886e+01
3.396999999999999886e+01
1.500999999999999979e+01
1.632800000000000011e+02
-9.730000000000000426e+00
-1.619999999999999929e+01
-1.853000000000000114e+01
3.203999999999999915e+01
1.026999999999999957e+01
-1.223000000000000043e+01
-7.870000000000000107e+00
3.001999999999999957e+01
6.330000000000000071e+00
-3.559000000000000341e+01
3.642999999999999972e+01
2.821999999999999886e+01
-1.428999999999999915e+01
-1.169999999999999929e+00
1.833999999999999986e+01
2.879999999999999893e+00
-1.377999999999999936e+01
2.869999999999999929e+01
6.339999999999999858e+00
-1.623000000000000043e+01
7.389999999999999680e+00
3.459999999999999964e+00
-4.780000000000000249e+00
-4.150000000000000000e+01
2.121999999999999886e+01
-5.030000000000000249e+00
-6.200000000000000178e+00
1.309999999999999964e+01
2.812000000000000099e+01
1.331000000000000050e+01
-2.614999999999999858e+01
-7.540000000000000036e+00
-2.859999999999999876e+00
-1.860999999999999943e+01
-1.732000000000000028e+01
2.759999999999999787e+00
3.640000000000000124e+00
-4.950000000000000178e+00
1.746999999999999886e+01
-1.860000000000000098e+00
-1.675000000000000000e+01
-3.900000000000000133e-01
4.190000000000000391e+00
-1.078999999999999915e+01
-2.382999999999999829e+01
1.346000000000000085e+01
1.200999999999999979e+01
1.900000000000000022e-01
8.769999999999999574e+00
7.990000000000000213e+00
-6.519999999999999574e+00
-2.351000000000000156e+01
1.551999999999999957e+01
-3.910000000000000142e+00
-2.187999999999999901e+01
-2.830000000000000071e+00
1.780000000000000071e+01
1.398000000000000043e+01
-5.070000000000000284e+00
3.410999999999999943e+01
-9.650000000000000355e+00
-2.542000000000000171e+01
-1.821000000000000085e+01
1.199999999999999956e-01
-5.719999999999999751e+00
-3.350999999999999801e+01
1.356000000000000050e+01
4.415999999999999659e+01
4.603000000000000114e+01
1.097000000000000064e+01
4.830000000000000071e+00
1.332000000000000028e+01
-3.581000000000000227e+01
-3.285000000000000142e+01
-1.307000000000000028e+01
-9.419999999999999929e+00
-2.941000000000000014e+01
-7.199999999999999734e-01
-1.421000000000000085e+01
1.336299999999999955e+02
6.182999999999999829e+01
4.120000000000000107e+00
-4.290999999999999659e+01
-9.765000000000000568e+01
-3.753000000000000114e+01
7.350000000000000000e+01
9.690000000000000568e+01
-3.037000000000000099e+01
2.859999999999999876e+00
-6.954000000000000625e+01
-5.215999999999999659e+01
4.652000000000000313e+01
4.560000000000000142e+01
6.250000000000000000e+00
-9.099999999999999645e+00
6.995999999999999375e+01
1.111999999999999922e+01
-7.423999999999999488e+01
2.560000000000000053e+00
-2.896000000000000085e+01
-1.921999999999999886e+01
-3.750000000000000000e+01
6.389999999999999680e+00
3.703999999999999915e+01
7.040000000000000036e+00
-6.450000000000000178e+00
2.626999999999999957e+01
-5.322999999999999687e+01
-5.628999999999999915e+01
2.022199999999999989e+02
-4.410000000000000142e+00
-1.162500000000000000e+02
-3.446000000000000085e+01
4.010000000000000142e+01
-7.049999999999999822e+00
-2.241000000000000014e+01
-3.675999999999999801e+01
-1.000000000000000021e-02
2.546000000000000085e+01
4.650000000000000000e+01
-2.566600000000000250e+02
1.703799999999999955e+02
9.856999999999999318e+01
7.298999999999999488e+01
-5.842000000000000171e+01
-9.545999999999999375e+01
-1.680999999999999872e+01
3.137000000000000099e+01
5.250000000000000000e+01
8.940000000000000568e+01
9.243999999999999773e+01
-1.902599999999999909e+02
-7.793000000000000682e+01
4.045000000000000284e+01
7.290999999999999659e+01
-8.740000000000000213e+00
7.019999999999999574e+00
2.010999999999999943e+01
2.500000000000000000e+00
-2.635000000000000142e+01
2.437999999999999901e+01
4.099999999999999756e-01
-2.860999999999999943e+01
-3.279999999999999805e+00
-4.750000000000000000e+00
-8.339999999999999858e+00
-2.257000000000000028e+01
3.431000000000000227e+01
1.224000000000000021e+01
-1.869000000000000128e+01
1.607999999999999829e+01
1.246000000000000085e+01
-1.598000000000000043e+01
-2.903999999999999915e+01
1.225000000000000000e+01
-1.025000000000000000e+01
-1.758999999999999986e+01
3.739999999999999858e+01
1.971999999999999886e+01
-1.241999999999999993e+01
-7.099999999999999645e-01
1.216000000000000014e+01
1.129999999999999893e+00
-3.393999999999999773e+01
1.083999999999999986e+01
5.999999999999999778e-02
-7.950000000000000178e+00
1.191999999999999993e+01
9.080000000000000071e+00
-7.299999999999999822e+00
-1.998999999999999844e+01
2.473999999999999844e+01
5.219999999999999751e+00
-1.581000000000000050e+01
6.370000000000000107e+00
1.570000000000000062e+00
-1.853999999999999915e+01
-2.280999999999999872e+01
2.521999999999999886e+01
1.516000000000000014e+01
-2.399999999999999911e+00
2.299999999999999822e+00
4.042999999999999972e+01
-1.483000000000000114e+02
2.078999999999999915e+01
-1.692000000000000171e+01
-4.086999999999999744e+01
-5.842999999999999972e+01
2.539000000000000057e+01
2.885000000000000142e+01
-8.000000000000000167e-02
1.308999999999999986e+01
5.846000000000000085e+01
7.410000000000000142e+00
-5.559000000000000341e+01
-2.300000000000000100e-01
-6.695999999999999375e+01
-8.830000000000000071e+00
-7.299999999999999822e-01
8.459999999999999432e+01
-8.400000000000000355e+00
1.676999999999999957e+01
6.190000000000000391e+00
-1.617000000000000171e+01
8.299999999999999600e-01
-2.580000000000000071e+00
1.165000000000000036e+01
1.316000000000000014e+01
2.191000000000000014e+01
3.246000000000000085e+01
-6.734000000000000341e+01
-3.614999999999999858e+01
1.133700000000000045e+02
-1.167600000000000051e+02
1.949199999999999875e+02
-1.863600000000000136e+02
-2.150300000000000011e+02
4.196999999999999886e+01
1.047000000000000064e+01
1.399099999999999966e+02
1.077800000000000011e+02
2.101000000000000156e+01
-8.250000000000000000e+01
-1.034899999999999949e+02
2.242700000000000102e+02
-6.175999999999999801e+01
9.756999999999999318e+01
-2.255800000000000125e+02
6.007000000000000028e+01
1.084000000000000057e+02
3.007000000000000028e+01
-5.328999999999999915e+01
-1.058999999999999986e+01
1.389000000000000057e+01
-1.436999999999999922e+01
3.057000000000000028e+01
-1.524000000000000021e+01
-2.525000000000000000e+01
2.039000000000000057e+01
6.419999999999999929e+00
-1.193999999999999950e+01
-5.899999999999999689e-01
9.810000000000000497e+00
-5.129999999999999893e+00
-1.177999999999999936e+01
1.335999999999999943e+01
-5.320000000000000284e+00
-9.910000000000000142e+00
1.461999999999999922e+01
2.529999999999999805e+00
-1.568999999999999950e+01
1.728999999999999915e+01
-1.399999999999999911e+00
-2.187999999999999901e+01
1.503999999999999915e+01
3.140000000000000124e+00
-1.664000000000000057e+01
1.714999999999999858e+01
4.250000000000000000e+00
-1.317999999999999972e+01
1.942000000000000171e+01
-8.900000000000000133e-01
4.774000000000000199e+01
6.875000000000000000e+01
-3.575999999999999801e+01
-4.240999999999999659e+01
1.837000000000000099e+01
-8.109000000000000341e+01
-2.894999999999999929e+01
2.178000000000000114e+01
-3.431000000000000227e+01
1.521000000000000085e+01
1.353000000000000114e+02
-8.062000000000000455e+01
-5.817000000000000171e+01
4.270000000000000284e+01
-3.435000000000000142e+01
1.919999999999999929e+01
-1.266200000000000045e+02
1.031599999999999966e+02
-1.093900000000000006e+02
2.391699999999999875e+02
-7.599999999999999645e+00
-1.043499999999999943e+02
6.401000000000000512e+01
3.392000000000000171e+01
-1.036800000000000068e+02
1.132099999999999937e+02
1.337599999999999909e+02
-2.154000000000000057e+02
1.907899999999999920e+02
9.992000000000000171e+01
-2.823199999999999932e+02
1.225199999999999960e+02
5.209999999999999964e+00
-4.394399999999999977e+02
3.304900000000000091e+02
1.000100000000000051e+02
2.121500000000000057e+02
6.145000000000000284e+01
-5.234400000000000546e+02
2.801000000000000227e+02
4.071999999999999886e+01
-5.757599999999999909e+02
-9.473000000000000398e+01
2.478000000000000114e+02
8.810000000000000497e+00
9.309999999999999432e+01
-1.586999999999999922e+01
3.679999999999999716e+01
5.284000000000000341e+01
-3.875000000000000000e+01
3.404999999999999716e+01
2.451999999999999957e+01
-1.595999999999999943e+02
1.300399999999999920e+02
-3.007999999999999829e+01
-2.444000000000000128e+01
5.321000000000000085e+01
-6.209999999999999964e+00
7.095999999999999375e+01
5.352699999999999818e+02
-2.906200000000000045e+02
-8.401000000000000512e+01
7.887000000000000455e+01
1.311999999999999922e+01
-9.800000000000000000e+01
-1.710999999999999943e+01
-4.778000000000000114e+01
5.240999999999999659e+01
2.789000000000000057e+01
-8.009999999999999787e+00
2.705999999999999872e+01
-1.023000000000000043e+01
-7.623999999999999488e+01
8.115999999999999659e+01
3.321000000000000085e+01
-2.598999999999999844e+01
2.799999999999999822e+00
-7.199999999999999734e-01
-5.246999999999999886e+01
9.349999999999999645e+00
8.890000000000000568e+00
2.462999999999999901e+01
1.558000000000000114e+02
5.940000000000000391e+00
-1.528100000000000023e+02
-1.044399999999999977e+02
1.110600000000000023e+02
-6.553000000000000114e+01
1.108000000000000007e+01
5.219999999999999751e+00
-3.542000000000000171e+01
2.317999999999999972e+01
2.996000000000000085e+01
1.790699999999999932e+02
-2.303100000000000023e+02
1.383999999999999986e+01
1.780800000000000125e+02
-4.596999999999999886e+01
2.314999999999999858e+01
-4.717000000000000171e+01
-4.900000000000000355e+00
7.459999999999999964e+00
1.431000000000000050e+01
-1.467999999999999972e+01
1.149999999999999911e+00
7.219999999999999751e+00
-4.629999999999999716e+01
-1.455099999999999909e+02
1.646299999999999955e+02
8.600000000000000000e+01
1.918400000000000034e+02
-6.690000000000000568e+01
-2.540200000000000102e+02
2.810000000000000142e+01
3.067000000000000171e+01
-3.479999999999999982e+00
-5.429999999999999716e+00
1.489000000000000057e+01
-3.270000000000000018e+00
-1.926999999999999957e+01
-1.110999999999999943e+01
1.830000000000000071e+00
-1.514000000000000057e+01
2.087000000000000099e+01
-3.240000000000000213e+00
-1.366999999999999993e+01
6.885999999999999943e+01
1.258700000000000045e+02
3.472099999999999795e+02
-3.382999999999999829e+01
-4.746100000000000136e+02
9.601000000000000512e+01
2.523999999999999844e+01
-2.026999999999999886e+02
4.437400000000000091e+02
-1.790500000000000114e+02
-1.133400000000000034e+02
5.093999999999999773e+01
2.361399999999999864e+02
-1.691200000000000045e+02
-4.153799999999999955e+02
-9.271999999999999886e+01
3.251600000000000250e+02
1.391000000000000014e+01
1.855000000000000071e+01
-3.503999999999999915e+01
3.721499999999999773e+02
-9.087999999999999545e+01
6.768000000000000682e+01
3.217999999999999972e+01
-2.204000000000000057e+02
6.092000000000000171e+01
1.611399999999999864e+02
2.411800000000000068e+02
-3.880799999999999841e+02
-3.440999999999999659e+01
8.949999999999999289e+00
-2.171999999999999886e+01
2.321000000000000085e+01
-4.969999999999999751e+00
-5.792999999999999972e+01
2.982999999999999829e+01
3.296999999999999886e+01
-2.160000000000000142e+00
-1.616000000000000014e+01
1.416000000000000014e+01
3.868999999999999773e+01
-2.814999999999999858e+01
4.349000000000000199e+01
-1.969000000000000128e+01
-5.178000000000000114e+01
1.910999999999999943e+01
-1.617999999999999972e+01
-2.701000000000000156e+01
1.376999999999999957e+01
-9.099999999999999645e+00
-2.187000000000000099e+01
3.335000000000000142e+01
1.823000000000000043e+01
-3.732000000000000028e+01
6.740000000000000213e+00
3.265999999999999659e+01
-7.669999999999999929e+00
-4.250000000000000000e+00
3.509999999999999787e+00
8.990000000000000213e+00
-2.937999999999999901e+01
-1.263000000000000078e+01
-1.096000000000000085e+01
8.990000000000000213e+00
-1.709999999999999964e+00
2.935999999999999943e+01
1.139000000000000057e+01
-2.169999999999999929e+01
2.473000000000000043e+01
-3.240000000000000213e+00
4.385000000000000142e+01
9.959999999999999432e+01
-7.612999999999999545e+01
-5.472999999999999687e+01
3.582999999999999829e+01
5.446999999999999886e+01
-1.217800000000000011e+02
-8.984000000000000341e+01
2.958999999999999986e+01
6.553000000000000114e+01
9.140000000000000568e+00
2.175000000000000000e+01
-5.684000000000000341e+01
-1.484699999999999989e+02
-1.183000000000000007e+01
-3.363000000000000256e+01
-1.729300000000000068e+02
-3.803000000000000114e+01
1.412500000000000000e+02
9.401000000000000512e+01
2.479999999999999982e+00
-6.339999999999999858e+01
7.104000000000000625e+01
1.992400000000000091e+02
5.474000000000000199e+01
-1.290900000000000034e+02
-1.730999999999999872e+01
1.483000000000000007e+01
1.645300000000000011e+02
2.270000000000000000e+02
-2.622099999999999795e+02
-1.904900000000000091e+02
3.174900000000000091e+02
-3.144000000000000128e+01
-1.515000000000000000e+02
-2.308999999999999986e+01
-2.123000000000000043e+01
-3.042000000000000171e+01
4.982000000000000028e+01
4.771000000000000085e+01
-1.145400000000000063e+02
9.429000000000000625e+01
-6.164000000000000057e+01
-1.510999999999999943e+01
2.384900000000000091e+02
-2.891299999999999955e+02
1.397299999999999898e+02
-2.299099999999999966e+02
8.567000000000000171e+01
5.693999999999999773e+01
1.110499999999999972e+02
-2.445000000000000000e+02
5.179999999999999716e+01
4.820000000000000284e+01
8.349999999999999645e+00
3.857999999999999829e+01
6.448000000000000398e+01
3.103000000000000114e+01
1.837800000000000011e+02
-2.258199999999999932e+02
-3.893899999999999864e+02
7.620000000000000107e+00
7.409000000000000341e+01
1.063199999999999932e+02
7.145999999999999375e+01
-3.579499999999999886e+02
6.531999999999999318e+01
1.563000000000000078e+01
2.100000000000000089e+00
2.841000000000000014e+01
1.294999999999999929e+01
-6.599999999999999645e+00
1.615099999999999909e+02
8.856000000000000227e+01
-9.578000000000000114e+01
3.775999999999999801e+01
-4.975999999999999801e+01
1.127800000000000011e+02
-1.490000000000000036e+01
1.185600000000000023e+02
-1.405399999999999920e+02
-5.238000000000000256e+01
9.278000000000000114e+01
-4.817999999999999972e+01
-3.934000000000000341e+01
-6.064999999999999858e+01
-1.948000000000000043e+01
-1.443999999999999950e+01
3.196999999999999886e+01
9.017000000000000171e+01
-6.610999999999999943e+01
1.298499999999999943e+02
6.059000000000000341e+01
2.169000000000000128e+01
-1.142900000000000063e+02
-9.957999999999999829e+01
1.654199999999999875e+02
-3.540999999999999659e+01
6.830000000000000071e+00
-5.714000000000000057e+01
-7.379999999999999716e+01
9.657999999999999829e+01
-1.017999999999999972e+01
-3.354999999999999716e+01
-1.132800000000000011e+02
-2.326599999999999966e+02
1.203199999999999932e+02
3.365099999999999909e+02
5.275000000000000000e+01
-2.571999999999999886e+01
-7.950000000000000000e+01
-2.617000000000000171e+01
2.554399999999999977e+02
-1.804399999999999977e+02
-3.282300000000000182e+02
7.804000000000000625e+01
1.242999999999999972e+01
1.634399999999999977e+02
-5.971000000000000085e+01
8.293999999999999773e+01
1.651500000000000057e+02
-1.376399999999999864e+02
3.430000000000000160e+00
3.432999999999999829e+01
-1.250699999999999932e+02
1.939000000000000057e+02
-3.903000000000000114e+01
-2.550200000000000102e+02
-2.025800000000000125e+02
2.721600000000000250e+02
-1.883600000000000136e+02
3.228000000000000114e+01
2.246500000000000057e+02
1.600500000000000114e+02
-1.548000000000000114e+02
-1.113199999999999932e+02
-3.942000000000000171e+01
-3.678999999999999915e+01
-1.871000000000000085e+01
2.210000000000000142e+01
-2.729999999999999982e+00
-4.595000000000000284e+01
3.502000000000000313e+01
2.200000000000000178e+00
-1.133999999999999986e+01
-1.796999999999999886e+01
2.376999999999999957e+01
-4.509999999999999787e+00
-2.792000000000000171e+01
2.332999999999999829e+01
1.948000000000000043e+01
-4.219999999999999751e+00
-3.661999999999999744e+01
2.989000000000000057e+01
1.196000000000000085e+01
-1.942000000000000171e+01
1.157000000000000028e+01
1.605999999999999872e+01
-8.560000000000000497e+00
-4.138000000000000256e+01
3.436999999999999744e+01
1.465000000000000036e+01
-1.942999999999999972e+01
1.491000000000000014e+01
2.014000000000000057e+01
-2.549999999999999822e+00
-4.867999999999999972e+01
2.980000000000000071e+01
1.431000000000000050e+01
-1.935000000000000142e+01
8.630000000000000782e+00
2.089000000000000057e+01
1.400000000000000133e-01
-4.531000000000000227e+01
2.532999999999999829e+01
1.971999999999999886e+01
-1.415000000000000036e+01
-7.080000000000000071e+00
1.812000000000000099e+01
3.970000000000000195e+00
-4.207000000000000028e+01
2.180000000000000071e+01
1.878000000000000114e+01
-1.533999999999999986e+01
-2.342000000000000171e+01
2.739000000000000057e+01
1.232000000000000028e+01
-3.178000000000000114e+01
1.792000000000000171e+01
2.142999999999999972e+01
-1.151999999999999957e+01
-1.641000000000000014e+01
2.775000000000000000e+01
8.820000000000000284e+00
-3.992000000000000171e+01
1.992000000000000171e+01
2.612999999999999901e+01
-1.391999999999999993e+01
-2.930000000000000071e+01
2.676000000000000156e+01
1.417999999999999972e+01
-3.096999999999999886e+01
9.669999999999999929e+00
1.910000000000000142e+01
-1.011999999999999922e+01
-3.532999999999999829e+01
2.480999999999999872e+01
1.933999999999999986e+01
-2.078999999999999915e+01
-8.050000000000000711e+00
2.403000000000000114e+01
5.969999999999999751e+00
-4.092999999999999972e+01
8.529999999999999361e+00
1.100000000000000000e+01
-1.637000000000000099e+01
-3.561999999999999744e+01
2.958999999999999986e+01
6.589999999999999858e+00
-5.227000000000000313e+01
2.605000000000000071e+01
4.243999999999999773e+01
-2.770000000000000018e+00
-1.506000000000000050e+01
3.427000000000000313e+01
1.008999999999999986e+01
-4.842999999999999972e+01
3.599000000000000199e+01
2.785999999999999943e+01
-4.365999999999999659e+01
-6.019999999999999574e+00
2.712000000000000099e+01
-2.259999999999999787e+00
-4.365999999999999659e+01
2.641000000000000014e+01
4.969999999999999751e+00
-6.100000000000000000e+01
3.101000000000000156e+01
5.571999999999999886e+01
1.353999999999999915e+01
-9.895000000000000284e+01
-2.289000000000000057e+01
-3.346999999999999886e+01
1.307199999999999989e+02
-4.989000000000000057e+01
-1.177300000000000040e+02
-7.015000000000000568e+01
9.984000000000000341e+01
-3.786999999999999744e+01
1.005199999999999960e+02
-2.100000000000000000e+01
-6.304999999999999716e+01
5.132999999999999829e+01
-1.231899999999999977e+02
6.264000000000000057e+01
-1.644499999999999886e+02
-3.413000000000000256e+01
5.269199999999999591e+02
-6.469999999999999751e+00
-4.675799999999999841e+02
-3.491800000000000068e+02
4.253299999999999841e+02
1.538400000000000034e+02
-8.199999999999999289e+00
-1.238100000000000023e+02
4.628999999999999915e+01
7.935999999999999943e+01
-7.620000000000000107e+00
4.484000000000000341e+01
-2.762999999999999901e+01
-1.303999999999999915e+01
8.659999999999999432e+01
-6.609999999999999432e+01
-3.385000000000000142e+01
3.110000000000000142e+01
7.076999999999999602e+01
1.241200000000000045e+02
8.720999999999999375e+01
-2.141200000000000045e+02
9.204999999999999716e+01
-2.942999999999999972e+01
-4.054999999999999716e+01
-4.740000000000000213e+00
2.026699999999999875e+02
3.388000000000000256e+01
5.782999999999999829e+01
-1.146599999999999966e+02
-1.658199999999999932e+02
-8.737999999999999545e+01
-2.019000000000000128e+01
1.871000000000000085e+01
3.743000000000000114e+02
-1.009099999999999966e+02
5.679999999999999716e+01
8.470999999999999375e+01
-3.783700000000000045e+02
2.694900000000000091e+02
6.250999999999999801e+01
1.830699999999999932e+02
-1.251700000000000017e+02
-5.382000000000000028e+01
-3.094000000000000128e+01
-2.802500000000000000e+02
-5.286999999999999744e+01
5.420000000000000284e+01
-6.280000000000000249e+00
1.532400000000000091e+02
5.782000000000000028e+01
-1.358199999999999932e+02
-3.785000000000000142e+01
2.120999999999999943e+02
-1.115400000000000063e+02
1.257000000000000028e+01
7.460999999999999943e+01
4.902200000000000273e+02
-2.082599999999999909e+02
-2.272899999999999920e+02
-2.976399999999999864e+02
2.392100000000000080e+02
4.232999999999999829e+01
-1.017900000000000063e+02
-4.759999999999999787e+00
2.619999999999999929e+01
-9.228000000000000114e+01
-1.353000000000000114e+02
2.771100000000000136e+02
-7.576000000000000512e+01
1.948400000000000034e+02
2.571700000000000159e+02
-5.434000000000000341e+01
-4.579100000000000250e+02
3.169399999999999977e+02
-2.802799999999999727e+02
3.768000000000000114e+02
-2.395399999999999920e+02
-5.642999999999999972e+01
2.463899999999999864e+02
-2.173999999999999844e+01
1.623999999999999844e+01
-1.110499999999999972e+02
1.161899999999999977e+02
1.050000000000000044e+00
1.892599999999999909e+02
1.756599999999999966e+02
-1.564300000000000068e+02
-6.870999999999999375e+01
7.260999999999999943e+01
-5.500000000000000000e+00
1.808499999999999943e+02
-1.410699999999999932e+02
1.771000000000000085e+01
7.373000000000000398e+01
9.290000000000000568e+01
3.657999999999999829e+01
-8.076000000000000512e+01
1.294799999999999898e+02
-8.290000000000000568e+01
-2.371299999999999955e+02
2.924700000000000273e+02
-5.646999999999999886e+01
-2.444000000000000128e+01
1.196000000000000085e+01
6.365999999999999659e+01
3.665600000000000023e+02
-8.656999999999999318e+01
-1.207600000000000051e+02
-8.104999999999999716e+01
-1.894999999999999929e+01
4.128999999999999915e+01
-5.059999999999999609e+00
-4.181000000000000227e+02
2.286899999999999977e+02
2.311599999999999966e+02
-4.350999999999999801e+01
1.511999999999999886e+02
-6.993999999999999773e+01
3.204999999999999716e+01
-2.785000000000000142e+01
1.862999999999999901e+01
-3.385000000000000142e+01
-3.382999999999999829e+01
2.892000000000000171e+01
6.245000000000000284e+01
-8.882999999999999829e+01
-5.635000000000000142e+01
6.648000000000000398e+01
-6.826000000000000512e+01
7.817000000000000171e+01
4.422999999999999687e+01
-4.959999999999999964e+00
-2.085000000000000142e+01
2.816000000000000014e+01
3.247999999999999687e+01
6.306000000000000227e+01
-2.678000000000000114e+01
-3.881000000000000227e+01
-2.958999999999999986e+01
4.924000000000000199e+01
-8.414000000000000057e+01
-4.021000000000000085e+01
8.439000000000000057e+01
-3.971999999999999886e+01
-4.529999999999999716e+01
5.252000000000000313e+01
9.157999999999999829e+01
1.759199999999999875e+02
7.679999999999999716e+00
-2.507999999999999829e+01
2.664000000000000057e+01
-2.209499999999999886e+02
7.870000000000000107e+00
-1.141000000000000014e+01
5.539000000000000057e+01
-7.676999999999999602e+01
1.750000000000000000e+01
1.710000000000000142e+01
2.464999999999999858e+01
-9.190999999999999659e+01
-1.274000000000000057e+02
1.077000000000000028e+02
1.520000000000000000e+02
3.743999999999999773e+01
-1.856999999999999886e+02
-7.015000000000000568e+01
-1.732999999999999829e+01
-4.089000000000000057e+01
3.330000000000000071e+00
-4.919999999999999929e+00
-1.360300000000000011e+02
-8.379000000000000625e+01
9.756000000000000227e+01
1.219500000000000028e+02
2.376999999999999957e+01
-2.212899999999999920e+02
1.593499999999999943e+02
-2.434600000000000080e+02
2.062999999999999901e+01
9.199999999999999289e+00
1.285500000000000114e+02
1.468100000000000023e+02
-1.209099999999999966e+02
3.067999999999999972e+01
-2.235999999999999943e+02
5.809000000000000341e+01
2.520000000000000018e+00
-9.065000000000000568e+01
5.025000000000000000e+01
8.840999999999999659e+01
-1.070799999999999983e+02
-1.748000000000000043e+01
-1.633499999999999943e+02
-1.501999999999999957e+01
1.319999999999999929e+01
7.785999999999999943e+01
-9.834999999999999432e+01
7.846999999999999886e+01
4.529999999999999716e+01
-5.896999999999999886e+01
-3.729999999999999716e+01
-4.528999999999999915e+01
3.683199999999999932e+02
1.096700000000000017e+02
-3.851700000000000159e+02
9.681000000000000227e+01
5.460999999999999943e+01
1.609499999999999886e+02
3.243000000000000114e+02
-1.535099999999999909e+02
-3.088899999999999864e+02
1.898400000000000034e+02
2.962999999999999901e+01
-3.026999999999999957e+01
-6.495999999999999375e+01
2.692599999999999909e+02
-1.384999999999999964e+01
-1.354399999999999977e+02
4.725000000000000000e+01
2.548000000000000043e+01
-1.389000000000000057e+02
3.871999999999999886e+01
-5.707000000000000028e+01
3.660999999999999943e+01
5.799999999999999822e+00
-6.615000000000000568e+01
4.604999999999999716e+01
3.779999999999999716e+01
1.803999999999999915e+01
5.564000000000000057e+01
-4.257000000000000028e+01
1.115799999999999983e+02
-2.117800000000000011e+02
2.059199999999999875e+02
-3.979999999999999716e+01
-6.269999999999999574e+00
-3.436200000000000045e+02
2.976600000000000250e+02
-7.362999999999999545e+01
-1.290000000000000000e+02
8.604000000000000625e+01
-6.207999999999999829e+01
-1.058499999999999943e+02
9.446999999999999886e+01
9.626999999999999602e+01
-1.303000000000000114e+02
9.318000000000000682e+01
-1.511599999999999966e+02
-7.106999999999999318e+01
1.561500000000000057e+02
2.816000000000000014e+01
1.318999999999999950e+01
4.077000000000000313e+01
2.564399999999999977e+02
-1.213599999999999994e+02
-1.273700000000000045e+02
2.171299999999999955e+02
-1.689099999999999966e+02
-1.383600000000000136e+02
1.838799999999999955e+02
-1.296000000000000085e+01
-4.529999999999999716e+01
2.194000000000000128e+01
-1.913000000000000114e+02
2.189900000000000091e+02
-1.837700000000000102e+02
1.179800000000000040e+02
-2.799999999999999822e+00
-9.764000000000000057e+01
-1.735500000000000114e+02
1.891200000000000045e+02
9.403000000000000114e+01
-4.357000000000000028e+01
-7.468000000000000682e+01
-4.260999999999999943e+01
9.156000000000000227e+01
-4.553999999999999915e+01
2.044999999999999929e+01
-9.429999999999999716e+00
3.928000000000000114e+01
-5.577000000000000313e+01
-4.138000000000000256e+01
6.629999999999999893e+00
-2.860000000000000142e+01
1.459999999999999964e+01
-5.110000000000000320e+00
-2.589999999999999858e+01
-4.610999999999999943e+01
1.347000000000000064e+01
2.871999999999999886e+01
9.390000000000000568e+01
4.179999999999999716e+01
-1.165600000000000023e+02
1.937000000000000099e+01
4.052000000000000313e+01
-5.519999999999999574e+00
-4.710999999999999943e+01
-7.684999999999999432e+01
3.146000000000000085e+01
6.504000000000000625e+01
4.264000000000000057e+01
8.730000000000000426e+00
2.879999999999999893e+00
-1.739999999999999858e+01
1.025499999999999972e+02
-8.818000000000000682e+01
1.926999999999999957e+01
1.556200000000000045e+02
-2.003100000000000023e+02
2.414999999999999858e+01
3.986999999999999744e+01
2.039000000000000057e+01
8.234999999999999432e+01
-9.259999999999999432e+01
3.765999999999999659e+01
-7.831000000000000227e+01
2.710000000000000142e+01
1.725200000000000102e+02
-2.374199999999999875e+02
-1.063000000000000078e+01
1.496000000000000085e+01
6.086999999999999744e+01
-9.362000000000000455e+01
1.184800000000000040e+02
-1.457199999999999989e+02
8.910999999999999943e+01
1.935999999999999943e+01
6.168999999999999773e+01
-1.606899999999999977e+02
-3.012999999999999901e+01
8.523999999999999488e+01
-3.164000000000000057e+01
2.326000000000000156e+01
-3.028999999999999915e+01
8.037000000000000455e+01
-5.499000000000000199e+01
2.582999999999999829e+01
-1.160999999999999943e+02
-9.289999999999999147e+00
2.133999999999999986e+01
5.986999999999999744e+01
-8.181999999999999318e+01
1.290999999999999943e+02
-2.162000000000000099e+01
2.232999999999999829e+01
-5.278000000000000114e+01
-5.334000000000000341e+01
2.660000000000000142e+01
-7.910000000000000142e+00
-3.477000000000000313e+01
1.939999999999999947e+00
4.175000000000000000e+01
-9.179999999999999716e+00
5.528000000000000114e+01
-6.473000000000000398e+01
2.450000000000000178e+00
-1.726000000000000156e+01
-3.529999999999999716e+01
1.146400000000000006e+02
-2.633999999999999986e+01
-3.250000000000000000e+01
-3.132000000000000028e+01
3.832000000000000028e+01
-9.759999999999999432e+01
4.950000000000000178e+00
-7.290000000000000036e+00
1.753999999999999915e+01
-8.018000000000000682e+01
-1.425000000000000000e+01
3.328999999999999915e+01
3.392999999999999972e+01
-1.167399999999999949e+02
6.297999999999999687e+01
7.321999999999999886e+01
6.559999999999999609e+00
-1.599000000000000021e+01
5.957999999999999829e+01
-1.848000000000000043e+01
1.000000000000000000e+01
7.299999999999999822e+00
5.257000000000000028e+01
-2.425000000000000000e+01
2.855999999999999872e+01
-8.134999999999999432e+01
-6.004999999999999716e+01
2.264999999999999858e+01
1.008999999999999986e+01
4.193999999999999773e+01
-3.553000000000000114e+01
-1.685999999999999943e+01
2.500000000000000000e-01
3.610999999999999943e+01
2.401999999999999957e+01
3.979999999999999982e+00
-4.339999999999999858e+01
1.878000000000000114e+01
-3.028000000000000114e+01
-4.264000000000000057e+01
5.081000000000000227e+01
-1.325999999999999979e+01
2.830999999999999872e+01
-1.794000000000000128e+01
2.080000000000000071e+01
-1.481000000000000050e+01
1.910999999999999943e+01
8.384999999999999432e+01
-1.413000000000000078e+01
6.946999999999999886e+01
-1.434999999999999964e+01
-3.053000000000000114e+01
-7.542000000000000171e+01
4.522999999999999687e+01
9.101999999999999602e+01
-1.953000000000000114e+01
-4.603000000000000114e+01
-1.457000000000000028e+01
2.476000000000000156e+01
-6.389000000000000057e+01
4.107999999999999829e+01
1.653000000000000114e+01
4.639999999999999680e+00
-6.451999999999999602e+01
-2.812999999999999901e+01
-3.578000000000000114e+01
5.230000000000000426e+00
1.250999999999999979e+01
-3.017000000000000171e+01
3.659000000000000341e+01
9.560000000000000497e+00
1.413000000000000078e+01
7.889000000000000057e+01
-6.289000000000000057e+01
-8.368999999999999773e+01
4.624000000000000199e+01
8.265000000000000568e+01
2.423000000000000043e+01
-8.675000000000000000e+01
4.696999999999999886e+01
-4.118999999999999773e+01
-6.559999999999999609e+00
8.456000000000000227e+01
-3.636999999999999744e+01
2.712000000000000099e+01
-5.328999999999999915e+01
6.075000000000000000e+01
-6.980000000000000426e+00
-2.028000000000000114e+01
-1.565000000000000036e+01
-5.992999999999999972e+01
-1.744999999999999929e+01
7.849999999999999645e+00
3.934000000000000341e+01
4.919999999999999929e+00
-1.808999999999999986e+01
1.566999999999999993e+01
5.540000000000000036e+00
6.484000000000000341e+01
3.600000000000000000e+01
-4.125999999999999801e+01
-8.028000000000000114e+01
-2.426000000000000156e+01
1.533999999999999986e+01
-6.556999999999999318e+01
1.419999999999999929e+00
5.842999999999999972e+01
6.332999999999999829e+01
-5.682000000000000028e+01
8.445000000000000284e+01
-6.100000000000000000e+01
-2.873000000000000043e+01
9.056000000000000227e+01
1.306000000000000050e+01
1.055000000000000071e+01
-1.074500000000000028e+02
5.202000000000000313e+01
2.164099999999999966e+02
-2.494199999999999875e+02
1.484999999999999964e+01
5.971000000000000085e+01
-1.347199999999999989e+02
3.540000000000000036e+00
-3.202900000000000205e+02
2.789399999999999977e+02
-1.356299999999999955e+02
5.418999999999999773e+01
1.726500000000000057e+02
-9.442000000000000171e+01
-1.352800000000000011e+02
2.050399999999999920e+02
-3.429999999999999716e+01
-1.638499999999999943e+02
3.240000000000000213e+00
1.174599999999999937e+02
1.623000000000000043e+01
-2.033999999999999986e+01
9.965999999999999659e+01
2.591000000000000014e+01
-5.210999999999999943e+01
-1.275999999999999979e+01
1.267999999999999972e+01
7.637000000000000455e+01
-1.465099999999999909e+02
2.814000000000000057e+01
3.621999999999999886e+01
1.406399999999999864e+02
-9.529000000000000625e+01
-4.449000000000000199e+01
1.892000000000000171e+01
-7.509999999999999787e+00
5.204999999999999716e+01
-8.454999999999999716e+01
-3.557000000000000028e+01
3.971800000000000068e+02
-1.105000000000000000e+02
-1.133700000000000045e+02
-6.379999999999999893e+00
-6.259999999999999787e+00
3.921999999999999886e+01
-1.218599999999999994e+02
1.373799999999999955e+02
-1.025799999999999983e+02
1.285999999999999943e+01
1.257199999999999989e+02
1.951999999999999957e+01
-6.437000000000000455e+01
-3.133999999999999986e+01
6.209000000000000341e+01
1.353899999999999864e+02
-2.610500000000000114e+02
1.511100000000000136e+02
-1.122000000000000028e+02
1.028900000000000006e+02
1.350500000000000114e+02
-4.030000000000000249e+00
9.156000000000000227e+01
-1.001400000000000006e+02
1.141500000000000057e+02
-3.939700000000000273e+02
3.014000000000000057e+01
2.068700000000000045e+02
-2.437199999999999989e+02
-4.222999999999999687e+01
-6.138000000000000256e+01
1.669799999999999898e+02
1.967100000000000080e+02
-1.212900000000000063e+02
-3.732099999999999795e+02
1.929600000000000080e+02
1.032000000000000028e+02
1.761500000000000057e+02
-2.657799999999999727e+02
8.099999999999999645e+00
-2.580000000000000071e+00
8.723999999999999488e+01
1.549699999999999989e+02
-2.828500000000000227e+02
3.124200000000000159e+02
-1.440099999999999909e+02
1.148900000000000006e+02
-3.069399999999999977e+02
-8.243000000000000682e+01
9.929000000000000625e+01
-1.839000000000000057e+01
1.259399999999999977e+02
8.289000000000000057e+01
1.217999999999999972e+01
-3.819700000000000273e+02
-4.632000000000000028e+01
1.591399999999999864e+02
6.957999999999999829e+01
6.820000000000000284e+01
1.590000000000000080e+00
4.290999999999999659e+01
1.396000000000000085e+01
-3.012000000000000099e+01
-9.367000000000000171e+01
1.032999999999999972e+02
1.197900000000000063e+02
-6.349000000000000199e+01
-2.383199999999999932e+02
1.077199999999999989e+02
1.805699999999999932e+02
1.837999999999999901e+01
-2.216699999999999875e+02
1.910999999999999943e+01
1.812700000000000102e+02
1.282000000000000028e+01
-9.390000000000000568e+01
1.946999999999999886e+01
1.077900000000000063e+02
-4.338000000000000256e+01
-8.506000000000000227e+01
-9.279999999999999361e+00
4.789000000000000057e+01
7.395000000000000284e+01
-3.320000000000000284e+01
-1.667100000000000080e+02
1.160000000000000000e+02
2.393000000000000114e+02
-2.712999999999999901e+01
6.504000000000000625e+01
-8.067000000000000171e+01
-3.370000000000000107e+00
-5.263000000000000256e+01
5.152000000000000313e+01
-2.076500000000000057e+02
-1.612800000000000011e+02
-3.528000000000000114e+01
1.377999999999999936e+01
-1.066999999999999993e+01
1.030000000000000027e+00
4.480000000000000426e+00
6.078000000000000114e+01
-2.068000000000000114e+02
1.456399999999999864e+02
1.395999999999999943e+02
-8.015999999999999659e+01
-1.299300000000000068e+02
1.813600000000000136e+02
2.597799999999999727e+02
-2.119199999999999875e+02
2.060200000000000102e+02
-7.143999999999999773e+01
-1.721899999999999977e+02
8.081999999999999318e+01
-1.826399999999999864e+02
-5.328999999999999915e+01
2.584200000000000159e+02
2.054300000000000068e+02
-8.443999999999999773e+01
7.120000000000000284e+01
-1.314000000000000057e+01
-1.182500000000000000e+02
4.865999999999999659e+01
-8.906000000000000227e+01
9.765999999999999659e+01
7.434999999999999432e+01
-9.259999999999999787e+00
1.009999999999999964e+01
-5.224000000000000199e+01
1.197900000000000063e+02
2.759999999999999787e+00
-2.573000000000000043e+01
-6.845000000000000284e+01
3.563000000000000256e+01
1.108299999999999983e+02
-1.111599999999999966e+02
-6.256000000000000227e+01
3.153999999999999915e+01
1.407599999999999909e+02
-3.667999999999999972e+01
-8.815000000000000568e+01
1.346599999999999966e+02
-8.921999999999999886e+01
-1.908999999999999986e+01
1.209999999999999964e+00
4.882000000000000028e+01
-3.800899999999999750e+02
6.396000000000000085e+01
4.684000000000000341e+01
1.494399999999999977e+02
8.737000000000000455e+01
-9.451000000000000512e+01
-2.442899999999999920e+02
-4.164999999999999858e+01
-2.452700000000000102e+02
-1.139000000000000057e+01
3.810199999999999818e+02
-5.679999999999999716e+01
-3.184399999999999977e+02
1.077399999999999949e+02
1.705099999999999909e+02
3.374000000000000199e+01
-1.532700000000000102e+02
1.598100000000000023e+02
8.254000000000000625e+01
7.314000000000000057e+01
-2.359699999999999989e+02
3.754999999999999716e+01
8.989000000000000057e+01
3.467999999999999972e+01
2.380000000000000071e+01
-7.745999999999999375e+01
-1.269300000000000068e+02
8.410999999999999943e+01
-2.251999999999999957e+01
2.458999999999999986e+01
9.462999999999999545e+01
9.368000000000000682e+01
-3.231000000000000227e+01
-5.010000000000000142e+01
1.576999999999999957e+01
4.614000000000000057e+01
-7.454000000000000625e+01
8.615000000000000568e+01
7.867000000000000171e+01
-1.719300000000000068e+02
-3.860000000000000142e+01
1.747800000000000011e+02
-8.968999999999999773e+01
4.197999999999999687e+01
-2.130999999999999872e+01
-1.429999999999999938e+00
-2.719000000000000128e+01
9.837000000000000455e+01
6.600000000000000311e-01
-7.106000000000000227e+01
5.703000000000000114e+01
1.357000000000000028e+01
-8.500000000000000000e+00
1.307599999999999909e+02
1.770000000000000018e+00
-2.632999999999999829e+01
1.077600000000000051e+02
1.003400000000000034e+02
-3.653500000000000227e+02
1.572100000000000080e+02
1.561500000000000057e+02
-1.565900000000000034e+02
-7.176999999999999602e+01
1.480800000000000125e+02
-1.424199999999999875e+02
2.212999999999999901e+01
-1.453999999999999915e+01
-3.007999999999999829e+01
-2.859999999999999876e+00
4.000000000000000000e+01
-2.371999999999999886e+01
2.753999999999999915e+01
-4.925000000000000000e+01
-9.869999999999999218e+00
1.058000000000000007e+01
-3.399999999999999911e+00
-2.842999999999999972e+01
-6.920000000000000284e+01
6.490000000000000568e+01
3.482000000000000028e+01
-4.232000000000000028e+01
6.443000000000000682e+01
-6.056000000000000227e+01
3.092000000000000171e+01
-7.717000000000000171e+01
5.943999999999999773e+01
8.100000000000000533e-01
-3.080000000000000071e+00
-5.774000000000000199e+01
2.028999999999999915e+01
1.456800000000000068e+02
-8.692000000000000171e+01
1.527999999999999936e+01
1.353999999999999915e+01
-3.064999999999999858e+01
1.739999999999999858e+01
-7.606000000000000227e+01
3.221000000000000085e+01
-4.567999999999999972e+01
5.825999999999999801e+01
3.810000000000000142e+01
-4.479999999999999716e+01
6.610999999999999943e+01
-1.142199999999999989e+02
5.506000000000000227e+01
-5.331000000000000227e+01
8.585999999999999943e+01
8.849999999999999645e+00
-2.880000000000000071e+01
4.204999999999999716e+01
-5.154999999999999716e+01
5.156000000000000227e+01
-7.254999999999999716e+01
3.882000000000000028e+01
-2.912999999999999901e+01
2.103999999999999915e+01
1.423000000000000043e+01
-3.975000000000000000e+01
1.703000000000000114e+01
-7.028000000000000114e+01
6.840999999999999659e+01
1.327999999999999936e+01
-2.029999999999999805e+00
1.433000000000000007e+01
-1.515000000000000036e+01
2.144000000000000128e+01
-4.138000000000000256e+01
8.470000000000000639e+00
1.550999999999999979e+01
-1.571000000000000085e+01
4.675999999999999801e+01
-5.750000000000000000e+01
4.314999999999999858e+01
-2.382000000000000028e+01
-5.519999999999999574e+00
2.762000000000000099e+01
-2.228999999999999915e+01
1.337500000000000000e+02
-1.079500000000000028e+02
3.838000000000000256e+01
-3.946000000000000085e+01
5.739000000000000057e+01
5.207999999999999829e+01
-1.055699999999999932e+02
5.219999999999999751e+00
-4.268999999999999773e+01
8.301000000000000512e+01
-5.406000000000000227e+01
-7.969999999999999751e+00
-4.046000000000000085e+01
2.000000000000000042e-02
1.839999999999999858e+01
-7.769999999999999574e+00
3.450999999999999801e+01
-2.276999999999999957e+01
1.058999999999999986e+01
-2.676999999999999957e+01
4.519999999999999574e+00
-1.516999999999999993e+01
-4.220000000000000284e+01
8.279999999999999361e+00
-9.480000000000000426e+00
4.854999999999999716e+01
-1.483000000000000007e+01
5.404999999999999716e+01
6.731000000000000227e+01
9.962000000000000455e+01
-3.100000000000000089e+00
-1.303600000000000136e+02
-4.725000000000000000e+01
6.940000000000000391e+00
-1.324000000000000021e+01
-4.007000000000000028e+01
-1.601999999999999957e+01
5.731000000000000227e+01
-3.834000000000000341e+01
1.186099999999999994e+02
-2.653999999999999915e+01
1.139999999999999902e+00
3.368999999999999773e+01
-6.693000000000000682e+01
-1.705999999999999872e+01
-7.476999999999999602e+01
-1.837000000000000099e+01
5.402000000000000313e+01
7.990000000000000213e+00
4.196000000000000085e+01
-4.493999999999999773e+01
7.400000000000000355e+00
-9.029000000000000625e+01
-4.471000000000000085e+01
1.403000000000000114e+02
-3.824000000000000199e+01
1.134899999999999949e+02
6.092000000000000171e+01
-7.548000000000000398e+01
-7.467000000000000171e+01
4.309999999999999609e+00
-1.548000000000000043e+01
-2.410000000000000142e+01
2.853999999999999915e+01
-4.125000000000000000e+01
2.532999999999999829e+01
-6.310999999999999943e+01
7.164000000000000057e+01
-7.889999999999999680e+00
5.870000000000000107e+00
1.100000000000000006e-01
-4.561999999999999744e+01
3.468999999999999773e+01
-3.213000000000000256e+01
2.946000000000000085e+01
-2.164999999999999858e+01
4.117999999999999972e+01
-3.696000000000000085e+01
-6.830000000000000071e+00
2.767999999999999972e+01
-5.864999999999999858e+01
8.810999999999999943e+01
-5.586999999999999744e+01
7.675000000000000000e+01
-1.361999999999999922e+01
5.136999999999999744e+01
-2.269000000000000128e+01
-6.618000000000000682e+01
4.385000000000000142e+01
-5.896000000000000085e+01
1.176899999999999977e+02
-4.743999999999999773e+01
9.890000000000000568e+00
-1.057000000000000028e+01
2.021000000000000085e+01
1.396000000000000085e+01
-7.387000000000000455e+01
3.703000000000000114e+01
-4.528999999999999915e+01
8.737000000000000455e+01
-4.017999999999999972e+01
-2.500000000000000000e+00
4.397999999999999687e+01
-2.492999999999999972e+01
1.830999999999999872e+01
-7.979000000000000625e+01
3.556000000000000227e+01
-1.338000000000000078e+01
5.360000000000000142e+01
-3.700000000000000178e+00
-7.634000000000000341e+01
8.696999999999999886e+01
-4.627000000000000313e+01
1.296000000000000085e+01
-2.764000000000000057e+01
-1.141999999999999993e+01
5.140999999999999659e+01
-8.729000000000000625e+01
3.322999999999999687e+01
-7.459000000000000341e+01
7.803000000000000114e+01
2.432000000000000028e+01
-2.421999999999999886e+01
1.771999999999999886e+01
-8.851000000000000512e+01
7.204000000000000625e+01
2.398999999999999844e+01
1.951999999999999957e+01
-2.085999999999999943e+01
-6.299000000000000199e+01
3.868999999999999773e+01
-4.221000000000000085e+01
6.190999999999999659e+01
-4.502000000000000313e+01
3.668999999999999773e+01
1.022000000000000064e+01
-1.053499999999999943e+02
4.871000000000000085e+01
-3.850000000000000000e+01
4.989000000000000057e+01
4.361999999999999744e+01
-2.366000000000000014e+01
3.037999999999999901e+01
-7.425000000000000000e+01
4.253000000000000114e+01
-1.620000000000000107e+00
2.119999999999999929e+01
-2.171000000000000085e+01
-4.234000000000000341e+01
3.847999999999999687e+01
6.500000000000000000e+00
5.810999999999999943e+01
-4.265999999999999659e+01
-4.588000000000000256e+01
-9.000000000000000222e-01
-3.457999999999999829e+01
8.531000000000000227e+01
3.356000000000000227e+01
5.753000000000000114e+01
2.031200000000000045e+02
8.409999999999999432e+01
-2.532400000000000091e+02
-1.780999999999999943e+02
-1.175000000000000000e+02
4.828999999999999915e+01
-2.171999999999999886e+01
1.020900000000000034e+02
-1.450999999999999979e+01
-5.519999999999999574e+00
5.117000000000000171e+01
-1.484999999999999964e+01
9.232999999999999829e+01
-7.690999999999999659e+01
-1.449000000000000021e+01
2.010000000000000142e+01
-3.021999999999999886e+01
7.467000000000000171e+01
-8.268999999999999773e+01
6.360999999999999943e+01
-6.969999999999999751e+00
2.294999999999999929e+01
9.421999999999999886e+01
-1.263799999999999955e+02
4.163000000000000256e+01
-7.203000000000000114e+01
2.219000000000000128e+01
7.525000000000000000e+01
-4.621000000000000085e+01
8.485999999999999943e+01
-8.092000000000000171e+01
3.540000000000000036e+00
2.628000000000000114e+01
-4.475999999999999801e+01
6.181000000000000227e+01
-6.581999999999999318e+01
-2.689999999999999947e+00
3.950999999999999801e+01
-2.187999999999999901e+01
9.990000000000000568e+01
-7.393999999999999773e+01
-4.847999999999999687e+01
2.221999999999999886e+01
-6.931000000000000227e+01
9.604000000000000625e+01
-2.737999999999999901e+01
-8.534000000000000341e+01
1.873000000000000043e+01
7.049999999999999822e+00
7.993000000000000682e+01
4.682999999999999829e+01
-1.167699999999999960e+02
1.457000000000000028e+01
-9.073999999999999488e+01
2.796000000000000085e+01
8.715999999999999659e+01
-5.759999999999999787e+00
2.912000000000000099e+01
-3.128000000000000114e+01
-6.684999999999999432e+01
8.150000000000000355e+00
-7.543999999999999773e+01
1.196200000000000045e+02
6.254999999999999716e+01
-6.286999999999999744e+01
4.522999999999999687e+01
-2.053999999999999915e+01
-1.864000000000000057e+01
-3.575999999999999801e+01
-8.920000000000000284e+01
6.371999999999999886e+01
1.439000000000000057e+01
8.580000000000000071e+00
8.818000000000000682e+01
-2.173999999999999844e+01
8.029999999999999361e+00
1.001999999999999957e+01
-8.459000000000000341e+01
1.633999999999999986e+01
3.722999999999999687e+01
-3.978000000000000114e+01
8.526000000000000512e+01
1.184999999999999964e+01
-5.934000000000000341e+01
1.780000000000000027e+00
-5.446000000000000085e+01
3.132000000000000028e+01
3.714999999999999858e+01
-5.442000000000000171e+01
3.679999999999999716e+01
-4.559000000000000341e+01
-5.370000000000000107e+00
5.528999999999999915e+01
-3.211999999999999744e+01
5.921999999999999886e+01
-1.726999999999999957e+01
7.969999999999999751e+00
2.739000000000000057e+01
-7.126000000000000512e+01
3.821999999999999886e+01
-1.127999999999999936e+01
-3.150000000000000000e+01
4.163000000000000256e+01
-2.017000000000000171e+01
3.162000000000000099e+01
1.250999999999999979e+01
-4.971000000000000085e+01
5.910000000000000142e+01
-4.179999999999999716e+00
-7.214000000000000057e+01
3.484000000000000341e+01
-2.137999999999999901e+01
-7.890999999999999659e+01
8.551000000000000512e+01
2.710000000000000142e+01
-3.572999999999999687e+01
4.909000000000000341e+01
-6.019999999999999574e+00
-9.643000000000000682e+01
3.085000000000000142e+01
3.695000000000000284e+01
-4.421999999999999886e+01
1.944999999999999929e+01
-2.632999999999999829e+01
-1.887000000000000099e+01
3.350000000000000000e+01
-2.539999999999999858e+01
1.390000000000000036e+01
3.360000000000000142e+01
-4.684000000000000341e+01
4.114000000000000057e+01
9.769999999999999574e+00
-6.328000000000000114e+01
4.467999999999999972e+01
-2.339999999999999858e+00
-2.441000000000000014e+01
4.413000000000000256e+01
-1.923999999999999844e+01
1.832000000000000028e+01
2.617999999999999972e+01
-3.663000000000000256e+01
3.071000000000000085e+01
-2.759999999999999787e+00
-6.882999999999999829e+01
3.774000000000000199e+01
-1.780000000000000027e+00
-3.722999999999999687e+01
5.060999999999999943e+01
3.609999999999999876e+00
-6.320000000000000284e+00
9.640000000000000568e+00
-5.334000000000000341e+01
2.555000000000000071e+01
4.330000000000000071e+00
-4.184000000000000341e+01
7.007999999999999829e+01
1.500000000000000000e+00
-3.809000000000000341e+01
2.778999999999999915e+01
-3.450000000000000000e+01
-3.470000000000000195e+00
1.848000000000000043e+01
-3.001000000000000156e+01
4.360000000000000142e+01
1.839999999999999858e+01
-5.340999999999999659e+01
5.029999999999999716e+01
1.742000000000000171e+01
-5.217999999999999972e+01
-1.102999999999999936e+01
2.173000000000000043e+01
9.371999999999999886e+01
-1.316399999999999864e+02
-5.890999999999999659e+01
1.341999999999999993e+01
3.017999999999999972e+01
1.399999999999999911e+00
2.410000000000000142e+00
2.355000000000000071e+01
-4.585000000000000142e+01
5.929999999999999716e+01
7.784000000000000341e+01
3.325000000000000000e+01
-2.389000000000000057e+01
-7.296999999999999886e+01
-5.386999999999999744e+01
4.220000000000000284e+01
-2.598999999999999844e+01
-4.054999999999999716e+01
4.614999999999999858e+01
-1.560000000000000053e+00
-6.615999999999999659e+01
3.319999999999999840e+00
-5.392000000000000171e+01
3.602000000000000313e+01
6.088000000000000256e+01
-3.475000000000000000e+01
-8.348000000000000398e+01
1.696999999999999886e+01
2.187000000000000099e+01
-4.160000000000000142e+01
6.537000000000000455e+01
3.739000000000000057e+01
-1.310999999999999943e+01
3.963000000000000256e+01
-1.233999999999999986e+01
-5.788000000000000256e+01
6.153000000000000114e+01
-6.476999999999999602e+01
-5.060999999999999943e+01
4.164999999999999858e+01
2.351999999999999957e+01
-8.960000000000000853e+00
2.082000000000000028e+01
-1.471000000000000085e+01
1.216999999999999993e+01
5.660000000000000142e+00
-4.975999999999999801e+01
1.621000000000000085e+01
2.351000000000000156e+01
-4.800000000000000000e+01
2.105999999999999872e+01
3.603000000000000114e+01
-2.640000000000000124e+00
4.645000000000000284e+01
-3.012000000000000099e+01
-4.004999999999999716e+01
2.642999999999999972e+01
-2.244000000000000128e+01
-7.543999999999999773e+01
6.357000000000000028e+01
1.853999999999999915e+01
-2.342999999999999972e+01
7.601999999999999602e+01
-2.810000000000000142e+01
-7.262999999999999545e+01
2.785999999999999943e+01
-1.835000000000000142e+01
-2.837999999999999901e+01
4.942000000000000171e+01
5.396000000000000085e+01
-6.565000000000000568e+01
-1.518999999999999950e+01
1.889999999999999902e+00
-5.086999999999999744e+01
5.221000000000000085e+01
6.570000000000000284e+01
-2.442999999999999972e+01
-1.803999999999999915e+01
-1.680999999999999872e+01
-1.339000000000000057e+01
-7.799999999999999822e+00
-6.159000000000000341e+01
4.117999999999999972e+01
2.783999999999999986e+01
-4.131000000000000227e+01
3.442000000000000171e+01
1.399999999999999911e+00
-4.878999999999999915e+01
3.635000000000000142e+01
-2.185000000000000142e+01
-8.599999999999999645e+00
6.575000000000000000e+01
-2.600000000000000089e+00
3.949000000000000199e+01
4.877000000000000313e+01
8.550000000000000711e+00
-7.178000000000000114e+01
-6.299999999999999822e+00
-1.805000000000000071e+01
-3.087000000000000099e+01
5.606000000000000227e+01
9.220000000000000639e+00
-5.767999999999999972e+01
3.187999999999999901e+01
-8.499999999999999778e-01
-4.990999999999999659e+01
4.530000000000000249e+00
-2.720000000000000195e+00
-1.336999999999999922e+01
3.500999999999999801e+01
4.614999999999999858e+01
1.334999999999999964e+01
6.759999999999999787e+00
1.067999999999999972e+01
-3.500000000000000000e+01
-6.929999999999999716e+00
3.098999999999999844e+01
-2.223999999999999844e+01
4.139999999999999680e+00
-5.940000000000000391e+00
-3.492000000000000171e+01
1.540000000000000036e+01
-4.400000000000000355e+00
1.058999999999999986e+01
8.690000000000000568e+01
-2.946999999999999886e+01
-8.373000000000000398e+01
-3.350000000000000089e+00
2.887000000000000099e+01
-1.619999999999999929e+01
6.261999999999999744e+01
1.497000000000000064e+01
-5.996999999999999886e+01
1.816399999999999864e+02
-1.350500000000000114e+02
-9.053000000000000114e+01
4.927000000000000313e+01
2.923000000000000043e+01
-5.330000000000000071e+00
3.690999999999999659e+01
-1.239099999999999966e+02
-4.017000000000000171e+01
-6.232000000000000028e+01
-9.210999999999999943e+01
1.442700000000000102e+02
1.238799999999999955e+02
-1.767999999999999972e+01
-3.109999999999999876e+00
2.760000000000000142e+01
-2.755999999999999872e+01
1.126299999999999955e+02
-4.240999999999999659e+01
-3.094999999999999929e+01
-2.229600000000000080e+02
1.358999999999999986e+01
7.976000000000000512e+01
8.798999999999999488e+01
-4.621999999999999886e+01
1.193700000000000045e+02
1.375000000000000000e+01
1.550200000000000102e+02
-5.316399999999999864e+02
2.265399999999999920e+02
6.110000000000000320e+00
1.666000000000000014e+01
-8.875000000000000000e+01
-3.602000000000000313e+01
-6.948000000000000398e+01
-2.233999999999999986e+01
2.376500000000000057e+02
-7.664000000000000057e+01
-1.307000000000000028e+01
4.302000000000000313e+01
2.944000000000000128e+01
3.904999999999999716e+01
-5.778999999999999915e+01
1.173599999999999994e+02
-9.523000000000000398e+01
-4.446999999999999886e+01
-2.356999999999999886e+02
1.625800000000000125e+02
1.828000000000000114e+02
-6.829999999999999716e+01
-6.806999999999999318e+01
1.223400000000000034e+02
-2.004600000000000080e+02
-2.879300000000000068e+02
1.472800000000000011e+02
-3.121899999999999977e+02
9.115000000000000568e+01
3.326399999999999864e+02
7.798999999999999488e+01
-1.690600000000000023e+02
-8.143999999999999773e+01
-5.314999999999999858e+01
-3.284000000000000341e+01
9.179999999999999716e+00
9.300000000000000711e+00
7.492000000000000171e+01
-4.849999999999999645e+00
-4.789000000000000057e+01
5.885999999999999943e+01
6.990000000000000213e+00
-5.892000000000000171e+01
3.173000000000000043e+01
-3.990000000000000213e+00
-1.737999999999999901e+01
7.135999999999999943e+01
-1.013799999999999955e+02
-1.174800000000000040e+02
9.765000000000000568e+01
-2.151000000000000156e+01
-1.998899999999999864e+02
9.630000000000000782e+00
-1.256000000000000050e+01
-5.693999999999999773e+01
1.475000000000000000e+01
4.889999999999999680e+00
-3.356000000000000227e+01
6.968999999999999773e+01
3.180000000000000160e+00
-3.080000000000000071e+01
2.835999999999999943e+01
9.599999999999999645e-01
-2.700000000000000000e+01
3.150000000000000000e+01
-7.000000000000000000e+00
-1.821999999999999886e+01
2.219000000000000128e+01
-2.192000000000000171e+01
-5.250000000000000000e+00
1.699999999999999956e+00
-5.928999999999999915e+01
1.773300000000000125e+02
9.226999999999999602e+01
-3.060999999999999943e+01
-3.340999999999999659e+01
5.625999999999999801e+01
6.900000000000000355e+00
3.392000000000000171e+01
2.985000000000000142e+01
-1.648999999999999844e+01
5.269999999999999574e+00
2.092000000000000171e+01
-1.252999999999999936e+01
-1.265000000000000036e+01
1.996999999999999886e+01
-8.970000000000000639e+00
-1.461999999999999922e+01
1.297000000000000064e+01
-8.160000000000000142e+00
-3.589999999999999858e+00
9.820000000000000284e+00
-6.730000000000000426e+00
-6.199999999999999956e-01
8.669999999999999929e+00
-3.899999999999999911e+00
2.729999999999999982e+00
4.929999999999999716e+00
-9.019999999999999574e+00
4.490000000000000213e+00
1.489999999999999991e+00
-1.266999999999999993e+01
1.006000000000000050e+01
4.259999999999999787e+00
-1.082000000000000028e+01
1.142999999999999972e+01
4.009999999999999787e+00
-1.499000000000000021e+01
1.272000000000000064e+01
4.089999999999999858e+00
-8.009999999999999787e+00
1.281000000000000050e+01
3.899999999999999911e+00
-1.026999999999999957e+01
8.339999999999999858e+00
1.189999999999999947e+00
-9.710000000000000853e+00
8.720000000000000639e+00
4.000000000000000222e-01
-5.259999999999999787e+00
5.870000000000000107e+00
4.160000000000000142e+00
-8.070000000000000284e+00
7.030000000000000249e+00
5.200000000000000178e-01
-1.181000000000000050e+01
9.519999999999999574e+00
7.399999999999999911e-01
-1.181000000000000050e+01
7.750000000000000000e+00
3.890000000000000124e+00
-1.027999999999999936e+01
7.549999999999999822e+00
-2.729999999999999982e+00
-1.219999999999999929e+01
5.049999999999999822e+00
-3.200000000000000067e-01
-9.839999999999999858e+00
7.900000000000000355e+00
-1.889999999999999902e+00
-1.184999999999999964e+01
6.900000000000000355e+00
-1.229999999999999982e+00
-1.157000000000000028e+01
8.740000000000000213e+00
1.459999999999999964e+01
5.725999999999999801e+01
9.881999999999999318e+01
4.253999999999999915e+01
-6.960999999999999943e+01
-8.581000000000000227e+01
7.339000000000000057e+01
-6.896999999999999886e+01
-8.800000000000000000e+01
-3.872999999999999687e+01
-2.887999999999999901e+01
1.116000000000000014e+01
2.089999999999999858e+00
-1.361999999999999922e+01
1.353999999999999915e+01
1.233000000000000007e+01
-1.232000000000000028e+01
1.277999999999999936e+01
1.710999999999999943e+01
-4.940000000000000391e+00
8.439999999999999503e+00
2.416000000000000014e+01
-2.587999999999999901e+01
2.473000000000000114e+02
9.059000000000000341e+01
-5.953999999999999915e+01
-1.313700000000000045e+02
-5.574000000000000199e+01
-5.927000000000000313e+01
-8.937999999999999545e+01
1.032199999999999989e+02
-3.196000000000000085e+01
1.848000000000000043e+01
-6.107000000000000028e+01
-1.628999999999999915e+01
-2.351000000000000156e+01
5.906000000000000227e+01
-1.755000000000000071e+01
-1.122000000000000064e+01
1.669999999999999929e+01
8.399999999999999689e-01
-1.438000000000000078e+01
7.198000000000000398e+01
5.667000000000000171e+01
2.385000000000000142e+01
-2.058400000000000034e+02
-5.200000000000000178e-01
-5.753999999999999915e+01
5.420000000000000284e+01
5.729999999999999716e+01
-4.269999999999999574e+00
2.280000000000000071e+01
7.549999999999999822e+00
-1.617000000000000171e+01
3.838000000000000256e+01
1.193999999999999950e+01
-2.417000000000000171e+01
3.225000000000000000e+01
1.583000000000000007e+01
-1.396000000000000085e+01
1.735999999999999943e+01
1.368999999999999950e+01
-5.650000000000000355e+00
5.763000000000000256e+01
1.555800000000000125e+02
2.817000000000000171e+01
-9.284999999999999432e+01
-8.781000000000000227e+01
-1.432199999999999989e+02
3.942000000000000171e+01
5.360000000000000320e+00
-1.129800000000000040e+02
-2.046200000000000045e+02
-5.728000000000000114e+01
2.136299999999999955e+02
-1.846999999999999886e+01
-4.685999999999999943e+01
1.298000000000000043e+01
1.010999999999999943e+01
-3.066000000000000014e+01
1.816000000000000014e+01
1.751999999999999957e+01
-1.447000000000000064e+01
1.471000000000000085e+01
2.062000000000000099e+01
-1.121000000000000085e+01
-1.044999999999999929e+01
2.519999999999999929e+01
-7.969999999999999751e+00
-2.151999999999999957e+01
3.321000000000000085e+01
1.267999999999999972e+01
-1.088000000000000078e+01
2.292999999999999972e+01
-1.311999999999999922e+01
-3.942000000000000171e+01
1.233999999999999986e+01
-1.469999999999999973e+00
-2.517000000000000171e+01
1.798000000000000043e+01
-1.600000000000000033e-01
-3.019999999999999929e+01
2.164999999999999858e+01
5.339999999999999858e+00
-2.583999999999999986e+01
1.349000000000000021e+01
2.390000000000000124e+00
-2.332999999999999829e+01
8.919999999999999929e+00
-1.400000000000000000e+01
-1.994999999999999929e+01
3.377000000000000313e+01
1.203999999999999915e+01
-1.283000000000000007e+01
1.582000000000000028e+01
2.817000000000000171e+01
-2.060000000000000142e+01
-2.069999999999999840e+00
1.310999999999999943e+01
1.900000000000000022e-01
-1.317999999999999972e+01
1.408000000000000007e+01
2.099999999999999922e-01
-1.421000000000000085e+01
1.425000000000000000e+01
4.330000000000000071e+00
-1.138000000000000078e+01
2.000000000000000042e-02
-3.549999999999999822e+00
-1.574000000000000021e+01
1.335999999999999943e+01
4.629999999999999893e+00
-1.107000000000000028e+01
1.253999999999999915e+01
7.349999999999999645e+00
-5.339999999999999858e+00
8.580000000000000071e+00
2.100000000000000089e+00
-6.099999999999999645e+00
-2.109999999999999876e+00
5.929999999999999716e+00
-3.549999999999999822e+00
-8.140000000000000568e+00
4.969999999999999751e+00
-2.750000000000000000e+00
-1.258999999999999986e+01
7.070000000000000284e+00
-2.700000000000000178e-01
-9.730000000000000426e+00
8.960000000000000853e+00
1.820000000000000062e+00
-7.290000000000000036e+00
7.660000000000000142e+00
2.930000000000000160e+00
-6.769999999999999574e+00
4.459999999999999964e+00
4.950000000000000178e+00
-5.389999999999999680e+00
-9.410000000000000142e+00
2.280999999999999872e+01
1.791000000000000014e+01
-4.439999999999999858e+01
-3.293999999999999773e+01
-6.860000000000000320e+00
-1.358999999999999986e+01
5.495000000000000284e+01
-1.481100000000000136e+02
-8.039999999999999147e+00
-9.660000000000000142e+00
-1.830999999999999872e+01
-1.719000000000000128e+01
1.955999999999999872e+01
9.050000000000000711e+00
-8.210000000000000853e+00
1.730999999999999872e+01
1.281000000000000050e+01
-9.699999999999999289e+00
1.236999999999999922e+01
1.035999999999999943e+01
-9.259999999999999787e+00
1.348000000000000043e+01
9.039999999999999147e+00
-3.299999999999999822e+00
4.099999999999999756e-01
-2.149999999999999911e+00
-4.379999999999999893e+00
1.109999999999999964e+01
1.010000000000000009e+00
-2.709999999999999964e+00
5.150000000000000355e+00
3.990000000000000213e+00
-2.999999999999999889e-01
2.450000000000000000e+01
-3.475999999999999801e+01
-1.466999999999999993e+01
1.472000000000000064e+01
3.879999999999999893e+00
-1.783999999999999986e+01
1.878000000000000114e+01
-2.799999999999999822e+00
-1.093999999999999950e+01
7.480000000000000426e+00
-5.540000000000000036e+00
-9.179999999999999716e+00
1.173000000000000043e+01
1.110000000000000098e+00
-1.211999999999999922e+01
5.459999999999999964e+00
-2.750000000000000000e+00
-9.259999999999999787e+00
6.230000000000000426e+00
2.600000000000000089e-01
-7.309999999999999609e+00
7.360000000000000320e+00
2.450000000000000178e+00
-8.439999999999999503e+00
5.870000000000000107e+00
2.259999999999999787e+00
-3.959999999999999964e+00
5.230000000000000426e+00
2.160000000000000142e+00
-3.580000000000000071e+00
-5.400000000000000355e-01
-2.999999999999999889e-01
-6.500000000000000222e-01
-4.480000000000000426e+00
1.479999999999999982e+00
-3.270000000000000018e+00
-7.370000000000000107e+00
2.899999999999999911e+00
-1.350000000000000089e+00
-5.320000000000000284e+00
1.141000000000000014e+01
1.258000000000000007e+01
-3.600000000000000089e+00
-5.660000000000000142e+00
-7.950000000000000178e+00
-1.352999999999999936e+01
6.719999999999999751e+00
7.299999999999999822e-01
-1.550999999999999979e+01
6.269999999999999574e+00
5.750000000000000000e+00
-1.246000000000000085e+01
2.029999999999999805e+00
2.450000000000000178e+00
-1.673000000000000043e+01
1.447000000000000064e+01
1.150000000000000000e+01
-2.000000000000000111e-01
8.189999999999999503e+00
1.799999999999999933e-01
3.699999999999999956e-01
2.810000000000000053e+00
-5.389999999999999680e+00
-7.250000000000000000e+00
-3.319999999999999840e+00
9.210000000000000853e+00
-1.621999999999999886e+01
-7.740000000000000213e+00
1.211999999999999922e+01
3.310000000000000053e+00
-7.530000000000000249e+00
9.320000000000000284e+00
-1.799999999999999933e-01
-7.360000000000000320e+00
1.574000000000000021e+01
6.081000000000000227e+01
1.511999999999999886e+02
-9.096999999999999886e+01
-1.070600000000000023e+02
-1.729799999999999898e+02
7.443000000000000682e+01
2.630799999999999841e+02
-1.400999999999999943e+02
1.076599999999999966e+02
2.630999999999999872e+01
-4.740999999999999659e+01
-3.642799999999999727e+02
2.431699999999999875e+02
-1.347899999999999920e+02
1.447100000000000080e+02
-3.703399999999999750e+02
-2.329799999999999898e+02
3.366000000000000227e+02
4.514000000000000057e+01
3.589999999999999858e+01
3.153999999999999915e+01
1.267999999999999972e+01
-4.600999999999999801e+01
2.178999999999999915e+01
1.296000000000000085e+01
-1.588000000000000078e+01
1.660000000000000142e+01
3.560000000000000053e+00
-2.982000000000000028e+01
4.488000000000000256e+01
7.714000000000000057e+01
-3.222099999999999795e+02
-8.395000000000000284e+01
3.367699999999999818e+02
-3.764999999999999858e+01
-3.051999999999999957e+01
-1.152099999999999937e+02
-1.251999999999999957e+01
4.703999999999999915e+01
-1.465000000000000036e+01
-1.792000000000000171e+01
1.149599999999999937e+02
2.080099999999999909e+02
-4.328299999999999841e+02
-4.999000000000000199e+01
1.969000000000000057e+02
-8.262999999999999545e+01
1.355999999999999943e+02
2.232199999999999989e+02
3.951399999999999864e+02
-5.665099999999999909e+02
-3.751200000000000045e+02
-1.332000000000000028e+01
6.214000000000000057e+01
-7.762999999999999545e+01
-4.532999999999999829e+01
1.267900000000000063e+02
7.779999999999999716e+01
-1.402199999999999989e+02
5.674000000000000199e+01
-2.410000000000000142e+00
8.375000000000000000e+01
-2.180999999999999872e+01
-1.158000000000000007e+01
-4.379999999999999893e+00
4.581000000000000227e+01
-2.996999999999999886e+01
-7.526000000000000512e+01
2.189000000000000057e+01
1.871000000000000085e+01
-1.099000000000000021e+01
2.471000000000000085e+01
-6.410000000000000142e+00
-4.125000000000000000e+01
1.296000000000000085e+01
8.349999999999999645e+00
-1.199000000000000021e+01
3.396000000000000085e+01
-1.892999999999999972e+01
-4.790000000000000036e+00
5.725000000000000000e+01
2.176999999999999957e+01
-3.428999999999999915e+01
-1.655800000000000125e+02
-2.211299999999999955e+02
1.964199999999999875e+02
7.675000000000000000e+01
1.456899999999999977e+02
1.575099999999999909e+02
5.578999999999999915e+01
-3.382400000000000091e+02
-1.744699999999999989e+02
6.856000000000000227e+01
4.000400000000000205e+02
2.946999999999999886e+01
-1.280999999999999943e+02
3.947999999999999687e+01
-2.737000000000000099e+01
4.389999999999999858e+01
6.996999999999999886e+01
1.380399999999999920e+02
-5.434400000000000546e+02
-4.032999999999999829e+01
1.734099999999999966e+02
9.580000000000000071e+00
1.292999999999999972e+01
2.296000000000000085e+01
6.542000000000000171e+01
-5.921000000000000085e+01
-8.701000000000000512e+01
-4.632000000000000028e+01
1.708999999999999986e+01
1.138000000000000078e+01
-2.099999999999999922e-01
3.048999999999999844e+01
-1.008000000000000007e+01
-1.213000000000000078e+01
2.625000000000000000e+01
6.179999999999999716e+00
-7.599999999999999645e+00
1.521000000000000085e+01
3.434900000000000091e+02
9.220000000000000639e+00
5.575000000000000000e+01
-1.343499999999999943e+02
-2.686100000000000136e+02
4.860000000000000320e+00
5.082000000000000028e+01
-1.717000000000000171e+01
2.082000000000000028e+01
-1.301999999999999957e+01
-1.322000000000000064e+01
-6.089999999999999858e+00
7.299999999999999822e-01
-2.753000000000000114e+01
-5.850999999999999801e+01
-9.248000000000000398e+01
8.000000000000000000e+00
-5.175999999999999801e+01
4.524399999999999977e+02
-3.449000000000000199e+01
-1.589499999999999886e+02
7.112000000000000455e+01
-1.608199999999999932e+02
-1.234300000000000068e+02
1.363100000000000023e+02
4.746999999999999886e+01
-7.409999999999999432e+01
1.496000000000000085e+01
2.016000000000000014e+01
-3.021999999999999886e+01
7.246999999999999886e+01
7.306999999999999318e+01
-5.182999999999999829e+01
8.473999999999999488e+01
1.241599999999999966e+02
-3.440999999999999659e+01
-2.489000000000000057e+01
-1.064399999999999977e+02
-4.784000000000000341e+01
2.085999999999999943e+01
1.050000000000000000e+01
-5.142000000000000171e+01
1.019999999999999929e+01
1.939000000000000057e+01
6.750000000000000000e+01
-4.559999999999999609e+00
-1.001599999999999966e+02
-1.317999999999999972e+01
4.129999999999999716e+01
-1.424699999999999989e+02
-1.070499999999999972e+02
2.155999999999999872e+01
6.206000000000000227e+01
-4.452000000000000313e+01
2.078999999999999915e+01
-1.735000000000000142e+01
-4.067000000000000171e+01
5.640999999999999659e+01
1.085999999999999943e+01
1.439999999999999947e+00
3.753000000000000114e+01
2.660000000000000142e+01
-2.973000000000000043e+01
1.424000000000000021e+01
6.639000000000000057e+01
4.285999999999999943e+01
1.730000000000000071e+01
9.295999999999999375e+01
-1.483000000000000007e+01
-1.849399999999999977e+02
9.534999999999999432e+01
7.843999999999999773e+01
4.539999999999999858e+01
5.190999999999999659e+01
-1.278599999999999994e+02
-2.038000000000000114e+02
1.244699999999999989e+02
-3.885000000000000142e+01
-1.284300000000000068e+02
1.485500000000000114e+02
2.719999999999999929e+01
-1.491999999999999886e+02
9.128000000000000114e+01
-3.010999999999999943e+01
-6.604000000000000625e+01
6.715999999999999659e+01
9.412000000000000455e+01
7.110999999999999943e+01
1.199000000000000021e+01
5.413000000000000256e+01
-5.154999999999999716e+01
-1.278400000000000034e+02
-1.726000000000000156e+01
-4.129999999999999893e+00
-5.945000000000000284e+01
1.155999999999999943e+02
5.578999999999999915e+01
-4.642000000000000171e+01
-2.769999999999999929e+01
2.780999999999999872e+01
-1.506000000000000050e+01
-4.547999999999999687e+01
2.450000000000000000e+01
4.370000000000000107e+00
-4.088000000000000256e+01
3.432000000000000028e+01
-9.599999999999999645e-01
-3.472999999999999687e+01
1.174000000000000021e+01
1.513000000000000078e+01
-3.148000000000000043e+01
2.923999999999999844e+01
8.890000000000000568e+00
-4.349000000000000199e+01
2.683999999999999986e+01
3.486999999999999744e+01
2.446000000000000085e+01
1.969999999999999973e+00
-5.764000000000000057e+01
8.330000000000000071e+00
9.276000000000000512e+01
-1.042999999999999972e+01
-1.134999999999999964e+01
7.965000000000000568e+01
7.881999999999999318e+01
-7.454999999999999716e+01
-2.442800000000000011e+02
2.336500000000000057e+02
7.759999999999999787e+00
1.629600000000000080e+02
2.083999999999999986e+01
7.217000000000000171e+01
-9.965999999999999659e+01
-1.433600000000000136e+02
-1.050000000000000000e+02
1.614999999999999858e+01
1.141999999999999993e+01
-2.698999999999999844e+01
5.207000000000000028e+01
8.240000000000000213e+00
7.514000000000000057e+01
4.379200000000000159e+02
-3.188399999999999750e+02
-8.351000000000000512e+01
2.441000000000000014e+01
-3.860999999999999943e+01
-3.520000000000000284e+01
-1.379999999999999893e+00
-3.033999999999999986e+01
-1.000999999999999979e+01
2.892000000000000171e+01
-1.333000000000000007e+01
-1.060999999999999943e+01
7.110000000000000320e+00
-1.767000000000000171e+01
-2.732000000000000028e+01
2.467000000000000171e+01
-1.231000000000000050e+01
-3.339999999999999858e+01
4.406000000000000227e+01
8.519999999999999574e+00
-2.025000000000000000e+01
-9.750000000000000000e+00
1.094999999999999929e+01
-1.522000000000000064e+01
2.455999999999999872e+01
1.000000000000000000e+00
-2.564999999999999858e+01
2.894999999999999929e+01
-3.250000000000000000e+00
-6.934999999999999432e+01
4.785000000000000142e+01
6.353000000000000114e+01
2.462000000000000099e+01
7.980000000000000426e+00
-1.275000000000000000e+01
-3.453999999999999915e+01
-1.433899999999999864e+02
-5.230000000000000426e+00
1.796699999999999875e+02
-3.399000000000000199e+01
2.178000000000000114e+01
-2.400000000000000000e+01
5.085000000000000142e+01
-4.355000000000000000e+02
1.926100000000000136e+02
2.839100000000000250e+02
4.838000000000000114e+02
-5.806100000000000136e+02
-1.449900000000000091e+02
8.487999999999999545e+01
2.425300000000000011e+02
-1.825399999999999920e+02
-1.513000000000000078e+01
6.501999999999999602e+01
-4.339000000000000057e+01
1.055000000000000071e+01
-1.555999999999999943e+02
2.343700000000000045e+02
-2.024000000000000057e+02
-4.553000000000000114e+01
7.139999999999999680e+00
5.392000000000000171e+01
8.356000000000000227e+01
4.853999999999999915e+01
6.049000000000000199e+01
-3.299000000000000199e+01
-1.307400000000000091e+02
-7.410999999999999943e+01
-1.240699999999999932e+02
2.657999999999999829e+01
-5.975999999999999801e+01
4.882999999999999829e+01
4.242999999999999972e+01
2.720000000000000195e+00
-1.042500000000000000e+02
-1.323799999999999955e+02
1.375300000000000011e+02
5.828000000000000114e+01
1.080000000000000000e+02
-7.737999999999999545e+01
1.854799999999999898e+02
-2.430000000000000071e+01
1.133700000000000045e+02
-1.216599999999999966e+02
3.021000000000000085e+01
4.289399999999999977e+02
-8.971999999999999886e+01
-1.612800000000000011e+02
-5.375000000000000000e+01
-3.142000000000000171e+01
1.418499999999999943e+02
-2.326800000000000068e+02
1.898700000000000045e+02
-1.790000000000000036e+00
-1.626999999999999957e+01
-3.964999999999999858e+01
8.893000000000000682e+01
-2.694999999999999929e+01
-7.200000000000000000e+01
4.799000000000000199e+01
1.041000000000000014e+01
-4.810999999999999943e+01
4.225999999999999801e+01
7.860000000000000320e+00
-4.472999999999999687e+01
2.882999999999999829e+01
2.823999999999999844e+01
-1.105000000000000071e+01
1.630000000000000071e+01
2.312000000000000099e+01
-1.550999999999999979e+01
-1.100000000000000006e-01
2.128000000000000114e+01
-8.929999999999999716e+00
-1.905999999999999872e+01
5.432000000000000028e+01
1.728799999999999955e+02
1.400900000000000034e+02
-1.407800000000000011e+02
-3.085000000000000142e+01
-4.621999999999999886e+01
1.936599999999999966e+02
-3.755000000000000000e+02
-9.060000000000000497e+00
8.587999999999999545e+01
8.220000000000000284e+01
9.026000000000000512e+01
-1.797299999999999898e+02
7.182999999999999829e+01
-1.230000000000000071e+01
2.472599999999999909e+02
9.343999999999999773e+01
-3.776499999999999773e+02
-1.410600000000000023e+02
4.103999999999999915e+01
3.330000000000000071e+00
-1.461800000000000068e+02
6.559999999999999609e+00
2.714499999999999886e+02
1.635300000000000011e+02
-1.638499999999999943e+02
1.610999999999999943e+01
-1.945999999999999943e+02
1.105799999999999983e+02
-1.247300000000000040e+02
-6.523000000000000398e+01
5.071999999999999886e+01
3.171999999999999886e+01
5.290000000000000036e+00
6.332999999999999829e+01
-1.091999999999999993e+01
-4.774000000000000199e+01
1.846999999999999886e+01
-3.453000000000000114e+01
-1.917999999999999972e+01
8.365999999999999659e+01
-3.490999999999999659e+01
-1.083999999999999986e+01
3.490000000000000213e+00
-9.099999999999999645e+00
4.203000000000000114e+01
-4.879999999999999893e+00
-1.569999999999999929e+01
1.790000000000000036e+00
2.726999999999999957e+01
1.106800000000000068e+02
-1.120999999999999943e+02
-2.326999999999999957e+01
-5.582000000000000028e+01
5.077000000000000313e+01
-7.645000000000000284e+01
3.725999999999999801e+01
5.000000000000000278e-02
-9.529999999999999361e+00
1.321000000000000085e+01
-2.842999999999999972e+01
2.942000000000000171e+01
-3.150000000000000000e+01
9.500000000000000000e+00
2.259999999999999787e+00
1.436999999999999922e+01
5.459999999999999964e+00
-2.851000000000000156e+01
3.279999999999999716e+01
4.572999999999999687e+01
1.050000000000000000e+01
-2.641000000000000014e+01
-1.894000000000000128e+01
-1.006000000000000050e+01
-3.968999999999999773e+01
-2.110999999999999943e+01
-6.152000000000000313e+01
1.046299999999999955e+02
1.176500000000000057e+02
3.797999999999999687e+01
-1.047099999999999937e+02
-6.236999999999999744e+01
9.887000000000000455e+01
-8.242000000000000171e+01
-6.879999999999999716e+01
-4.740999999999999659e+01
-0.000000000000000000e+00
-1.423000000000000043e+01
6.910999999999999943e+01
-1.611599999999999966e+02
4.859000000000000341e+01
7.523999999999999488e+01
1.225999999999999979e+01
-4.629999999999999716e+01
-6.035999999999999943e+01
-1.239000000000000057e+01
2.635999999999999943e+01
-1.178999999999999915e+01
3.030000000000000071e+01
1.900000000000000022e-01
1.114699999999999989e+02
2.230399999999999920e+02
-2.113899999999999864e+02
-1.001400000000000006e+02
2.289600000000000080e+02
1.964999999999999858e+01
-4.175999999999999801e+01
-1.148199999999999932e+02
-2.399999999999999911e-01
6.693999999999999773e+01
9.100000000000000311e-01
4.429999999999999716e+01
2.999999999999999889e-01
-5.582999999999999829e+01
-3.357000000000000028e+01
-5.114000000000000057e+01
-6.420000000000000284e+01
-1.425999999999999979e+01
1.698100000000000023e+02
9.200000000000000000e+01
5.161999999999999744e+01
-3.452400000000000091e+02
8.503000000000000114e+01
6.770999999999999375e+01
-1.472000000000000064e+01
-1.220400000000000063e+02
-3.275000000000000000e+01
2.867999999999999972e+01
5.135999999999999943e+01
5.590999999999999659e+01
-6.060999999999999943e+01
1.189399999999999977e+02
-2.096000000000000085e+01
8.137999999999999545e+01
2.087100000000000080e+02
5.675999999999999801e+01
-6.612000000000000455e+02
-8.685499999999999545e+02
5.693099999999999454e+02
2.067500000000000000e+02
-2.687999999999999901e+01
-2.767000000000000171e+01
1.240000000000000036e+01
2.537000000000000099e+01
-6.318999999999999773e+01
9.514000000000000057e+01
-4.709000000000000341e+01
-9.857999999999999829e+01
8.919999999999999929e+00
3.272999999999999687e+01
8.104000000000000625e+01
2.349499999999999886e+02
3.315899999999999750e+02
1.973799999999999955e+02
-4.016399999999999864e+02
6.998999999999999488e+01
-3.129499999999999886e+02
1.234500000000000028e+02
1.867999999999999972e+01
-6.659999999999999432e+01
-2.040000000000000000e+02
4.928999999999999915e+01
1.663100000000000023e+02
-1.701200000000000045e+02
1.784000000000000057e+02
-1.810000000000000000e+02
-3.940999999999999659e+01
-9.301999999999999602e+01
1.151700000000000017e+02
1.989399999999999977e+02
-7.828000000000000114e+01
-1.439600000000000080e+02
1.697199999999999989e+02
-8.806999999999999318e+01
1.300600000000000023e+02
2.204099999999999966e+02
-7.270999999999999375e+01
-4.521000000000000085e+01
6.013000000000000256e+01
-1.796999999999999886e+02
3.396700000000000159e+02
-2.036399999999999864e+02
-4.030299999999999727e+02
4.082900000000000205e+02
3.306399999999999864e+02
5.821999999999999886e+01
-2.784300000000000068e+02
-2.388499999999999943e+02
9.830000000000000071e+00
2.521999999999999886e+02
-1.218999999999999950e+01
-4.682000000000000028e+01
5.752000000000000313e+01
5.586999999999999744e+01
5.072999999999999687e+01
9.918999999999999773e+01
-1.556000000000000050e+01
-1.049800000000000040e+02
-1.572400000000000091e+02
-8.912000000000000455e+01
4.425999999999999801e+01
1.370300000000000011e+02
6.954000000000000625e+01
-6.678000000000000114e+01
-1.222000000000000064e+01
-7.481000000000000227e+01
-4.739999999999999858e+01
5.524000000000000199e+01
1.073799999999999955e+02
8.156000000000000227e+01
-1.348899999999999864e+02
3.409000000000000341e+01
9.614000000000000057e+01
-1.503400000000000034e+02
-5.224000000000000199e+01
-7.995999999999999375e+01
6.676999999999999602e+01
1.770800000000000125e+02
2.166299999999999955e+02
-2.969000000000000128e+01
-2.361399999999999864e+02
-1.319099999999999966e+02
3.803999999999999915e+01
-4.878999999999999915e+01
-3.585000000000000142e+01
-1.211099999999999994e+02
-3.649000000000000199e+01
7.384000000000000341e+01
-3.477000000000000313e+01
-5.759000000000000341e+01
9.728000000000000114e+01
5.428999999999999915e+01
-6.956999999999999318e+01
4.539999999999999858e+01
3.162999999999999901e+01
2.017999999999999972e+01
-2.632000000000000028e+01
1.817999999999999972e+01
7.839999999999999858e+00
1.091000000000000014e+01
1.637000000000000099e+01
3.782999999999999829e+01
2.821000000000000085e+01
-9.470000000000000639e+00
1.068999999999999950e+01
-1.239000000000000057e+01
-2.103999999999999915e+01
1.341000000000000014e+01
8.109999999999999432e+00
-8.390000000000000568e+00
-1.560999999999999943e+01
-9.769999999999999574e+00
-1.907999999999999829e+01
2.428899999999999864e+02
4.274399999999999977e+02
-3.412200000000000273e+02
-1.548700000000000045e+02
-4.782000000000000028e+01
1.575000000000000000e+01
5.702000000000000313e+01
2.200000000000000000e+01
-2.328000000000000114e+01
6.979000000000000625e+01
-1.059899999999999949e+02
4.271000000000000085e+01
9.584999999999999432e+01
-1.257900000000000063e+02
-2.614999999999999858e+01
1.355000000000000071e+01
-3.721000000000000085e+01
1.355000000000000071e+01
-4.168999999999999773e+01
8.089999999999999858e+00
-6.520000000000000284e+01
4.181000000000000227e+01
2.321200000000000045e+02
-1.709499999999999886e+02
