1593527735.00
64.000000
-0.00
-0.00
-0.00
-0.00
-0.00
-0.00
-0.00
-0.00
-0.00
-0.00
0.00
0.01
0.01
-0.00
-0.03
-0.05
-0.05
0.00
0.13
0.36
0.66
1.01
1.37
1.72
2.06
2.40
2.79
3.24
3.80
4.42
5.06
5.66
6.20
6.68
7.15
7.68
8.31
9.14
10.09
11.04
11.88
12.56
13.14
13.76
14.65
15.96
17.91
20.32
22.90
25.38
27.58
29.57
31.68
34.32
37.81
42.54
48.15
54.10
59.83
64.97
69.58
74.14
79.34
85.71
93.76
103.00
112.62
121.73
129.77
136.75
143.30
150.75
157.77
166.64
177.95
191.79
206.97
220.57
228.25
225.36
208.53
176.87
132.76
80.05
23.07
-34.94
-92.44
-149.16
-205.23
-260.37
-313.74
-363.87
-409.83
-450.91
-486.50
-515.74
-537.23
-549.22
-549.96
-538.37
-514.21
-478.67
-433.88
-382.45
-327.02
-269.84
-212.63
-156.66
-102.95
-52.37
-5.90
35.58
71.43
101.35
125.50
144.38
158.69
169.15
176.37
180.75
182.57
182.07
179.51
175.23
169.65
163.18
156.15
148.81
141.30
133.69
126.02
118.33
110.69
103.16
95.80
88.68
81.83
75.25
68.95
62.95
57.25
51.86
46.78
42.03
37.59
33.45
29.61
26.07
22.81
19.83
17.12
14.67
12.48
10.53
8.83
7.35
6.09
5.01
4.09
3.29
2.58
1.95
1.41
0.97
0.64
0.42
0.27
0.15
-0.01
-0.22
-0.50
-0.79
-1.05
-1.18
-1.17
-1.03
-0.83
-0.69
-0.70
-0.88
-1.19
-1.50
-1.68
-1.65
-1.44
-1.23
-1.21
-1.54
-2.24
-3.15
-3.96
-4.36
-4.24
-3.71
-3.16
-3.07
-3.82
-5.42
-7.52
-9.44
-10.54
-10.45
-9.36
-7.99
-7.28
-7.99
-10.28
-13.62
-16.90
-19.00
-19.22
-17.63
-15.09
-12.87
-12.15
-13.73
-17.79
-23.63
-29.63
-33.34
-32.11
-24.19
-9.81
8.30
25.75
38.17
43.41
42.72
40.39
41.69
50.64
68.19
91.86
116.71
136.74
146.60
142.77
124.63
94.81
58.82
23.55
-4.83
-22.67
-29.70
-28.17
-21.52
-13.17
-5.89
-1.72
-2.00
-7.17
-16.37
-27.40
-37.37
-43.75
-45.43
-42.94
-38.04
-32.57
-27.70
-23.74
-20.56
-17.91
-15.63
-13.55
-11.46
-9.16
-6.52
-3.69
-1.01
1.22
2.90
4.34
6.13
8.82
12.60
17.42
23.02
28.96
35.18
40.85
45.01
47.73
49.09
49.06
47.92
46.21
44.50
43.26
42.51
42.05
41.54
40.68
39.05
36.97
35.41
35.49
38.07
43.18
50.07
57.45
64.02
68.33
70.19
70.39
70.03
69.92
69.76
67.96
61.53
51.55
36.86
16.25
-10.78
-43.10
-76.90
-105.70
-122.01
-119.99
-97.86
-60.21
-15.49
27.26
61.81
86.34
102.64
113.68
121.63
127.29
129.62
127.79
122.00
113.12
101.86
88.22
71.35
50.72
27.12
1.37
-25.37
-51.60
-75.82
-96.82
-114.01
-128.51
-141.98
-154.71
-168.14
-183.67
-200.95
-218.43
-234.05
-246.20
-255.79
-263.49
-266.13
-262.85
-254.65
-242.24
-226.98
-211.27
-197.95
-191.97
-195.16
-201.09
-206.09
-208.44
-204.85
-192.20
-169.24
-137.10
-102.76
-72.76
-45.85
-26.00
-18.15
-21.82
-32.83
-46.58
-35.28
12.25
54.80
76.42
79.49
61.38
23.93
-26.63
-82.05
-133.44
-176.36
-207.12
-194.33
-132.62
-45.31
37.02
96.53
131.65
149.43
154.71
150.66
143.42
131.51
112.96
91.27
72.38
60.35
55.60
53.87
50.74
46.22
37.43
23.02
5.99
-9.45
-20.79
-28.06
-33.97
-40.86
-48.63
-58.87
-71.12
-82.49
-90.36
-93.93
-94.03
-92.81
-90.93
-87.46
-81.53
-73.14
-60.46
-43.09
-22.52
-0.80
19.79
40.06
61.32
84.18
112.71
149.52
193.08
238.71
281.49
316.71
345.34
369.40
390.43
413.93
442.74
474.18
501.96
520.12
523.63
515.68
501.23
450.50
353.42
223.61
88.92
-27.76
-104.72
-153.60
-181.36
-190.17
-179.61
-148.69
-96.86
-27.89
51.52
134.36
198.44
227.93
213.65
157.63
76.16
-10.80
-87.43
-145.13
-182.20
-203.98
-213.93
-215.87
-212.99
-205.02
-191.86
-175.46
-159.21
-145.85
-137.12
-129.22
-117.79
-100.58
-77.54
-52.16
-30.46
-18.39
-18.60
-31.94
-53.97
-78.51
-99.89
-114.08
-119.51
-116.77
-107.62
-94.02
-78.25
-61.71
-46.20
-33.91
-26.70
-25.18
-28.25
-33.33
-37.32
-37.94
-34.07
-26.21
-16.07
-5.84
2.57
7.89
9.11
5.89
-1.01
-9.30
-15.48
-15.72
-7.26
10.26
34.38
60.47
83.51
99.70
107.60
108.07
103.51
96.57
89.19
82.37
76.47
71.81
68.95
68.64
71.47
77.52
86.14
95.92
105.29
113.14
119.35
124.75
130.36
136.38
141.59
143.09
137.04
120.07
90.75
50.39
2.52
-48.32
-98.09
-144.04
-185.39
-223.02
-258.44
-292.63
-325.16
-354.21
-376.84
-389.64
-388.62
-371.10
-337.26
-290.94
-239.08
-190.21
-152.31
-130.13
-123.33
-125.03
-125.05
-114.30
-88.29
-48.24
-0.16
47.54
87.39
115.42
133.86
148.00
162.60
179.45
197.78
215.48
230.51
242.07
240.59
220.95
186.79
147.92
111.80
80.30
52.39
27.20
5.29
-12.33
-23.23
-26.27
-22.85
-16.35
-10.26
-6.62
-5.93
-6.61
-7.51
-6.29
-1.30
7.24
17.59
27.97
37.54
46.49
55.38
63.45
69.36
70.85
65.57
52.25
31.89
7.23
-21.14
-50.91
-80.62
-108.99
-134.40
-154.50
-166.41
-167.51
-156.67
-135.00
-105.41
-72.63
-41.59
-16.52
-0.22
6.56
5.25
-0.99
-8.44
-13.99
-16.80
-18.10
-20.23
-25.21
-33.91
-45.90
-60.03
-74.93
-89.00
-100.60
-107.81
-108.63
-101.62
-86.75
-65.73
-41.55
-17.39
4.57
23.56
40.14
55.35
70.01
84.20
97.48
109.25
119.23
127.49
134.24
139.57
143.38
145.45
145.74
144.46
142.02
138.82
134.90
129.84
122.95
113.56
101.39
86.69
70.16
52.51
34.33
15.88
-2.72
-21.23
-39.03
-55.03
-67.83
-76.19
-79.52
-78.18
-73.50
-67.40
-61.75
-57.76
-55.67
-54.82
-54.12
-52.59
-49.82
-46.05
-41.89
-37.92
-34.39
-31.06
-27.44
-23.07
-17.77
-11.70
-5.39
0.66
6.13
11.07
15.81
20.67
25.67
30.42
34.24
36.42
36.61
35.01
32.31
29.40
27.03
25.56
24.94
24.79
24.72
24.46
24.04
23.65
23.55
23.78
24.12
24.16
23.53
22.07
19.96
17.61
15.46
13.79
12.59
11.66
10.70
9.50
7.94
6.05
3.91
1.66
-0.57
-2.68
-4.64
-6.52
-8.41
-10.42
-12.54
-14.58
-16.25
-17.19
-17.09
-15.78
-13.25
-9.67
-5.35
-0.71
3.84
7.98
11.53
14.44
16.74
18.42
19.48
19.92
19.80
19.31
18.69
18.13
17.67
17.19
16.51
15.46
14.04
12.43
10.88
9.60
8.66
8.02
7.52
7.02
6.44
5.81
5.22
4.72
4.28
3.77
3.01
1.90
0.46
-1.12
-2.65
-3.99
-5.21
-6.55
-8.29
-10.56
-13.25
-16.01
-18.33
-19.79
-20.17
-19.49
-17.90
-15.63
-12.86
-9.73
-6.38
-2.96
0.35
3.40
6.11
8.48
10.49
12.15
13.41
14.21
14.53
14.37
13.81
12.94
11.90
10.84
9.97
9.45
9.41
9.80
10.43
11.00
11.21
10.93
10.22
9.26
8.23
7.19
6.09
4.82
3.30
1.60
-0.10
-1.64
-2.90
-3.92
-4.81
-5.66
-6.52
-7.36
-8.11
-8.74
-9.31
-9.92
-10.73
-11.78
-12.95
-13.98
-14.52
-14.19
-12.75
-10.17
-6.62
-2.40
2.14
6.66
10.79
14.16
16.47
17.54
17.42
16.42
14.95
13.44
12.13
11.07
10.10
9.06
7.81
6.31
4.64
2.91
1.25
-0.18
-1.29
-2.09
-2.64
-3.06
-3.46
-3.84
-4.18
-4.41
-4.55
-4.70
-5.04
-5.65
-6.56
-7.64
-8.68
-9.49
-9.95
-10.07
-9.95
-9.75
-9.67
-9.84
-10.31
-11.04
-11.93
-12.83
-13.59
-14.03
-14.00
-13.39
-12.15
-10.37
-8.22
-5.90
-3.53
-1.16
1.23
3.59
5.80
7.66
8.97
9.68
9.86
9.66
9.20
8.55
7.70
6.69
5.60
4.61
3.88
3.47
3.32
3.27
3.13
2.75
2.11
1.28
0.36
-0.52
-1.32
-2.06
-2.86
-3.85
-5.14
-6.69
-8.36
-9.90
-11.09
-11.87
-12.38
-12.97
-14.07
-15.95
-18.50
-21.18
-23.24
-24.09
-23.64
-22.47
-21.61
-22.05
-24.12
-27.15
-29.65
-29.96
-27.05
-21.00
-13.05
-5.14
1.07
4.88
7.24
10.38
16.97
29.12
48.04
73.79
105.12
139.37
172.12
197.76
211.12
209.35
194.03
171.60
151.08
140.14
141.31
150.75
160.21
161.16
148.00
120.18
81.47
37.68
-6.03
-46.40
-82.06
-113.17
-136.45
-148.52
-148.51
-139.12
-124.61
-109.23
-95.87
-86.00
-79.52
-75.15
-71.79
-68.75
-66.40
-65.19
-66.19
-68.90
-72.27
-75.16
-76.59
-76.57
-75.84
-76.55
-80.40
-87.69
-96.67
-104.33
-107.68
-105.09
-97.80
-85.61
-73.14
-65.92
-67.44
-77.32
-91.65
-105.02
-112.23
-109.72
-95.80
-72.92
-44.52
-12.71
22.84
64.07
112.17
166.77
225.30
283.70
333.81
366.86
376.73
361.73
324.54
270.63
208.28
142.54
88.59
58.71
51.91
54.69
50.25
34.15
10.27
-13.86
-32.58
-40.34
-39.40
-36.50
-38.09
-46.79
-61.35
-79.60
-99.04
-116.90
-128.89
-131.69
-122.46
-99.24
-61.81
-12.68
42.07
94.71
137.23
162.35
162.49
132.35
72.54
-8.02
-92.82
-162.52
-200.99
-201.03
-166.78
-112.51
-56.61
-14.29
7.25
9.30
-1.47
-17.00
-31.44
-42.43
-50.62
-57.78
-65.22
-73.34
-82.10
-91.51
-101.44
-111.35
-119.92
-125.49
-126.70
-123.12
-115.33
-104.55
-91.89
-78.02
-63.39
-48.71
-35.37
-25.24
-19.85
-19.56
-23.24
-28.71
-33.61
-36.34
-36.30
-33.58
-28.40
-20.87
-11.12
0.28
11.92
22.08
29.49
34.31
38.23
43.64
52.38
64.59
78.44
91.12
100.50
106.27
110.15
114.69
121.44
129.37
134.68
132.06
117.74
91.59
57.21
20.12
-15.29
-47.15
-75.85
-102.17
-126.01
-145.38
-158.29
-165.54
-171.76
-184.12
-207.90
-243.10
-283.75
-321.50
-347.97
-358.36
-352.90
-335.63
-312.70
-289.14
-267.53
-248.11
-231.02
-214.47
-196.28
-175.37
-152.28
-129.66
-110.06
-94.68
-75.63
-50.65
-20.69
10.21
35.97
57.16
74.62
89.59
102.48
114.05
123.76
134.50
149.71
170.96
196.93
223.55
247.46
267.36
284.23
299.30
318.28
347.16
388.99
442.81
504.41
569.45
634.28
695.23
721.06
688.17
592.58
454.51
306.03
172.87
66.80
-12.76
-72.73
-117.79
-151.04
-170.60
-174.71
-165.68
-150.22
-136.25
-129.88
-133.67
-147.30
-164.42
-176.62
-178.22
-168.66
-151.67
-132.48
-115.60
-103.60
-97.09
-93.44
-89.02
-81.76
-72.04
-61.75
-52.59
-45.20
-39.30
-34.31
-29.15
-22.99
-16.08
-9.61
-4.79
-2.16
-1.34
-1.48
-1.80
-1.74
-1.16
-0.56
-0.74
-2.40
-5.75
-10.44
-15.74
-20.74
-24.61
-26.68
-26.70
-24.87
-21.72
-17.98
-14.30
-11.04
-8.31
-6.04
-4.10
-2.41
-0.98
0.16
0.91
1.11
0.44
-1.41
-4.52
-8.48
-12.41
-15.27
-16.40
-15.79
-14.18
-12.47
-11.27
-10.51
-9.66
-8.13
-5.76
-2.96
-0.44
1.21
1.93
2.21
2.82
4.31
6.79
9.82
12.67
14.60
15.12
14.09
11.70
8.34
4.39
0.15
-4.27
-8.80
-13.25
-17.25
-20.22
-21.66
-21.30
-19.32
-16.28
-12.91
-9.87
-7.55
-6.06
-5.35
-5.35
-6.03
-7.27
-8.77
-9.96
-10.16
-8.83
-5.80
-1.41
3.62
8.55
12.84
16.39
19.33
21.82
23.79
24.93
24.84
23.30
20.50
17.02
13.66
11.15
9.87
9.79
10.59
11.85
13.30
14.78
16.19
17.37
17.93
17.42
15.48
12.10
7.63
2.77
-1.76
-5.45
-8.07
-9.69
-10.51
-10.81
-10.79
-10.59
-10.27
-9.78
-9.00
-7.73
-5.89
-3.56
-1.10
0.96
2.00
1.62
-0.33
-3.60
-7.66
-11.82
-15.35
-17.69
-18.50
-17.75
-15.68
-12.80
-9.69
-6.93
-4.91
-3.72
-3.29
-3.44
-4.16
-5.58
-7.91
-11.29
-15.55
-20.24
-24.72
-28.37
-30.76
-31.72
-31.26
-29.51
-26.63
-22.87
-18.58
-14.21
-10.21
-6.90
-4.39
-2.58
-1.26
-0.15
0.94
2.11
3.35
4.48
5.31
5.64
5.52
5.19
5.06
5.47
6.59
8.29
10.17
11.76
12.63
12.51
11.34
9.24
6.47
3.40
0.43
-2.09
-3.94
-5.03
-5.34
-4.90
-3.84
-2.39
-0.99
-0.12
-0.19
-1.30
-3.22
-5.47
-7.59
-9.32
-10.64
-11.64
-12.31
-12.45
-11.76
-10.04
-7.42
-4.32
-1.33
1.16
3.19
5.23
7.93
11.73
16.62
22.09
27.37
31.64
34.28
34.87
33.26
29.59
24.39
18.62
13.44
9.85
8.23
8.21
8.89
9.28
8.77
7.26
5.05
2.46
-0.31
-3.07
-5.46
-6.84
-6.55
-4.35
-0.79
2.81
4.86
4.22
0.73
-4.72
-10.68
-15.71
-18.99
-20.40
-20.31
-19.16
-17.16
-14.28
-10.37
-5.50
-0.08
5.27
9.90
13.46
15.94
17.59
18.73
19.51
19.95
19.97
19.62
19.03
18.40
17.82
17.13
16.03
14.23
11.67
8.55
5.23
2.02
-0.98
-3.87
-6.74
-9.54
-12.11
-14.27
-16.02
-17.63
-19.53
-22.02
-25.07
-28.26
-30.99
-32.83
-33.65
-33.72
-33.40
-32.95
-32.32
-31.25
-29.46
-26.87
-23.63
-20.06
-16.48
-13.06
-9.83
-6.77
-3.88
-1.25
0.95
2.55
3.43
3.63
3.35
2.89
2.62
2.81
3.52
4.58
5.63
6.32
6.44
5.97
5.10
4.05
3.01
2.03
1.03
-0.11
-1.48
-3.08
-4.88
-6.79
-8.61
-10.02
-10.57
-9.83
-7.56
-3.99
0.12
3.68
5.72
5.75
4.01
1.44
-0.73
-1.31
0.40
4.63
11.11
19.24
28.24
37.33
45.83
53.21
59.23
63.82
67.05
69.14
70.41
71.34
72.48
74.13
76.12
77.77
78.11
76.39
72.48
67.11
61.57
57.14
54.47
53.34
52.86
52.00
49.92
46.05
40.04
31.47
19.88
4.95
-13.45
-34.61
-57.13
-79.28
-99.39
-116.12
-128.39
-135.29
-136.07
-130.81
-120.07
-105.17
-88.51
-73.23
-62.47
-58.30
-61.02
-69.06
-80.29
-92.01
-101.92
-108.89
-112.98
-114.84
-115.03
-113.64
-110.33
-105.46
-98.69
-89.10
-75.69
-58.13
-37.35
-15.79
3.08
21.48
38.41
52.25
62.70
71.08
78.94
86.66
93.52
98.77
102.51
104.76
106.12
107.16
107.84
107.45
105.30
101.37
96.43
91.76
87.78
84.30
80.85
76.66
70.41
61.76
51.25
40.22
30.34
22.52
16.50
11.64
6.93
1.34
-5.77
-14.00
-22.15
-28.95
-33.71
-37.26
-40.67
-45.22
-52.36
-63.88
-81.07
-104.94
-136.50
-169.92
-200.57
-223.29
-233.78
-230.27
-214.47
-189.71
-159.75
-127.34
-93.80
-60.27
-27.56
2.99
31.56
53.62
65.03
65.65
59.44
51.07
43.03
36.17
30.33
25.01
19.53
14.16
9.50
6.27
4.57
4.41
5.18
6.48
8.06
9.40
10.51
11.53
13.02
15.14
17.87
21.42
26.48
34.23
46.22
64.77
87.97
114.12
139.95
161.03
173.17
173.98
163.75
145.20
122.56
99.88
80.26
64.77
52.94
43.63
35.77
28.54
21.30
13.65
5.42
-2.82
-10.28
-16.19
-20.00
-21.46
-20.83
-18.66
-15.62
-12.21
-8.13
-2.49
6.19
19.46
37.99
60.60
83.83
102.48
111.15
106.37
87.97
59.43
26.87
-2.96
-24.79
-36.14
-37.48
-31.55
-22.11
-12.93
-7.20
-7.07
-13.61
-26.48
-43.92
-62.84
-79.40
-89.87
-91.73
-84.44
-69.73
-51.02
-32.45
-17.56
-8.42
-5.20
-6.50
-10.22
-14.55
-18.61
-22.69
-27.74
-34.64
-43.58
-53.84
-63.96
-72.21
-76.83
-76.25
-69.33
-55.63
-36.03
-13.14
8.95
25.82
34.30
33.91
27.14
18.33
11.78
10.01
12.96
18.60
24.20
27.66
28.12
25.82
21.52
16.05
10.04
4.06
-1.38
-5.81
-9.03
-11.18
-12.76
-14.31
-16.20
-18.44
-20.61
-22.06
-22.07
-20.11
-16.03
-10.15
-3.38
3.08
7.95
10.40
10.36
8.56
6.29
4.80
4.82
6.26
8.35
10.11
10.96
10.98
10.86
11.47
13.38
16.62
20.54
24.13
26.42
26.84
25.40
22.75
19.91
17.81
17.00
17.36
18.22
18.70
18.06
16.02
12.71
8.61
4.21
-0.12
-4.20
-7.91
-11.12
-13.65
-15.27
-15.74
-14.96
-13.01
-10.20
-7.09
-4.35
-2.62
-2.31
-3.51
-5.90
-8.90
-11.79
-13.90
-14.76
-14.12
-11.93
-8.17
-2.89
3.72
11.12
18.38
24.19
27.19
26.37
21.45
13.06
2.58
-8.21
-17.59
-24.24
-27.44
-27.16
-23.93
-18.72
-12.78
-7.40
-3.70
-2.35
-3.39
-6.11
-9.21
-11.26
-11.10
-8.27
-3.03
3.87
11.50
18.96
25.46
30.33
33.07
33.59
32.32
30.15
28.11
26.77
26.02
25.13
23.33
20.37
16.78
13.57
11.56
10.84
10.68
10.05
8.20
5.22
1.98
-0.37
-1.10
-0.26
1.37
2.72
3.00
2.03
0.37
-1.05
-1.29
0.11
2.94
6.43
9.64
11.96
13.41
14.70
16.74
20.20
25.12
31.04
37.32
43.17
47.32
47.69
41.78
28.15
8.33
-12.54
-27.26
-29.98
-19.48
-0.26
19.49
32.00
33.46
25.13
11.39
-3.36
-16.96
-29.54
-41.89
-53.86
-64.06
-71.03
-74.57
-76.04
-77.35
-79.36
-81.14
-80.20
-73.73
-60.05
-39.45
-14.32
11.50
33.87
49.38
56.29
54.87
47.09
35.89
24.19
14.17
6.99
2.88
1.59
2.62
5.46
9.49
13.96
17.94
20.61
21.35
20.01
16.84
12.48
7.70
3.14
-0.89
-4.40
-7.66
-10.90
-14.04
-16.65
-18.24
-18.50
-17.51
-15.77
-13.91
-12.49
-11.71
-11.46
-11.40
-11.22
-10.73
-9.92
-8.87
-7.72
-6.54
-5.38
-4.23
-3.10
-1.98
-0.95
-0.08
0.48
0.59
0.19
-0.68
-1.85
-2.99
-3.70
-3.70
-2.88
-1.49
-0.03
0.87
0.73
-0.61
-2.96
-5.90
-8.96
-11.72
-13.90
-15.31
-15.82
-15.40
-14.21
-12.64
-11.26
-10.57
-10.80
-11.75
-12.86
-13.42
-12.86
-10.91
-7.66
-3.52
0.96
5.18
8.60
10.82
11.60
10.92
9.09
6.63
4.18
2.29
1.27
1.09
1.45
1.95
2.25
2.20
1.77
1.02
0.02
-1.11
-2.19
-2.95
-3.10
-2.48
-1.22
0.19
1.13
1.03
-0.31
-2.68
-5.52
-8.18
-10.17
-11.29
-11.62
-11.41
-10.95
-10.51
-10.20
-10.05
-9.92
-9.62
-8.91
-7.64
-5.82
-3.60
-1.28
0.88
2.76
4.40
5.99
7.70
9.61
11.61
13.49
15.02
16.02
16.49
16.53
16.33
16.09
15.98
16.05
16.22
16.32
16.09
15.31
13.97
12.32
10.83
10.07
10.44
11.96
14.29
16.79
18.75
19.68
19.39
17.91
15.38
11.92
7.61
2.54
-3.09
-8.91
-14.50
-19.41
-23.33
-26.04
-27.53
-27.94
-27.56
-26.74
-25.77
-24.74
-23.53
-21.85
-19.48
-16.46
-13.17
-10.22
-8.35
-8.12
-9.71
-12.73
-16.24
-18.87
-19.20
-16.37
-10.52
-3.01
3.99
8.20
8.18
3.79
-3.74
-12.35
-19.84
-24.36
-24.94
-21.54
-15.24
-7.99
-2.18
0.23
-1.52
-6.53
-12.60
-17.21
-18.66
-16.67
-12.27
-6.89
-1.61
3.24
7.86
12.35
16.32
19.00
19.80
18.80
16.91
15.49
15.65
17.72
21.15
24.80
27.65
29.19
29.64
29.76
30.35
31.91
34.42
37.36
39.90
41.13
40.31
36.98
31.03
22.79
12.96
2.45
-7.83
-17.18
-25.20
-31.86
-37.23
-41.36
-44.19
-45.58
-45.40
-43.71
-40.75
-36.94
-32.73
-28.54
-24.66
-21.34
-18.66
-16.60
-15.01
-13.68
-12.42
-11.21
-10.20
-9.66
-9.74
-10.26
-10.64
-10.07
-7.78
-3.43
2.83
10.37
18.30
25.78
32.15
36.89
39.65
40.18
38.32
34.16
27.96
20.19
11.43
2.27
-6.66
-14.74
-21.33
-25.95
-28.32
-28.53
-26.95
-24.17
-20.88
-17.71
-15.13
-13.31
-12.14
-11.23
-10.11
-8.38
-5.92
-2.94
0.16
2.96
5.25
7.07
8.69
10.44
12.58
15.28
18.54
22.29
26.30
30.21
33.51
35.71
36.42
35.55
33.39
30.49
27.53
25.11
23.59
23.00
23.10
23.42
23.31
22.10
19.17
14.27
7.66
0.21
-6.87
-12.37
-15.67
-16.91
-16.98
-17.01
-17.82
-19.55
-21.62
-23.16
-23.48
-22.44
-20.45
-18.19
-16.22
-14.68
-13.35
-11.82
-9.88
-7.67
-5.68
-4.45
-4.30
-5.16
-6.56
-8.00
-9.16
-10.13
-11.29
-13.16
-16.04
-19.87
-24.26
-28.58
-32.28
-35.00
-36.73
-37.71
-38.35
-39.02
-39.91
-40.99
-41.97
-42.45
-42.04
-40.44
-37.56
-33.49
-28.46
-22.89
-17.23
-11.93
-7.26
-3.13
0.98
5.92
12.48
20.96
30.86
40.85
49.23
54.51
55.98
53.97
49.61
44.28
39.13
34.63
30.75
27.13
23.51
19.88
16.46
13.58
11.43
10.09
9.50
9.60
10.38
11.87
14.04
16.74
19.71
22.56
25.00
26.87
28.20
29.16
29.88
30.35
30.36
29.52
27.42
23.72
18.37
11.59
3.90
-3.93
-11.00
-16.50
-19.85
-20.90
-19.89
-17.48
-14.50
-11.80
-10.01
-9.47
-10.26
-12.20
-15.08
-18.64
-22.69
-27.07
-31.56
-35.95
-39.95
-43.29
-45.75
-47.27
-47.90
-47.82
-47.26
-46.47
-45.65
-44.93
-44.37
-43.88
-43.25
-42.20
-40.47
-37.89
-34.49
-30.46
-26.13
-21.81
-17.70
-13.84
-10.13
-6.37
-2.45
1.62
5.74
9.76
13.56
17.10
20.34
23.15
25.27
26.42
26.46
25.61
24.47
23.95
24.96
28.11
33.41
40.24
47.41
53.51
57.31
58.12
56.03
51.76
46.44
41.14
36.59
33.09
30.61
28.99
28.09
27.83
28.06
28.55
29.05
29.35
29.50
29.73
30.33
31.51
33.16
34.92
36.29
36.83
36.29
34.71
32.34
29.56
26.75
24.20
21.99
20.01
17.93
15.23
11.40
6.07
-0.77
-8.73
-17.04
-24.77
-31.10
-35.52
-37.99
-38.83
-38.56
-37.69
-36.59
-35.48
-34.48
-33.67
-33.11
-32.82
-32.70
-32.61
-32.39
-31.98
-31.41
-30.81
-30.32
-30.01
-29.85
-29.75
-29.52
-28.94
-27.88
-26.33
-24.43
-22.48
-20.83
-19.74
-19.27
-19.22
-19.28
-19.11
-18.51
-17.51
-16.30
-15.15
-14.28
-13.80
-13.56
-13.25
-12.48
-10.93
-8.54
-5.48
-2.12
1.12
3.93
6.12
7.64
8.48
8.76
8.68
8.55
8.75
9.64
11.36
13.79
16.53
19.09
20.99
21.90
21.73
20.56
18.61
16.13
13.37
10.49
7.66
5.03
2.79
1.06
-0.16
-1.09
-2.10
-3.57
-5.70
-8.38
-11.24
-13.76
-15.57
-16.52
-16.69
-16.27
-15.38
-13.95
-11.81
-8.79
-4.82
-0.06
5.14
10.36
15.21
19.43
22.90
25.67
27.89
29.74
31.35
32.73
33.80
34.39
34.41
33.86
32.94
31.94
31.08
30.47
29.97
29.30
28.17
26.50
24.35
21.96
19.57
17.22
14.78
11.99
8.58
4.37
-0.64
-6.29
-12.22
-17.93
-22.83
-26.41
-28.43
-29.04
-28.70
-28.03
-27.52
-27.30
-27.22
-26.96
-26.25
-25.02
-23.37
-21.50
-19.56
-17.67
-15.91
-14.38
-13.12
-12.07
-11.10
-10.02
-8.77
-7.42
-6.20
-5.41
-5.21
-5.59
-6.29
-6.98
-7.32
-7.15
-6.50
-5.59
-4.69
-4.06
-3.83
-4.03
-4.58
-5.44
-6.58
-7.95
-9.49
-11.02
-12.27
-13.01
-13.07
-12.45
-11.24
-9.57
-7.51
-5.09
-2.33
0.76
4.04
7.31
10.34
12.93
14.99
16.52
17.59
18.31
18.77
19.02
19.13
19.19
19.33
19.72
20.52
21.79
23.53
25.59
27.77
29.78
31.34
32.20
32.19
31.26
29.50
27.08
24.19
20.97
17.50
13.79
9.82
5.68
1.51
-2.54
-6.32
-9.72
-12.67
-15.05
-16.68
-17.42
-17.14
-15.92
-13.95
-11.51
-8.88
-6.17
-3.45
-0.75
1.83
4.11
5.88
7.00
7.46
7.38
6.90
6.14
5.16
4.04
2.88
1.87
1.20
0.99
1.18
1.54
1.76
1.58
0.85
-0.36
-1.87
-3.46
-5.00
-6.47
-7.97
-9.63
-11.50
-13.59
-15.74
-17.76
-19.44
-20.58
-21.06
-20.85
-20.04
-18.71
-17.00
-14.97
-12.64
-9.99
-7.04
-3.93
-0.91
1.68
3.56
4.58
4.75
4.30
3.57
2.99
2.91
3.56
4.96
6.90
9.07
11.07
12.57
13.45
13.67
13.37
12.72
11.84
10.79
9.55
8.09
6.38
4.49
2.45
0.34
-1.80
-3.91
-5.94
-7.80
-9.37
-10.57
-11.35
-11.70
-11.55
-10.75
-9.12
-6.54
-3.14
0.69
4.41
7.58
10.10
12.25
14.43
16.89
19.52
21.86
23.34
23.67
22.92
21.58
20.18
19.10
18.41
17.96
17.56
17.16
16.76
16.41
16.02
15.35
14.12
12.16
9.51
6.42
3.22
0.18
-2.55
-5.00
-7.27
-9.41
-11.43
-13.34
-15.15
-16.95
-18.78
-20.56
-22.03
-22.77
-22.41
-20.79
-18.05
-14.63
-11.03
-7.67
-4.74
-2.22
0.02
2.10
4.09
5.98
7.73
9.30
10.64
11.67
12.33
12.61
12.59
12.50
12.54
12.84
13.37
13.91
14.20
14.03
13.35
12.22
10.87
9.48
8.22
7.13
6.13
5.05
3.73
2.02
-0.11
-2.59
-5.29
-8.04
-10.76
-13.35
-15.71
-17.69
-19.11
-19.81
-19.69
-18.72
-16.98
-14.53
-11.47
-7.88
-3.92
0.18
4.12
7.58
10.34
12.34
13.69
14.61
15.35
16.05
16.70
17.19
17.34
17.02
16.24
15.07
13.66
12.16
10.67
9.24
7.90
6.61
5.30
3.91
2.40
0.75
-0.95
-2.64
-4.30
-5.94
-7.59
-9.26
-10.91
-12.46
-13.86
-15.13
-16.35
-17.59
-18.73
-19.54
-19.67
-18.82
-16.87
-13.90
-10.15
-5.94
-1.59
2.59
6.34
9.43
11.75
13.30
14.20
14.65
14.85
14.98
15.13
15.35
15.64
15.90
15.99
15.75
15.05
13.91
12.46
10.91
9.47
8.21
7.09
5.92
4.52
2.74
0.59
-1.80
-4.19
-6.41
-8.32
-9.93
-11.32
-12.58
-13.76
-14.83
-15.70
-16.24
-16.36
-15.95
-14.93
-13.25
-10.89
-7.95
-4.62
-1.16
2.17
5.16
7.70
9.77
11.33
12.35
12.76
12.55
11.72
10.37
8.72
6.96
5.28
3.77
2.46
1.34
0.40
-0.36
-0.92
-1.29
-1.52
-1.66
-1.79
-1.95
-2.18
-2.47
-2.79
-3.20
-3.73
-4.47
-5.50
-6.90
-8.69
-10.93
-13.55
-16.39
-19.11
-21.22
-22.24
-21.85
-20.01
-17.02
-13.37
-9.53
-5.76
-2.14
1.45
5.08
8.69
12.06
14.88
16.94
18.19
18.81
19.06
19.21
19.37
19.51
19.48
19.14
18.44
17.45
16.33
15.25
14.29
13.45
12.64
11.77
10.77
9.62
8.35
7.01
5.62
4.16
2.52
0.56
-1.85
-4.71
-7.86
-10.98
-13.64
-15.41
-15.99
-15.32
-13.59
-11.25
-8.87
-6.91
-5.65
-5.13
-5.24
-5.85
-6.90
-8.44
-10.59
-13.43
-16.98
-21.21
-25.94
-30.82
-35.19
-38.14
-38.71
-36.23
-30.66
-22.70
-13.68
-5.11
1.84
6.62
9.39
10.81
11.70
12.72
14.24
16.25
18.52
20.68
22.36
23.23
23.06
21.66
19.01
15.20
10.55
5.57
0.86
-3.04
-5.82
-7.42
-8.03
-7.91
-7.33
-6.51
-5.65
-4.93
-4.53
-4.50
-4.72
-4.85
-4.51
-3.46
-1.77
0.25
2.15
3.66
4.76
5.68
6.70
7.96
9.39
10.74
11.74
12.30
12.53
12.75
13.28
14.40
16.18
18.44
20.82
22.87
24.14
24.36
23.51
21.94
20.28
19.29
19.50
20.98
23.20
25.21
26.00
24.95
22.05
17.88
13.26
8.97
5.47
2.91
1.22
0.29
-0.01
0.14
0.41
0.38
-0.41
-2.23
-5.10
-8.74
-12.67
-16.33
-19.21
-21.02
-21.68
-21.33
-20.22
-18.66
-16.87
-15.01
-13.20
-11.54
-10.18
-9.24
-8.79
-8.82
-9.27
-9.99
-10.92
-11.97
-13.08
-14.15
-15.08
-15.80
-16.32
-16.75
-17.28
-18.02
-18.93
-19.81
-20.34
-20.20
-19.26
-17.54
-15.19
-12.50
-9.73
-7.03
-4.46
-1.99
0.45
2.82
5.02
6.81
8.01
8.54
8.52
8.26
8.06
8.16
8.58
9.18
9.77
10.19
10.34
10.16
9.62
8.68
7.31
5.54
3.46
1.23
-0.98
-3.03
-4.87
-6.58
-8.27
-10.06
-12.02
-14.08
-16.12
-17.98
-19.49
-20.52
-20.97
-20.77
-19.87
-18.26
-15.99
-13.17
-9.91
-6.35
-2.68
0.83
3.85
6.07
7.33
7.67
7.42
6.97
6.71
6.81
7.24
7.81
8.28
8.49
8.39
8.03
7.51
6.89
6.17
5.28
4.21
2.95
1.63
0.36
-0.74
-1.63
-2.36
-2.98
-3.58
-4.18
-4.84
-5.64
-6.65
-7.90
-9.28
-10.56
-11.42
-11.66
-11.21
-10.14
-8.62
-6.76
-4.60
-2.08
0.84
4.13
7.63
11.04
14.01
16.27
17.73
18.47
18.67
18.55
18.23
17.75
17.16
16.57
16.20
16.27
16.87
17.83
18.79
19.27
18.91
17.62
15.56
13.09
10.57
8.26
6.22
4.40
2.68
1.00
-0.65
-2.22
-3.59
-4.61
-5.11
-4.95
-4.00
-2.23
0.31
3.50
7.17
11.10
15.12
19.02
22.66
25.86
28.51
30.46
31.58
31.62
30.37
27.64
23.47
18.16
12.28
6.55
1.52
-2.51
-5.62
-8.12
-10.32
-12.35
-14.16
-15.66
-16.76
-17.60
-18.35
-19.23
-20.32
-21.55
-22.81
-23.94
-24.88
-25.61
-26.16
-26.59
-26.97
-27.37
-27.85
-28.35
-28.67
-28.51
-27.57
-25.67
-22.86
-19.43
-15.83
-12.52
-9.85
-7.94
-6.70
-5.90
-5.32
-4.81
-4.37
-4.02
-3.83
-3.79
-3.93
-4.26
-4.87
-5.87
-7.32
-9.19
-11.33
-13.53
-15.58
-17.32
-18.68
-19.65
-20.26
-20.51
-20.36
-19.71
-18.46
-16.46
-13.59
-9.81
-5.14
0.26
6.07
11.81
16.86
20.62
22.67
22.94
21.79
19.88
17.99
16.68
16.19
16.42
17.03
17.67
18.05
18.03
17.59
16.71
15.42
13.74
11.74
9.60
7.56
5.87
4.70
4.08
3.86
3.80
3.67
3.33
2.80
2.21
1.77
1.65
1.93
2.62
3.67
4.94
6.25
7.35
7.89
7.65
6.57
4.87
3.03
1.61
1.04
1.51
2.88
4.78
6.82
8.67
10.15
11.18
11.74
11.85
11.61
11.14
10.60
10.04
9.42
8.55
7.24
5.42
3.26
1.12
-0.57
-1.53
-1.74
-1.42
-0.96
-0.68
-0.73
-1.09
-1.68
-2.44
-3.36
-4.53
-5.97
-7.69
-9.58
-11.52
-13.43
-15.26
-17.06
-18.86
-20.70
-22.53
-24.27
-25.78
-26.93
-27.58
-27.56
-26.74
-25.02
-22.38
-18.99
-15.13
-11.14
-7.33
-3.82
-0.58
2.52
5.61
8.64
11.51
13.92
15.59
16.24
15.61
13.50
9.84
4.76
-1.32
-7.68
-13.43
-17.72
-19.97
-20.01
-18.09
-14.77
-10.76
-6.73
-3.18
-0.49
1.15
1.65
1.13
-0.13
-1.72
-3.24
-4.44
-5.27
-5.87
-6.38
-6.82
-7.00
-6.66
-5.57
-3.72
-1.24
1.60
4.59
7.63
10.70
13.81
16.85
19.61
21.85
23.39
24.20
24.44
24.39
24.30
24.28
24.27
24.11
23.57
22.61
21.31
19.90
18.67
17.79
17.30
17.08
16.94
16.66
16.03
14.90
13.13
10.73
7.85
4.80
2.01
-0.19
-1.60
-2.23
-2.23
-1.81
-1.06
0.09
1.79
4.21
7.36
11.09
15.11
19.13
22.89
26.22
29.02
31.27
32.97
34.14
34.79
34.83
34.00
31.89
28.04
22.15
14.22
4.62
-6.02
-16.95
-27.51
-37.19
-45.68
-52.80
-58.52
-63.01
-66.57
-69.61
-72.50
-75.37
-78.04
-80.12
-81.12
-80.70
-78.88
-75.95
-72.41
-68.61
-64.67
-60.37
-55.39
-49.46
-42.63
-35.17
-27.44
-19.70
-11.97
-4.17
3.78
11.73
19.34
26.26
32.21
37.15
41.18
44.38
46.73
48.08
48.29
47.35
45.43
42.83
39.87
36.81
33.86
31.15
28.82
26.95
25.52
24.39
23.32
22.08
20.45
18.34
15.74
12.72
9.40
5.95
2.60
-0.38
-2.81
-4.61
-5.90
-6.92
-7.94
-9.12
-10.48
-11.85
-13.01
-13.75
-13.94
-13.57
-12.72
-11.48
-9.98
-8.31
-6.58
-4.93
-3.46
-2.28
-1.45
-1.00
-0.94
-1.24
-1.82
-2.58
-3.40
-4.17
-4.85
-5.47
-6.09
-6.77
-7.46
-8.03
-8.34
-8.30
-8.01
-7.65
-7.53
-7.86
-8.73
-10.05
-11.55
-12.94
-13.97
-14.58
-14.89
-15.20
-15.77
-16.73
-17.91
-18.89
-19.11
-18.08
-15.62
-11.86
-7.24
-2.34
2.33
6.38
9.63
12.09
13.92
15.42
16.98
19.00
21.77
25.19
28.78
31.65
32.88
31.85
28.62
23.98
19.18
15.45
13.55
13.49
14.62
16.07
17.06
17.26
16.68
15.56
14.02
12.02
9.41
6.03
1.94
-2.57
-7.09
-11.21
-14.64
-17.29
-19.20
-20.47
-21.16
-21.31
-20.92
-20.07
-18.85
-17.44
-16.03
-14.71
-13.49
-12.22
-10.70
-8.78
-6.45
-3.96
-1.75
-0.31
-0.02
-0.98
-3.01
-5.69
-8.52
-11.04
-12.92
-14.00
-14.28
-13.90
-13.09
-12.11
-11.22
-10.57
-10.19
-10.03
-9.96
-9.82
-9.46
-8.78
-7.79
-6.62
-5.49
-4.69
-4.44
-4.86
-5.89
-7.32
-8.83
-10.09
-10.74
-10.52
-9.30
-7.10
-4.10
-0.58
3.14
6.71
9.86
12.38
14.15
15.22
15.80
16.21
16.75
17.60
18.74
19.96
20.98
21.62
21.87
21.89
21.88
21.90
21.85
21.48
20.46
18.55
15.69
11.94
7.56
2.81
-1.98
-6.44
-10.18
-12.83
-14.16
-14.24
-13.45
-12.44
-11.83
-11.90
-12.47
-12.92
-12.47
-10.55
-7.02
-2.25
3.06
8.22
12.76
16.50
19.46
21.66
22.91
22.91
21.39
18.36
14.27
9.93
6.31
4.08
3.43
4.05
5.29
6.50
7.27
7.51
7.28
6.69
5.75
4.41
2.65
0.51
-1.82
-4.14
-6.32
-8.33
-10.27
-12.28
-14.48
-16.89
-19.36
-21.62
-23.27
-23.95
-23.44
-21.75
-19.15
-16.06
-12.93
-10.10
-7.70
-5.64
-3.72
-1.73
0.49
2.90
5.34
7.50
9.11
9.93
9.91
9.14
7.85
6.34
4.92
3.85
3.22
3.02
3.13
3.31
3.37
3.20
2.80
2.27
1.75
1.33
1.02
0.75
0.41
-0.08
-0.76
-1.60
-2.48
-3.19
-3.54
-3.36
-2.54
-1.11
0.84
3.14
5.58
7.97
10.13
11.96
13.39
14.39
14.99
15.24
15.17
14.85
14.31
13.54
12.56
11.40
10.17
9.03
8.14
7.53
7.08
6.55
5.68
4.35
2.61
0.72
-1.03
-2.43
-3.49
-4.35
-5.25
-6.36
-7.77
-9.44
-11.24
-13.00
-14.48
-15.44
-15.65
-15.02
-13.56
-11.45
-8.92
-6.22
-3.57
-1.08
1.19
3.25
5.12
6.86
8.49
10.04
11.46
12.67
13.54
13.95
13.83
13.16
12.05
10.67
9.26
8.05
7.23
6.84
6.77
6.79
6.64
6.11
5.11
3.68
1.95
0.06
-1.82
-3.60
-5.19
-6.58
-7.80
-8.88
-9.85
-10.65
-11.13
-11.11
-10.46
-9.15
-7.26
-4.96
-2.44
0.14
2.67
5.07
7.28
9.22
10.82
12.03
12.86
13.34
13.50
13.33
12.86
12.12
11.22
10.29
9.49
8.84
8.29
7.68
6.90
5.90
4.78
3.70
2.80
2.04
1.31
0.36
-0.91
-2.52
-4.27
-5.94
-7.32
-8.35
-9.03
-9.41
-9.44
-8.99
-7.92
-6.23
-4.07
-1.70
0.55
2.52
4.21
5.72
7.19
8.60
9.81
10.61
10.87
10.64
10.11
9.54
9.12
8.87
8.65
8.24
7.52
6.47
5.23
3.96
2.84
1.90
1.08
0.23
-0.76
-1.94
-3.25
-4.58
-5.82
-6.96
-8.13
-9.52
-11.27
-13.39
-15.70
-17.86
-19.50
-20.31
-20.11
-18.82
-16.50
-13.29
-9.45
-5.37
-1.46
1.89
4.46
6.19
7.21
7.72
7.90
7.89
7.73
7.46
7.05
6.54
5.94
5.29
4.62
3.93
3.25
2.56
1.86
1.15
0.43
-0.29
-1.01
-1.72
-2.46
-3.26
-4.16
-5.19
-6.34
-7.57
-8.81
-10.01
-11.13
-12.25
-13.37
-14.46
-15.36
-15.83
-15.64
-14.65
-12.93
-10.65
-8.06
-5.33
-2.60
0.02
2.41
4.43
6.01
7.16
8.02
8.70
9.28
9.68
9.79
9.52
8.89
8.00
7.01
6.04
5.22
4.65
4.37
4.37
4.47
4.40
3.91
2.84
1.32
-0.39
-1.93
-3.04
-3.65
-3.89
-4.00
-4.25
-4.80
-5.72
-6.91
-8.13
-9.08
-9.44
-9.01
-7.72
-5.69
-3.13
-0.38
2.28
4.63
6.52
7.93
8.88
9.42
9.59
9.40
8.91
8.23
7.53
7.00
6.76
6.81
7.08
7.37
7.47
7.12
6.06
4.12
1.25
-2.29
-6.00
-9.24
-11.48
-12.54
-12.65
-12.27
-11.90
-11.85
-12.16
-12.74
-13.54
-14.56
-15.86
-17.40
-18.97
-20.23
-20.84
-20.61
-19.57
-17.87
-15.74
-13.38
-10.90
-8.32
-5.61
-2.71
0.37
3.52
6.49
8.90
10.36
10.65
9.83
8.29
6.61
5.42
5.15
5.98
7.76
10.13
12.66
14.88
16.39
16.89
16.20
14.34
11.52
8.13
4.63
1.47
-0.99
-2.55
-3.24
-3.25
-2.90
-2.56
-2.59
-3.20
-4.44
-6.09
-7.84
-9.29
-10.11
-10.13
-9.32
-7.77
-5.65
-3.20
-0.65
1.78
3.97
5.92
7.72
9.47
11.20
12.83
14.17
15.04
15.36
15.19
14.68
13.98
13.15
12.16
10.97
9.57
8.04
6.58
5.33
4.39
3.73
3.26
2.83
2.41
2.00
1.69
1.49
1.35
1.08
0.49
-0.52
-1.93
-3.53
-5.09
-6.42
-7.41
-8.06
-8.40
-8.43
-8.11
-7.38
-6.17
-4.45
-2.21
0.50
3.59
6.92
10.25
13.33
15.91
17.75
18.66
18.53
17.32
15.16
12.36
9.40
6.81
5.01
4.18
4.16
4.59
5.02
5.12
4.74
3.92
2.80
1.58
0.42
-0.52
-1.20
-1.65
-1.94
-2.16
-2.35
-2.51
-2.54
-2.43
-2.19
-1.96
-1.89
-2.08
-2.48
-2.90
-3.04
-2.66
-1.66
-0.06
2.00
4.38
6.96
9.62
12.20
14.50
16.23
17.10
16.78
15.07
11.90
7.46
2.26
-3.02
-7.71
-11.50
-14.68
-18.21
-23.38
-31.29
-42.21
-55.29
-68.57
-79.50
-85.81
-86.12
-80.39
-69.73
-56.05
-41.44
-27.95
-17.34
-10.81
-8.64
-9.73
-11.56
-10.60
-3.46
11.94
35.56
65.19
97.23
127.86
154.06
174.09
187.53
194.91
197.59
197.44
196.51
196.47
197.78
199.36
198.68
192.78
179.39
158.01
130.09
98.39
65.75
33.84
2.40
-30.61
-68.12
-112.36
-163.39
-218.18
-270.73
-313.52
-339.84
-345.96
-332.47
-304.20
-268.81
-234.75
-209.15
-196.27
-196.75
-207.65
-223.38
-237.27
-243.35
-237.83
-219.71
-190.48
-153.14
-111.24
-68.30
-27.58
8.13
36.90
58.15
72.86
83.19
91.45
99.09
106.16
111.63
114.23
113.39
109.72
104.74
100.31
97.81
97.66
99.29
101.46
102.81
102.44
100.09
96.10
91.12
85.78
80.42
75.12
69.73
64.12
58.22
52.09
45.80
39.41
32.92
26.32
19.69
13.24
7.32
2.32
-1.46
-3.91
-5.13
-5.38
-4.93
-3.96
-2.59
-0.95
0.74
2.15
2.92
2.88
2.09
0.78
-0.74
-2.28
-3.77
-5.20
-6.51
-7.56
-8.17
-8.28
-8.02
-7.67
-7.48
-7.51
-7.51
-7.10
-5.93
-3.92
-1.38
1.17
3.14
4.17
4.25
3.64
2.75
1.93
1.33
0.93
0.58
0.15
-0.44
-1.16
-1.97
-2.79
-3.57
-4.32
-4.99
-5.57
-5.94
-5.97
-5.54
-4.59
-3.18
-1.49
0.26
1.84
3.13
4.16
5.00
5.77
6.48
7.10
7.55
7.81
7.90
7.89
7.78
7.54
7.10
6.46
5.77
5.29
5.21
5.51
5.95
6.09
5.55
4.17
2.05
-0.52
-3.34
-6.33
-9.51
-12.92
-16.46
-19.93
-23.07
-25.77
-28.06
-30.06
-31.88
-33.50
-34.78
-35.48
-35.36
-34.24
-31.99
-28.47
-23.59
-17.31
-9.80
-1.41
7.26
15.48
22.53
27.82
31.08
32.27
31.69
29.82
27.19
24.31
21.55
19.22
17.48
16.44
16.13
16.43
17.05
17.58
17.59
16.79
15.14
12.84
10.25
7.72
5.47
3.53
1.85
0.37
-0.90
-1.90
-2.52
-2.71
-2.47
-1.81
-0.80
0.50
2.01
3.61
5.19
6.66
7.99
9.23
10.50
11.90
13.50
15.27
17.12
18.94
20.67
22.32
24.00
25.83
27.80
29.77
31.37
32.15
31.75
30.02
27.07
23.26
18.99
14.63
10.43
6.58
3.25
0.59
-1.34
-2.64
-3.62
-4.68
-6.17
-8.21
-10.61
-13.02
-15.04
-16.50
-17.43
-18.10
-18.81
-19.77
-20.96
-22.22
-23.26
-23.85
-23.86
-23.33
-22.48
-21.52
-20.63
-19.86
-19.13
-18.35
-17.40
-16.29
-15.09
-13.91
-12.85
-12.00
-11.40
-11.11
-11.23
-11.79
-12.79
-14.13
-15.61
-16.97
-17.97
-18.31
-17.82
-16.38
-14.08
-11.18
-8.15
-5.49
-3.59
-2.58
-2.38
-2.68
-3.19
-3.68
-4.11
-4.54
-5.13
-5.96
-7.05
-8.32
-9.58
-10.62
-11.20
-11.16
-10.41
-9.00
-7.12
-5.01
-2.93
-1.12
0.33
1.40
2.19
2.87
3.52
4.20
4.87
5.45
5.84
6.00
5.92
5.63
5.23
4.83
4.54
4.43
4.51
4.76
5.11
5.45
5.69
5.76
5.61
5.23
4.60
3.73
2.62
1.31
-0.14
-1.61
-2.92
-3.89
-4.35
-4.23
-3.57
-2.50
-1.19
0.18
1.51
2.76
3.91
5.02
6.15
7.30
8.43
9.43
10.18
10.59
10.61
10.29
9.75
9.14
8.59
8.12
7.69
7.18
6.47
5.49
4.27
2.92
1.56
0.27
-0.95
-2.18
-3.48
-4.87
-6.28
-7.55
-8.59
-9.35
-9.93
-10.54
-11.44
-12.77
-14.45
-16.19
-17.49
-17.93
-17.25
-15.55
-13.18
-10.55
-7.97
-5.54
-3.18
-0.81
1.53
3.74
5.62
7.11
8.26
9.20
10.03
10.69
11.08
11.07
10.70
10.13
9.60
9.32
9.32
9.43
9.37
8.92
8.01
6.76
5.39
4.14
3.11
2.25
1.45
0.61
-0.29
-1.20
-2.04
-2.75
-3.24
-3.35
-2.79
-1.27
1.31
4.61
7.96
10.53
11.81
11.80
11.05
10.36
10.41
11.35
12.93
14.60
15.96
16.89
17.54
18.14
18.79
19.36
19.53
18.96
17.44
15.00
11.90
8.54
5.20
1.96
-1.27
-4.65
-8.24
-11.91
-15.39
-18.39
-20.72
-22.38
-23.55
-24.37
-24.99
-25.45
-25.81
-26.19
-26.80
-27.81
-29.15
-30.50
-31.25
-30.82
-28.85
-25.42
-21.04
-16.41
-12.10
-8.30
-4.86
-1.41
2.31
6.33
10.36
14.01
16.96
19.09
20.50
21.44
22.16
22.83
23.49
24.03
24.28
24.08
23.34
22.10
20.47
18.58
16.54
14.37
12.04
9.51
6.76
3.88
1.04
-1.54
-3.58
-4.89
-5.39
-5.21
-4.59
-3.91
-3.46
-3.51
-4.15
-5.36
-6.99
-8.80
-10.53
-11.96
-13.02
-13.80
-14.49
-15.28
-16.13
-16.79
-16.77
-15.55
-12.85
-8.76
-3.73
1.57
6.49
10.62
13.77
15.99
17.37
17.99
17.87
17.11
15.89
14.54
13.44
12.84
12.80
13.10
13.42
13.40
12.84
11.71
10.16
8.43
6.77
5.42
4.48
3.95
3.68
3.42
2.89
1.89
0.42
-1.32
-2.99
-4.25
-4.93
-5.13
-5.15
-5.39
-6.14
-7.44
-9.06
-10.59
-11.64
-11.90
-11.22
-9.58
-7.11
-4.00
-0.55
2.82
5.71
7.72
8.70
8.73
8.19
7.62
7.57
8.47
10.45
13.42
17.12
21.18
25.35
29.55
33.89
38.72
44.47
51.50
59.85
69.01
77.85
84.75
88.13
86.98
81.41
72.64
62.68
53.62
46.94
43.11
41.58
41.20
40.69
39.12
36.12
31.83
26.76
21.54
16.73
12.67
9.38
6.50
3.35
-0.87
-6.75
-14.31
-22.80
-30.82
-36.83
-39.66
-39.07
-35.80
-31.25
-26.95
-24.03
-23.02
-23.88
-26.29
-29.81
-33.98
-38.26
-42.00
-44.57
-45.57
-44.97
-43.18
-40.93
-38.97
-37.90
-38.07
-39.60
-42.40
-46.32
-51.02
-55.99
-60.61
-64.15
-66.05
-65.94
-63.78
-59.78
-54.41
-48.33
-42.29
-37.02
-33.01
-30.44
-29.06
-28.35
-27.73
-26.76
-25.24
-23.17
-20.61
-17.64
-14.38
-10.99
-7.77
-5.00
-2.90
-1.37
-0.09
1.42
3.55
6.44
9.93
13.62
17.03
19.73
21.47
22.20
22.01
21.09
19.60
17.65
15.14
11.93
7.91
3.20
-1.81
-6.45
-10.03
-11.96
-12.01
-10.31
-7.35
-3.83
-0.57
1.61
2.13
0.75
-2.31
-6.26
-10.06
-12.61
-13.13
-11.39
-7.69
-2.64
3.08
8.93
14.55
19.70
24.11
27.51
29.57
30.16
29.41
27.79
25.96
24.62
24.23
24.94
26.57
28.73
30.93
32.72
33.70
33.74
32.92
31.63
30.48
30.03
30.61
32.16
34.21
36.13
37.34
37.57
36.90
35.61
34.05
32.50
31.03
29.59
27.98
25.91
23.16
19.63
15.47
11.10
7.09
4.02
2.28
1.87
2.35
3.02
3.14
2.25
0.36
-2.14
-4.62
-6.57
-7.75
-8.26
-8.39
-8.41
-8.52
-8.78
-9.19
-9.78
-10.51
-11.28
-11.93
-12.26
-12.22
-11.96
-11.79
-12.04
-12.89
-14.23
-15.76
-17.08
-17.94
-18.32
-18.38
-18.31
-18.12
-17.58
-16.26
-13.76
-10.04
-5.59
-1.40
1.26
1.32
-1.66
-7.28
-14.35
-21.17
-26.05
-27.71
-25.67
-20.28
-12.62
-4.10
3.87
10.20
14.30
16.07
15.86
14.37
12.42
10.83
10.20
10.74
12.23
14.07
15.45
15.69
14.47
11.98
8.92
6.32
5.19
6.21
9.46
14.33
19.78
24.69
28.42
31.14
34.03
38.98
47.99
62.31
81.42
102.62
121.24
131.71
129.22
111.31
78.99
36.62
-9.15
-51.46
-85.22
-108.45
-122.43
-130.73
-137.65
-146.55
-158.83
-173.74
-189.00
-201.81
-209.73
-211.24
-205.76
-193.32
-174.36
-149.67
-120.54
-88.91
-57.24
-28.17
-3.92
14.26
26.31
33.10
35.96
36.06
34.17
30.59
25.52
19.34
12.81
6.96
2.74
0.71
0.78
2.32
4.43
6.39
8.00
9.64
11.94
15.30
19.52
23.74
26.75
27.53
25.71
21.65
16.36
11.01
6.61
3.78
2.76
3.58
6.27
10.83
17.21
25.13
33.94
42.72
50.44
56.24
59.74
61.05
60.66
59.13
56.90
54.21
51.15
47.81
44.37
40.97
37.64
34.14
30.02
24.85
18.41
10.85
2.65
-5.54
-13.12
-19.65
-24.94
-28.97
-31.92
-34.04
-35.62
-36.89
-37.97
-38.87
-39.48
-39.68
-39.35
-38.38
-36.67
-34.15
-30.82
-26.74
-22.13
-17.24
-12.34
-7.63
-3.17
1.04
5.04
8.81
12.25
15.24
17.65
19.41
20.51
21.00
21.00
20.64
20.07
19.40
18.65
17.79
16.75
15.47
13.94
12.23
10.50
8.87
7.39
6.03
4.70
3.31
1.87
0.53
-0.53
-1.21
-1.57
-1.81
-2.24
-3.05
-4.29
-5.81
-7.29
-8.48
-9.19
-9.37
-9.12
-8.58
-7.85
-7.01
-6.06
-4.92
-3.51
-1.66
0.75
3.74
7.12
10.54
13.50
15.58
16.58
16.55
15.81
14.74
13.63
12.64
11.76
10.92
10.11
9.40
8.90
8.66
8.66
8.73
8.67
8.29
7.49
6.35
5.02
3.77
2.77
2.11
1.70
1.33
0.76
-0.13
-1.35
-2.72
-3.94
-4.77
-5.01
-4.64
-3.72
-2.38
-0.76
1.00
2.75
4.36
5.75
6.93
7.96
8.93
9.91
10.85
11.67
12.32
12.78
13.11
13.39
13.59
13.64
13.41
12.81
11.89
10.81
9.78
8.93
8.29
7.71
7.01
6.10
5.00
3.85
2.84
2.02
1.34
0.59
-0.46
-1.92
-3.75
-5.73
-7.56
-9.06
-10.19
-11.06
-11.86
-12.71
-13.57
-14.27
-14.61
-14.42
-13.64
-12.35
-10.70
-8.81
-6.80
-4.73
-2.69
-0.76
0.99
2.49
3.65
4.43
4.81
4.80
4.47
3.96
3.41
2.94
2.58
2.29
1.93
1.38
0.55
-0.55
-1.81
-3.09
-4.21
-5.08
-5.71
-6.16
-6.56
-7.00
-7.57
-8.28
-9.15
-10.11
-11.12
-12.10
-13.02
-13.91
-14.89
-16.04
-17.38
-18.80
-20.08
-20.95
-21.22
-20.81
-19.75
-18.14
-16.04
-13.52
-10.63
-7.51
-4.33
-1.34
1.27
3.34
4.80
5.70
6.10
6.16
6.01
5.80
5.67
5.62
5.58
5.38
4.82
3.78
2.31
0.64
-0.85
-1.82
-2.03
-1.49
-0.37
1.05
2.49
3.72
4.57
4.90
4.61
3.66
2.13
0.18
-2.00
-4.28
-6.62
-9.04
-11.47
-13.72
-15.40
-16.13
-15.66
-13.98
-11.38
-8.30
-5.15
-2.24
0.32
2.54
4.56
6.47
8.35
10.20
11.94
13.40
14.45
14.98
15.00
14.65
14.13
13.67
13.36
13.20
13.09
12.93
12.70
12.45
12.32
12.38
12.64
12.96
13.10
12.79
11.93
10.59
9.07
7.75
6.89
6.51
6.34
5.90
4.68
2.36
-1.13
-5.52
-10.29
-14.87
-18.70
-21.39
-22.69
-22.54
-20.99
-18.25
-14.59
-10.41
-6.18
-2.40
0.49
2.22
2.82
2.62
2.14
1.91
2.28
3.32
4.85
6.57
8.18
9.55
10.67
11.60
12.37
12.88
12.99
12.58
11.70
10.50
9.29
8.40
8.09
8.57
9.94
12.18
15.10
18.28
21.13
23.04
23.67
23.00
21.35
19.14
16.66
13.93
10.76
6.98
2.62
-1.98
-6.36
-10.02
-12.70
-14.31
-14.98
-14.87
-14.14
-13.00
-11.66
-10.42
-9.56
-9.30
-9.64
-10.38
-11.12
-11.44
-11.03
-9.85
-8.14
-6.24
-4.52
-3.18
-2.24
-1.63
-1.26
-1.07
-1.01
-1.04
-1.05
-0.99
-0.84
-0.71
-0.74
-0.97
-1.31
-1.55
-1.46
-1.00
-0.34
0.13
0.01
-0.88
-2.48
-4.40
-6.16
-7.29
-7.57
-6.96
-5.66
-3.94
-2.06
-0.23
1.48
3.05
4.48
5.73
6.72
7.37
7.66
7.67
7.57
7.50
7.52
7.52
7.38
6.98
6.39
5.75
5.23
4.88
4.63
4.29
3.66
2.69
1.40
-0.09
-1.68
-3.31
-4.98
-6.65
-8.27
-9.80
-11.20
-12.48
-13.68
-14.87
-16.05
-17.24
-18.35
-19.28
-19.86
-19.93
-19.40
-18.23
-16.56
-14.58
-12.54
-10.59
-8.78
-7.03
-5.28
-3.50
-1.74
-0.12
1.24
2.33
3.20
3.93
4.57
5.09
5.49
5.74
5.92
6.12
6.40
6.71
6.93
6.91
6.57
5.95
5.18
4.40
3.69
2.99
2.19
1.17
-0.04
-1.34
-2.53
-3.51
-4.33
-5.20
-6.36
-7.92
-9.78
-11.62
-13.07
-13.85
-13.90
-13.34
-12.37
-11.13
-9.64
-7.84
-5.69
-3.21
-0.54
2.13
4.63
6.82
8.65
10.07
11.09
11.72
12.02
12.09
12.11
12.27
12.69
13.38
14.18
14.85
15.13
14.87
14.11
13.05
11.95
10.99
10.23
9.54
8.76
7.73
6.41
4.87
3.26
1.71
0.27
-1.06
-2.35
-3.69
-5.16
-6.80
-8.59
-10.44
-12.18
-13.57
-14.37
-14.40
-13.60
-12.06
-10.01
-7.71
-5.42
-3.32
-1.46
0.21
1.77
3.28
4.79
6.29
7.75
9.11
10.30
11.26
11.89
12.15
12.02
11.55
10.80
9.88
8.86
7.83
6.88
6.04
5.29
4.55
3.69
2.57
1.13
-0.57
-2.38
-4.05
-5.43
-6.46
-7.23
-7.95
-8.86
-10.14
-11.83
-13.80
-15.74
-17.24
-17.94
-17.66
-16.50
-14.86
-13.19
-11.76
-10.54
-9.18
-7.26
-4.55
-1.27
1.97
4.34
5.29
4.79
3.39
1.93
1.14
1.38
2.51
4.07
5.59
6.90
8.30
10.46
14.01
19.15
25.45
31.87
36.78
38.56
36.36
30.58
22.91
15.70
10.92
9.69
11.74
15.06
16.30
11.99
0.09
-18.58
-39.38
-54.35
-53.85
-30.23
17.68
82.55
150.23
204.55
232.56
228.55
194.67
139.85
76.47
16.46
-31.00
-60.25
-69.29
-60.04
-37.93
-14.01
-0.04
-0.26
-9.61
-19.58
-24.78
-25.37
-25.91
-30.76
-41.90
-57.57
-73.53
-86.15
-93.52
-96.10
-96.14
-96.08
-97.35
-100.08
-103.10
-105.03
-105.90
-107.34
-111.38
-118.81
-128.47
-137.84
-144.52
-147.08
-145.38
-140.58
-134.44
-128.37
-122.81
-117.19
-110.38
-101.44
-89.98
-76.29
-61.48
-47.05
-34.39
-24.06
-15.61
-7.86
0.40
9.86
20.33
30.78
39.88
46.65
50.92
53.31
54.81
56.24
57.94
59.83
61.71
63.54
65.55
67.95
70.83
73.90
76.67
78.66
79.73
80.18
80.62
81.65
83.55
86.11
88.70
90.53
90.98
89.81
87.10
83.12
78.16
72.46
66.34
60.23
54.76
50.56
48.08
47.40
48.31
50.45
53.62
57.91
63.55
70.69
79.13
88.35
97.63
106.32
114.09
120.95
127.18
133.03
138.74
144.34
149.65
154.21
157.15
157.19
153.04
143.88
130.00
113.08
95.86
81.26
71.34
66.46
65.20
64.87
62.71
56.91
47.25
35.01
22.21
10.65
1.04
-7.31
-16.20
-27.90
-44.36
-66.53
-93.99
-124.90
-156.29
-184.72
-207.12
-221.68
-228.35
-228.94
-226.81
-226.36
-232.12
-247.57
-273.72
-308.07
-344.61
-375.22
-392.44
-392.28
-375.51
-346.73
-311.66
-274.27
-235.49
-194.07
-148.95
-101.45
-55.82
-17.68
8.56
22.04
26.02
26.80
31.60
46.48
74.97
117.45
170.94
229.21
283.74
325.64
348.04
348.20
328.18
293.75
252.07
209.17
168.60
131.66
98.61
69.71
45.41
25.80
9.90
-4.22
-18.54
-33.94
-49.68
-63.81
-74.41
-80.44
-82.24
-81.13
-78.68
-75.96
-73.15
-69.66
-64.60
-57.27
-47.33
-35.02
-20.93
-5.78
9.85
25.47
40.66
54.84
67.11
76.27
81.09
80.76
75.35
65.93
54.17
41.55
28.70
15.21
0.05
-17.56
-37.30
-57.47
-75.73
-90.24
-100.68
-108.52
-116.27
-125.98
-137.84
-149.82
-158.50
-160.80
-155.53
-143.94
-129.06
-114.35
-102.41
-94.33
-89.75
-87.34
-85.22
-81.29
-73.77
-61.86
-46.41
-29.98
-15.95
-6.98
-3.49
-3.24
-2.33
2.81
13.58
28.73
45.14
59.54
70.03
76.57
80.51
83.48
86.57
90.04
93.66
97.24
100.92
105.00
109.66
114.60
118.87
121.11
119.98
114.75
105.70
94.27
82.73
73.27
67.12
63.87
61.75
58.57
52.95
44.77
34.86
24.17
13.05
1.26
-11.45
-24.73
-37.40
-47.89
-54.92
-57.92
-56.89
-52.00
-43.36
-31.28
-16.64
-1.22
12.60
22.70
28.04
29.04
27.23
24.53
22.45
21.68
22.02
22.58
22.22
20.02
15.67
9.67
3.31
-1.85
-4.66
-4.84
-3.20
-1.21
-0.39
-1.58
-4.69
-8.86
-12.96
-16.07
-17.84
-18.41
-18.20
-17.68
-17.11
-16.50
-15.65
-14.23
-12.05
-9.21
-6.12
-3.46
-1.86
-1.53
-2.29
-3.57
-4.80
-5.66
-6.23
-6.83
-7.82
-9.41
-11.68
-14.58
-17.92
-21.24
-23.72
-24.16
-21.15
-13.46
-0.53
17.22
38.37
60.77
82.03
100.10
113.62
122.09
125.77
125.53
122.52
117.98
113.01
108.43
104.74
101.98
99.77
97.38
93.92
88.69
81.50
72.78
63.56
55.15
48.74
44.95
43.63
43.82
44.07
42.88
39.22
32.94
24.76
15.92
7.71
0.86
-4.73
-9.95
-16.08
-24.12
-34.37
-46.21
-58.39
-69.45
-78.21
-84.09
-87.05
-87.32
-85.23
-80.94
-74.64
-66.68
-57.78
-48.97
-41.30
-35.46
-31.41
-28.45
-25.49
-21.64
-16.70
-11.26
-6.42
-3.19
-1.98
-2.41
-3.53
-4.30
-4.09
-2.92
-1.30
0.10
0.82
0.84
0.44
-0.03
-0.32
-0.43
-0.54
-0.83
-1.33
-1.86
-2.13
-1.81
-0.69
1.26
3.88
6.93
10.04
12.82
14.87
15.96
16.11
15.65
15.20
15.49
17.08
20.12
24.21
28.54
32.14
34.33
35.02
34.78
34.58
35.36
37.52
40.76
44.16
46.59
47.26
46.08
43.71
41.30
40.15
41.32
45.20
51.30
58.06
62.88
62.51
53.87
35.17
6.93
-27.61
-63.25
-94.35
-116.74
-128.88
-131.90
-128.46
-121.11
-111.21
-98.83
-83.55
-65.59
-46.36
-28.18
-13.34
-3.03
3.06
6.33
8.49
10.72
13.33
15.97
18.14
19.66
20.86
22.41
24.87
28.46
32.89
37.62
42.06
45.73
48.27
49.28
48.34
45.02
39.08
30.66
20.30
8.89
-2.46
-12.71
-20.99
-26.84
-30.20
-31.45
-31.22
-30.20
-28.93
-27.68
-26.48
-25.23
-23.89
-22.48
-21.09
-19.92
-19.18
-19.19
-20.27
-22.72
-26.58
-31.61
-37.30
-43.00
-48.12
-52.24
-55.14
-56.74
-57.03
-56.05
-53.85
-50.58
-46.49
-41.99
-37.56
-33.68
-30.70
-28.75
-27.63
-26.93
-26.14
-24.85
-22.86
-20.18
-17.01
-13.55
-10.03
-6.60
-3.43
-0.65
1.68
3.62
5.32
6.90
8.44
9.85
10.96
11.63
11.77
11.43
10.78
10.02
9.37
8.98
8.90
9.05
9.22
9.21
8.80
7.90
6.47
4.56
2.25
-0.22
-2.51
-4.17
-4.81
-4.26
-2.73
-0.70
1.29
2.86
3.98
4.90
6.01
7.61
9.77
12.41
15.37
18.48
21.60
24.54
27.00
28.58
28.88
27.67
24.95
21.04
16.48
11.88
7.72
4.14
0.83
-2.85
-7.66
-13.96
-21.40
-28.77
-34.43
-36.92
-35.70
-31.41
-25.67
-20.42
-17.15
-16.53
-18.42
-22.19
-27.02
-31.93
-35.80
-37.45
-35.95
-31.05
-23.55
-15.05
-7.37
-1.71
1.85
4.28
7.02
11.14
16.81
23.30
29.42
34.14
36.99
38.09
37.85
36.56
34.29
30.89
26.25
20.42
13.72
6.58
-0.52
-7.16
-12.92
-17.40
-20.21
-21.18
-20.34
-18.05
-14.83
-11.23
-7.74
-4.69
-2.29
-0.62
0.30
0.57
0.36
-0.11
-0.58
-0.81
-0.53
0.55
2.73
6.21
10.98
16.78
23.12
29.46
35.33
40.51
45.07
49.32
53.59
58.08
62.63
66.72
69.56
70.23
67.99
62.36
53.24
41.09
26.92
12.34
-0.72
-10.52
-16.12
-17.77
-16.85
-15.22
-14.43
-15.07
-16.73
-18.56
-19.94
-20.95
-22.25
-24.65
-28.53
-33.64
-39.28
-44.79
-49.88
-54.68
-59.61
-65.13
-71.57
-78.99
-87.20
-95.79
-104.21
-111.74
-117.60
-120.90
-120.65
-115.87
-105.70
-89.68
-68.05
-41.97
-13.53
14.46
39.09
58.02
70.13
75.75
76.50
74.61
72.10
70.16
68.90
67.57
65.26
61.51
56.52
51.04
45.89
41.48
37.59
33.55
28.61
22.36
14.99
7.11
-0.41
-6.89
-11.98
-15.73
-18.45
-20.50
-22.13
-23.45
-24.50
-25.22
-25.56
-25.43
-24.72
-23.31
-21.11
-18.14
-14.54
-10.51
-6.31
-2.11
2.01
6.08
10.15
14.20
18.09
21.60
24.47
26.56
27.90
28.70
29.29
29.91
30.70
31.61
32.47
33.15
33.57
33.76
33.79
33.67
33.29
32.47
31.07
29.10
26.74
24.34
22.26
20.74
19.80
19.30
19.01
18.73
18.32
17.75
17.05
16.26
15.47
14.83
14.56
14.89
15.99
17.88
20.40
23.26
26.15
28.88
31.45
33.99
36.63
39.33
41.86
43.74
44.43
43.49
40.70
36.13
30.17
23.51
17.08
11.94
9.08
9.17
12.25
17.64
23.98
29.58
32.97
33.46
31.44
28.20
25.43
24.48
25.86
29.12
33.17
36.91
39.72
41.58
42.89
44.03
45.06
45.58
45.04
42.94
39.06
33.40
26.21
17.89
8.98
0.20
-7.71
-14.23
-19.31
-23.56
-27.96
-33.43
-40.25
-47.78
-54.52
-58.62
-58.58
-53.96
-45.68
-35.83
-27.10
-21.81
-21.23
-25.10
-32.00
-39.96
-47.30
-53.15
-57.45
-60.56
-62.76
-64.00
-63.97
-62.45
-59.65
-56.17
-52.81
-50.09
-48.08
-46.36
-44.37
-41.77
-38.63
-35.44
-32.80
-31.07
-30.18
-29.70
-29.07
-27.88
-26.11
-24.03
-22.02
-20.38
-19.08
-17.90
-16.50
-14.61
-12.16
-9.28
-6.21
-3.23
-0.58
1.60
3.24
4.35
5.00
5.30
5.35
5.22
4.90
4.38
3.65
2.78
1.88
1.08
0.39
-0.23
-0.95
-1.87
-3.01
-4.32
-5.65
-6.91
-8.03
-8.98
-9.76
-10.32
-10.66
-10.84
-11.01
-11.40
-12.18
-13.38
-14.89
-16.49
-17.95
-19.11
-19.99
-20.69
-21.32
-21.93
-22.41
-22.49
-21.88
-20.31
-17.73
-14.31
-10.44
-6.57
-3.08
-0.10
2.51
5.05
7.79
10.81
13.92
16.80
19.13
20.84
22.08
23.20
24.55
26.34
28.48
30.63
32.33
33.15
32.98
32.05
30.93
30.27
30.57
31.87
33.76
35.44
36.08
35.05
32.05
27.12
20.50
12.58
3.89
-4.89
-13.03
-19.89
-25.16
-28.90
-31.48
-33.33
-34.80
-36.07
-37.22
-38.41
-39.84
-41.60
-43.47
-44.77
-44.49
-41.59
-35.28
-25.36
-12.57
1.17
12.66
18.09
14.26
0.12
-22.48
-49.23
-75.06
-96.23
-111.57
-122.26
-130.12
-135.64
-137.04
-130.90
-114.18
-86.17
-49.46
-9.13
29.07
60.73
83.75
98.34
105.99
108.36
106.58
101.23
92.81
82.16
70.72
60.14
51.73
45.99
42.46
39.95
37.12
32.94
27.09
20.03
12.81
6.63
2.42
0.40
0.02
0.27
0.12
-0.96
-2.82
-4.82
-6.28
-6.84
-6.58
-5.94
-5.46
-5.63
-7.01
-10.16
-15.58
-23.31
-32.68
-42.22
-50.06
-54.72
-55.74
-54.08
-51.72
-50.84
-52.64
-56.78
-61.37
-63.82
-61.98
-55.08
-43.98
-30.72
-17.43
-5.51
4.83
14.15
23.06
31.54
38.87
43.96
46.19
45.72
43.61
41.27
39.90
39.96
41.14
42.70
43.90
44.38
44.31
44.17
44.54
45.88
48.32
51.54
54.86
57.39
58.37
57.48
55.02
51.85
48.99
47.06
45.98
45.03
43.52
41.46
40.05
41.28
47.19
58.96
76.20
97.07
118.87
138.86
154.97
166.05
171.48
171.05
164.94
153.94
139.44
123.21
106.76
90.36
72.48
49.60
18.08
-23.17
-70.89
-117.67
-154.49
-174.50
-176.07
-163.19
-144.30
-127.92
-119.04
-117.80
-120.86
-124.39
-126.21
-126.48
-126.04
-126.00
-126.07
-124.52
-119.50
-110.80
-100.86
-93.77
-93.44
-96.02
-96.08
-88.79
-72.90
-51.26
-28.98
-11.71
-3.34
-6.79
-19.40
-36.78
-53.58
-63.83
-62.10
-45.20
-14.16
28.51
74.92
114.98
138.20
137.30
112.26
71.08
26.88
-7.47
-22.91
-16.75
8.18
46.74
88.32
121.35
139.17
145.64
145.58
141.56
133.89
120.70
101.38
75.86
45.80
14.73
-12.76
-32.68
-41.69
-38.23
-23.12
0.24
26.25
49.51
66.43
75.59
76.84
71.56
62.29
52.23
44.85
42.70
47.16
57.64
71.22
82.87
87.74
82.94
68.48
46.78
20.95
-6.43
-33.96
-61.17
-87.79
-112.89
-135.09
-153.67
-169.27
-183.86
-199.16
-215.23
-230.02
-240.68
-245.40
-245.07
-243.20
-243.99
-249.91
-260.09
-270.71
-276.83
-274.64
-262.52
-240.63
-209.70
-170.54
-124.36
-73.47
-21.34
28.22
72.11
108.54
136.66
155.72
164.86
163.94
154.88
142.34
132.61
131.06
139.52
155.47
173.44
188.05
196.60
199.76
200.22
200.51
201.58
202.85
203.30
202.66
201.76
202.12
204.82
209.89
216.35
222.86
228.45
232.82
236.09
238.33
239.15
237.64
232.82
223.93
210.66
192.97
171.04
145.40
117.27
88.67
62.08
39.46
21.30
6.04
-9.41
-28.52
-53.62
-84.95
-120.49
-156.66
-189.27
-214.50
-229.45
-232.49
-223.51
-203.93
-176.66
-145.54
-114.56
-87.00
-64.81
-48.49
-37.22
-29.33
-22.99
-16.96
-11.28
-7.75
-9.83
-21.74
-46.72
-85.14
-133.15
-182.95
-224.85
-250.55
-256.13
-243.50
-219.43
-192.76
-171.06
-158.26
-154.12
-155.38
-157.82
-157.92
-153.75
-144.93
-132.00
-116.05
-98.44
-80.73
-64.58
-51.43
-42.09
-36.31
-32.66
-29.01
-23.21
-14.09
-2.00
11.12
22.43
29.21
29.92
24.69
15.24
4.12
-6.16
-13.81
-18.13
-19.38
-18.50
-16.67
-15.01
-14.30
-14.86
-16.38
-18.10
-19.00
-18.19
-15.24
-10.38
-4.44
1.50
6.42
9.81
11.79
13.04
14.67
17.78
23.19
31.20
41.45
52.94
64.29
74.01
80.86
84.17
83.95
80.81
75.69
69.60
63.36
57.55
52.61
48.86
46.51
45.61
45.91
46.82
47.58
47.50
46.22
43.77
40.50
36.78
32.74
28.21
22.78
16.09
8.05
-0.99
-10.27
-18.85
-25.85
-30.75
-33.46
-34.30
-33.75
-32.33
-30.43
-28.32
-26.31
-24.82
-24.31
-25.07
-27.00
-29.47
-31.58
-32.55
-32.13
-30.71
-29.08
-27.92
-27.37
-26.98
-25.96
-23.66
-19.97
-15.44
-11.05
-7.91
-7.07
-9.39
-15.43
-25.23
-37.89
-51.14
-61.48
-64.93
-58.34
-40.82
-14.43
16.35
46.14
70.67
88.04
98.92
105.44
109.58
112.09
112.33
109.07
101.76
91.35
80.16
71.09
66.35
66.54
70.59
76.14
80.32
80.32
73.75
59.07
36.13
6.78
-25.04
-54.02
-75.25
-86.12
-87.55
-83.48
-78.81
-76.89
-77.96
-79.42
-77.80
-71.09
-59.98
-47.56
-37.51
-32.13
-31.25
-32.66
-33.48
-31.84
-27.69
-22.50
-18.11
-15.47
-13.93
-11.52
-6.02
3.72
16.91
30.86
41.91
46.94
44.57
35.70
23.13
10.34
0.33
-5.41
-7.10
-6.38
-5.78
-8.27
-16.82
-33.58
-58.84
-90.03
-121.41
-145.18
-153.63
-141.93
-110.00
-62.79
-8.53
44.03
88.37
121.55
143.97
157.87
165.57
168.31
165.95
157.59
142.48
120.87
94.45
66.05
39.02
16.33
0.06
-8.84
-10.45
-5.61
4.38
17.91
33.21
48.38
61.58
71.17
76.02
75.65
70.37
61.12
49.20
35.73
21.20
5.43
-12.02
-31.11
-50.46
-67.37
-78.59
-81.61
-75.83
-62.93
-46.16
-29.00
-13.79
-1.04
10.08
20.74
31.63
42.70
53.58
64.06
74.20
84.10
93.54
101.59
106.69
107.11
101.49
89.05
69.38
42.02
6.72
-35.16
-80.67
-125.45
-164.91
-195.73
-217.30
-231.65
-242.43
-252.74
-262.23
-268.42
-268.38
-260.74
-246.36
-228.13
-209.03
-191.08
-174.41
-155.81
-132.54
-104.27
-73.38
-42.93
-14.87
12.19
41.70
77.84
125.64
185.74
253.06
317.91
369.95
401.57
410.84
399.92
360.11
291.33
203.71
114.53
38.44
-15.39
-49.40
-65.04
-63.36
-46.49
-15.74
23.76
63.36
92.84
105.52
100.59
82.85
58.30
32.35
12.89
1.58
-2.59
-2.81
-2.93
-6.18
-13.73
-26.02
-41.96
-58.33
-71.73
-79.59
-81.85
-80.49
-77.85
-74.67
-70.55
-64.27
-54.63
-42.72
-31.16
-23.20
-21.17
-25.64
-35.77
-50.06
-66.40
-80.91
-89.68
-89.20
-77.54
-55.45
-26.34
5.23
31.13
46.78
52.63
52.72
51.86
52.40
52.76
48.61
35.26
11.02
-20.42
-51.73
-75.47
-87.33
-87.46
-80.53
-69.85
-57.28
-42.45
-23.46
0.47
27.43
53.01
72.87
85.03
90.89
93.42
95.62
99.47
104.67
109.03
109.18
103.08
91.02
75.58
59.57
45.73
36.43
33.05
35.66
42.32
49.76
54.78
54.47
45.16
24.03
-9.94
-55.86
-110.94
-171.77
-232.36
-284.79
-320.85
-336.14
-330.40
-307.08
-272.10
-224.39
-168.85
-112.36
-62.64
-16.52
28.84
71.91
107.67
130.61
137.78
129.28
110.53
90.32
77.75
76.90
86.59
102.02
117.36
128.83
134.87
137.26
139.29
143.95
150.81
156.90
158.79
154.30
144.16
129.86
112.84
93.23
70.79
45.14
17.52
-8.56
-29.22
-41.70
-47.61
-51.82
-58.86
-67.51
-70.86
-59.89
-29.18
18.61
74.35
125.20
160.43
169.76
151.14
111.86
63.52
17.62
-27.36
-72.62
-114.63
-143.80
-150.39
-129.73
-86.93
-36.92
1.54
12.81
-8.06
-55.30
-116.00
-175.17
-219.11
-238.83
-231.20
-197.01
-141.60
-72.74
-1.43
59.23
97.91
109.49
96.07
64.77
25.95
-12.73
-45.53
-68.53
-82.81
-93.16
-102.55
-108.82
-109.20
-94.79
-60.39
-6.34
61.09
131.74
195.53
243.78
270.91
268.09
235.26
181.46
120.93
63.66
10.92
-41.75
-93.14
-137.16
-167.31
-174.32
-155.87
-117.01
-63.35
-9.40
29.23
45.31
43.05
33.68
28.89
31.53
38.08
42.74
40.72
32.35
23.21
19.24
24.02
38.11
57.50
75.44
84.35
77.84
54.63
19.57
-18.60
-50.74
-70.29
-76.01
-71.10
-61.24
-51.82
-44.92
-39.16
-32.16
-22.98
-13.04
-5.49
-2.93
-5.95
-12.81
-19.99
-23.76
-22.13
-15.58
-6.77
0.67
3.72
0.97
-6.93
-17.36
-26.72
-31.75
-30.70
-23.70
-12.23
1.80
16.82
31.65
45.01
55.05
59.60
57.01
47.23
32.19
15.12
-0.70
-13.21
-21.92
-27.34
-30.22
-30.86
-29.20
-25.21
-19.13
-11.37
-2.24
8.21
19.89
32.09
42.96
49.64
48.77
37.35
13.67
-21.83
-65.93
-112.60
-153.99
-182.31
-192.14
-182.16
-155.35
-117.53
-75.06
-32.93
5.83
39.34
65.64
82.04
85.82
75.68
53.10
22.75
-8.62
-34.04
-48.27
-48.90
-36.59
-14.37
13.66
43.52
72.29
98.43
121.62
142.22
160.63
176.95
190.82
201.41
207.68
208.51
203.11
191.27
173.62
151.53
126.81
101.17
75.91
51.89
29.78
10.40
-5.32
-16.68
-23.87
-28.42
-32.99
-40.64
-53.63
-72.58
-96.17
-121.59
-145.37
-164.32
-176.12
-179.44
-173.97
-160.27
-139.78
-114.80
-88.29
-63.35
-42.66
-27.79
-19.02
-15.46
-15.49
-17.33
-19.39
-20.56
-20.21
-18.21
-14.94
-11.13
-7.68
-5.40
-4.70
-5.46
-7.02
-8.39
-8.55
-6.71
-2.68
3.16
9.83
16.07
20.69
22.89
22.47
19.72
15.28
9.79
3.74
-2.58
-8.96
-15.09
-20.51
-24.72
-27.41
-28.55
-28.51
-27.78
-26.73
-25.38
-23.41
-20.47
-16.53
-12.14
-8.40
-6.60
-7.67
-11.77
-18.29
-26.01
-33.62
-40.06
-44.77
-47.62
-48.72
-48.26
-46.39
-43.28
-39.17
-34.43
-29.59
-25.17
-21.67
-19.42
-18.45
-18.47
-18.82
-18.65
-17.21
-14.17
-9.85
-5.13
-1.26
0.72
0.28
-2.40
-6.54
-11.15
-15.31
-18.32
-19.71
-19.11
-16.15
-10.56
-2.34
8.02
19.52
30.87
40.82
48.59
54.15
58.25
62.11
67.04
74.02
83.34
94.29
105.10
113.13
115.46
109.77
95.26
73.20
46.74
20.04
-2.96
-19.62
-29.18
-32.50
-31.47
-28.21
-24.56
-21.76
-20.44
-20.70
-22.25
-24.57
-27.13
-29.48
-31.35
-32.51
-32.76
-31.87
-29.75
-26.52
-22.54
-18.32
-14.24
-10.47
-7.00
-3.75
-0.77
1.80
3.78
5.06
5.65
5.67
5.20
4.25
2.77
0.76
-1.68
-4.37
-7.06
-9.49
-11.35
-12.55
-13.34
-14.58
-17.67
-24.06
-34.54
-48.58
-64.17
-78.22
-87.55
-89.77
-83.87
-70.35
-50.86
-27.81
-4.00
17.76
35.15
46.76
52.59
54.06
53.51
53.54
56.17
62.55
72.82
86.40
102.13
118.35
132.92
143.41
147.57
143.95
132.57
115.01
94.02
72.58
52.81
35.44
19.88
4.87
-10.63
-26.85
-43.15
-58.41
-71.48
-81.50
-87.93
-90.41
-88.63
-82.44
-72.13
-58.68
-43.78
-29.50
-17.61
-9.02
-3.49
0.19
3.61
7.95
13.56
19.78
25.36
29.12
30.58
30.32
30.04
32.15
38.99
52.01
70.85
93.04
114.32
129.84
135.92
131.70
119.90
106.07
96.76
96.82
107.17
124.10
140.02
145.72
133.25
98.63
43.61
-23.83
-90.86
-142.91
-168.12
-161.63
-127.92
-79.73
-33.54
-3.17
5.47
-4.02
-21.15
-34.01
-34.80
-22.50
-2.10
18.87
33.99
40.15
37.44
27.85
13.65
-3.45
-22.00
-40.34
-56.36
-67.84
-73.32
-73.01
-69.12
-65.36
-65.70
-72.78
-86.82
-105.30
-123.77
-137.14
-141.24
-134.07
-116.44
-92.11
-67.07
-48.24
-41.44
-49.44
-70.77
-99.95
-129.47
-152.38
-164.68
-166.30
-160.40
-151.79
-145.37
-145.03
-153.22
-170.43
-194.71
-221.40
-243.69
-254.29
-247.54
-221.18
-176.80
-119.28
-55.72
5.54
55.73
87.06
95.15
81.39
53.65
24.08
4.25
0.29
10.71
28.43
45.69
58.74
69.24
81.70
98.97
119.26
136.61
144.71
141.23
129.76
118.10
114.03
121.30
137.93
157.62
173.03
179.00
174.14
160.54
142.04
122.28
103.71
87.54
74.32
64.60
58.96
57.56
59.49
62.60
64.00
61.23
53.46
42.06
30.25
21.88
19.97
25.47
36.97
51.22
64.24
72.71
74.75
70.13
59.61
44.00
23.47
-2.44
-34.04
-70.20
-107.60
-140.93
-164.22
-172.86
-165.18
-143.15
-111.56
-76.54
-43.95
-18.11
-1.36
5.89
4.80
-2.54
-13.78
-26.95
-40.85
-54.82
-68.15
-79.49
-86.61
-86.97
-78.95
-62.84
-41.14
-17.87
2.92
18.44
27.93
32.47
34.20
35.35
37.58
41.68
47.62
54.81
62.23
68.77
73.45
75.80
76.02
75.04
74.28
75.17
78.81
85.46
94.38
103.87
111.68
115.62
114.16
106.79
94.16
77.71
59.24
40.25
21.34
1.95
-19.53
-44.78
-74.41
-106.88
-138.42
-164.36
-181.41
-189.67
-192.95
-196.86
-205.61
-219.17
-232.76
-238.90
-230.93
-205.82
-164.99
-113.10
-55.94
1.25
54.09
98.70
131.35
148.82
149.65
135.11
109.61
79.79
52.80
34.44
27.58
31.74
43.49
58.03
70.93
79.65
84.08
86.01
87.79
91.04
96.03
101.80
106.94
110.19
110.87
108.91
104.60
98.29
90.31
81.03
70.89
60.53
50.72
42.21
35.53
30.78
27.64
25.48
23.66
21.79
19.79
17.87
16.26
14.99
13.77
12.12
9.55
5.84
1.17
-3.93
-8.75
-12.71
-15.59
-17.50
-18.86
-20.11
-21.56
-23.35
-25.39
-27.54
-29.60
-31.38
-32.67
-33.22
-32.75
-31.05
-28.03
-23.73
-18.34
-12.18
-5.62
0.93
7.08
12.51
17.02
20.60
23.34
25.46
27.17
28.63
29.97
31.19
32.24
33.05
33.59
33.95
34.39
35.27
36.95
39.56
42.90
46.38
49.22
50.75
50.69
49.23
46.92
44.32
41.65
38.66
34.64
28.76
20.53
10.27
-0.64
-9.85
-14.66
-13.14
-5.33
6.22
17.09
22.82
21.26
14.06
6.41
4.84
14.42
36.67
68.87
105.33
139.26
164.41
176.18
172.29
153.41
123.57
89.56
58.94
37.20
25.17
18.34
8.69
-11.31
-44.52
-86.79
-127.95
-155.95
-162.08
-144.87
-110.81
-71.58
-39.34
-22.39
-22.95
-37.71
-60.20
-83.41
-102.10
-113.41
-116.69
-113.13
-105.34
-96.80
-90.98
-90.37
-95.61
-105.56
-117.48
-127.52
-131.28
-124.79
-106.23
-77.56
-45.23
-18.53
-6.13
-11.91
-32.68
-59.30
-81.06
-91.05
-89.23
-81.41
-74.65
-72.41
-72.47
-69.05
-57.47
-38.13
-17.11
-2.91
-1.60
-13.13
-30.92
-44.73
-45.22
-27.77
6.24
50.63
97.20
138.46
169.36
187.80
194.23
190.69
179.98
165.14
148.96
133.66
120.28
108.10
94.44
75.30
46.70
6.48
-44.18
-100.18
-153.32
-194.39
-215.81
-214.23
-192.06
-156.96
-119.32
-88.55
-69.78
-62.40
-61.31
-60.02
-54.07
-42.81
-29.03
-16.81
-9.06
-6.15
-6.28
-6.83
-5.91
-3.11
0.87
4.99
8.68
12.12
15.93
20.69
26.44
32.58
38.08
41.96
43.80
43.92
43.30
43.09
44.08
46.28
49.04
51.42
52.67
52.60
51.62
50.48
50.01
50.80
53.17
57.08
62.14
67.70
73.01
77.47
80.79
82.99
84.14
84.17
82.84
79.92
75.51
70.16
64.74
60.02
56.19
52.69
48.37
41.82
32.01
18.78
3.20
-12.47
-25.22
-32.33
-32.46
-26.30
-16.52
-6.68
0.23
2.93
2.14
-0.19
-2.07
-2.55
-2.00
-1.69
-3.04
-6.89
-13.19
-21.08
-29.20
-36.09
-40.55
-41.94
-40.24
-36.13
-30.76
-25.47
-21.41
-19.26
-18.94
-19.72
-20.43
-20.01
-17.88
-14.26
-10.13
-6.79
-5.36
-6.32
-9.27
-13.12
-16.54
-18.47
-18.45
-16.76
-14.21
-11.77
-10.30
-10.26
-11.67
-14.11
-16.88
-19.17
-20.31
-19.96
-18.25
-15.69
-12.96
-10.66
-9.06
-8.20
-7.97
-8.25
-8.92
-9.75
-10.26
-9.82
-7.87
-4.28
0.44
5.24
9.00
10.93
10.91
9.46
7.43
5.60
4.36
3.67
3.17
2.45
1.27
-0.34
-2.12
-3.77
-5.03
-5.73
-5.86
-5.40
-4.31
-2.57
-0.24
2.46
5.08
7.12
8.16
7.98
6.70
4.64
2.21
-0.18
-2.25
-3.89
-5.20
-6.41
-7.86
-9.79
-12.30
-15.17
-17.95
-20.08
-21.07
-20.70
-19.06
-16.49
-13.51
-10.60
-8.11
-6.23
-4.98
-4.27
-3.96
-3.94
-4.14
-4.58
-5.31
-6.42
-7.96
-9.87
-12.03
-14.24
-16.30
-18.11
-19.70
-21.25
-22.92
-24.86
-27.03
-29.34
-31.57
-33.52
-34.89
-35.34
-34.44
-31.85
-27.36
-21.00
-13.08
-4.06
5.55
15.29
24.71
33.42
41.00
47.07
51.41
54.10
55.62
56.65
57.86
59.47
60.99
61.24
58.82
52.77
43.20
31.41
19.53
9.68
3.14
0.02
-0.58
0.07
0.95
1.61
2.09
2.60
3.23
3.87
4.31
4.44
4.36
4.29
4.38
4.57
4.48
3.46
0.75
-4.19
-11.42
-20.46
-30.43
-40.43
-49.82
-58.37
-65.94
-72.25
-76.67
-78.38
-76.83
-72.19
-65.51
-58.45
-52.61
-48.79
-46.75
-45.35
-43.11
-38.80
-31.87
-22.55
-11.79
-0.81
9.36
18.09
25.19
30.80
35.26
38.84
41.65
43.63
44.74
45.57
46.85
49.08
52.17
55.56
58.39
59.94
59.73
57.87
55.78
54.82
55.42
56.67
56.94
54.97
50.59
44.77
39.27
37.16
40.37
48.60
59.40
69.58
76.94
80.96
82.45
83.26
87.32
98.04
117.11
143.68
174.96
207.16
236.28
258.39
257.92
225.14
161.25
79.37
-3.49
-74.82
-128.45
-162.42
-179.21
-180.67
-167.48
-142.55
-111.64
-82.34
-61.01
-51.78
-54.86
-67.49
-85.21
-102.42
-114.85
-120.40
-119.31
-113.31
-104.54
-94.99
-86.49
-80.38
-76.60
-74.40
-72.61
-70.28
-66.79
-62.00
-56.30
-50.76
-46.59
-44.39
-44.18
-45.44
-47.50
-49.68
-51.30
-51.54
-49.64
-45.05
-37.70
-28.33
-18.43
-9.73
-3.48
0.16
2.23
4.41
8.25
14.41
22.50
31.32
39.46
45.87
50.18
52.67
53.96
54.64
55.01
55.09
54.78
54.05
53.17
52.67
53.22
55.43
59.66
65.82
73.34
81.11
87.85
92.44
94.10
92.45
87.54
79.77
69.87
59.00
48.59
40.51
36.67
38.41
45.74
57.09
69.56
79.73
84.55
82.06
72.30
57.40
40.97
26.76
17.45
13.77
14.44
16.57
15.66
7.94
-8.57
-33.78
-65.79
-100.79
-133.23
-156.87
-166.96
-164.34
-154.06
-144.33
-144.11
-160.12
-193.38
-237.31
-278.97
-304.12
-305.48
-282.29
-239.92
-187.71
-136.34
-94.97
-69.43
-62.10
-73.75
-107.19
-160.82
-226.41
-290.24
-338.01
-359.83
-352.96
-321.75
-252.82
-151.24
-38.03
61.34
132.47
175.80
199.52
210.62
216.65
220.70
219.74
211.92
198.76
184.03
171.62
162.74
156.78
152.79
149.56
143.78
134.37
122.97
112.64
105.51
101.78
100.47
100.69
101.72
101.83
100.66
99.29
99.06
100.01
100.52
98.23
91.53
80.00
64.07
45.81
28.23
14.08
4.72
-0.15
-1.74
-1.21
0.54
2.64
4.49
5.69
6.12
5.91
5.47
5.25
5.28
4.75
2.30
-3.27
-12.21
-23.40
-34.87
-44.72
-52.18
-57.71
-62.45
-67.07
-70.88
-71.79
-67.25
-55.74
-38.13
-18.08
-1.22
6.88
2.95
-12.51
-35.25
-58.88
-77.37
-87.09
-87.57
-80.73
-69.21
-54.96
-38.81
-21.08
-2.60
14.81
28.74
37.20
39.59
37.03
31.88
26.65
23.08
21.63
21.65
22.02
21.72
20.26
17.84
15.06
12.65
11.12
10.57
10.69
10.96
10.88
10.29
9.42
8.73
8.63
9.22
10.08
10.48
9.63
7.09
2.97
-2.02
-6.83
-10.45
-12.25
-12.19
-10.70
-8.53
-6.41
-4.87
-4.12
-4.08
-4.50
-5.09
-5.70
-6.39
-7.39
-9.02
-11.48
-14.75
-18.46
-22.08
-25.07
-27.10
-28.06
-28.00
-26.97
-24.99
-22.09
-18.40
-14.24
-10.06
-6.37
-3.56
-1.80
-1.04
-1.15
-1.99
-3.33
-4.93
-6.57
-8.17
-9.75
-11.29
-12.74
-14.03
-15.09
-15.74
-15.89
-15.84
-16.36
-18.33
-22.25
-27.91
-34.45
-40.67
-45.03
-46.19
-43.59
-37.68
-29.49
-20.03
-9.92
0.42
10.61
20.72
31.22
42.75
55.85
70.95
88.19
106.91
124.89
135.60
132.09
111.81
79.38
43.82
13.39
-7.61
-18.76
-22.61
-22.79
-21.97
-21.38
-21.72
-24.27
-30.67
-41.57
-54.85
-66.75
-71.54
-64.36
-43.64
-12.46
22.17
52.22
70.61
75.09
68.80
57.30
45.55
36.22
29.70
25.17
22.03
20.52
21.54
25.32
30.68
35.24
36.34
32.35
23.46
12.06
0.87
-7.39
-11.70
-13.12
-14.05
-16.57
-21.15
-26.40
-30.00
-30.14
-26.44
-20.42
-14.60
-11.25
-11.16
-13.50
-16.37
-18.04
-17.66
-15.44
-12.33
-9.45
-7.55
-6.84
-7.32
-9.36
-14.16
-23.29
-37.96
-58.37
-83.25
-110.20
-136.49
-160.02
-179.77
-195.42
-206.42
-211.48
-208.61
-195.78
-172.18
-138.96
-99.28
-57.40
-17.15
19.87
54.26
88.49
125.48
166.80
211.66
256.82
297.45
328.80
347.92
352.94
343.06
318.33
280.10
232.16
181.18
135.37
102.02
85.30
83.49
90.32
97.84
99.87
94.08
81.73
65.28
42.11
11.97
-23.64
-61.09
-95.13
-120.50
-133.41
-131.18
-114.32
-87.25
-54.89
-25.08
-4.56
3.70
1.36
-6.59
-14.08
-16.26
-12.19
-5.24
0.26
3.39
6.61
12.98
23.36
35.77
45.08
48.93
47.30
42.46
37.89
36.09
37.15
38.74
36.87
26.63
7.88
-19.14
-51.77
-84.32
-109.19
-118.95
-109.24
-81.06
-41.38
-0.83
29.72
44.07
42.46
30.15
13.81
-1.80
-15.18
-27.34
-39.57
-52.75
-66.44
-79.90
-92.80
-105.11
-116.49
-125.61
-130.23
-127.88
-117.38
-99.29
-76.45
-53.15
-33.98
-22.67
-21.01
-28.17
-40.64
-53.53
-62.09
-63.98
-58.00
-43.39
-19.59
12.85
51.21
90.23
122.86
142.50
143.74
126.75
97.41
64.13
33.60
8.58
-11.65
-29.41
-46.86
-68.27
-95.45
-127.19
-160.59
-192.96
-222.29
-246.93
-265.70
-278.39
-289.73
-302.86
-316.81
-327.63
-331.52
-326.69
-313.47
-293.70
-245.58
-165.50
-69.20
20.31
89.15
135.82
165.06
182.58
193.09
199.75
201.31
196.57
186.95
175.16
163.11
151.38
140.48
131.84
127.53
126.70
127.52
130.03
133.91
136.95
135.58
126.83
109.91
86.42
57.73
26.53
-3.12
-27.48
-44.62
-54.46
-58.11
-56.71
-51.25
-43.21
-32.96
-18.86
1.99
32.11
71.81
117.59
162.17
195.06
205.36
186.40
139.35
73.25
1.95
-60.91
-106.23
-130.06
-134.30
-124.26
-106.03
-84.68
-64.11
-47.49
-37.26
-33.88
-32.94
-27.91
-12.19
17.95
61.76
113.81
165.57
208.37
236.57
251.48
257.01
257.77
256.58
254.65
252.15
248.69
243.50
221.82
177.34
114.20
45.86
-15.12
-62.45
-95.13
-114.96
-125.18
-129.53
-129.27
-128.43
-130.07
-137.55
-153.08
-176.49
-205.01
-233.79
-257.06
-259.36
-235.65
-190.48
-135.69
-84.23
-44.96
-20.67
-9.09
-5.65
-4.77
-4.57
-4.60
-4.91
-4.74
-2.28
4.38
16.57
33.31
52.19
67.81
74.74
69.42
52.35
28.67
6.32
-7.30
-8.83
-0.25
11.37
18.47
16.86
7.74
-3.66
-11.35
-11.87
-6.12
2.27
8.29
8.65
3.28
-4.78
-11.27
-13.13
-9.58
-1.88
7.94
17.97
27.14
34.71
40.06
41.02
34.08
16.40
-11.75
-45.84
-78.56
-102.97
-115.81
-117.48
-113.36
-111.44
-118.17
-134.80
-156.62
-175.78
-185.06
-180.83
-161.34
-128.96
-89.29
-48.51
-10.44
24.37
57.32
90.29
125.26
167.58
220.93
284.55
352.57
416.06
465.78
494.33
498.21
458.09
371.74
256.90
142.05
48.26
-18.62
-62.90
-91.28
-109.07
-119.67
-122.20
-117.35
-108.89
-102.14
-100.56
-104.26
-111.03
-119.06
-126.64
-129.92
-126.61
-116.52
-101.03
-81.58
-59.09
-34.73
-10.77
8.73
22.32
28.39
24.34
7.32
-23.23
-64.02
-108.31
-148.20
-179.19
-198.00
-205.63
-206.52
-205.93
-207.16
-210.25
-212.65
-210.94
-202.38
-184.68
-157.75
-123.54
-85.42
-47.10
-11.71
18.96
44.95
64.33
77.41
85.41
89.78
91.86
92.72
93.33
94.60
97.10
100.68
105.15
109.66
113.20
115.39
116.78
118.63
122.09
127.32
133.01
137.06
136.80
130.13
116.39
96.81
73.98
50.94
29.98
12.00
-3.10
-16.13
-27.77
-38.05
-46.34
-51.89
-54.30
-53.93
-51.63
-48.18
-44.01
-38.98
-32.63
-24.51
-14.62
-3.55
7.62
17.76
26.13
32.54
37.28
40.84
43.59
45.61
46.79
47.04
46.40
45.09
43.32
41.09
38.21
34.42
29.55
23.77
17.57
11.64
6.66
3.12
1.22
0.90
1.81
3.49
5.43
7.19
8.52
9.34
9.72
9.77
9.56
9.14
8.53
7.81
7.11
6.58
6.31
6.35
6.67
7.16
7.75
8.30
8.73
8.93
8.84
8.37
7.45
6.04
4.16
1.93
-0.41
-2.61
-4.45
-5.84
-6.91
-7.91
-9.21
-11.09
-13.71
-17.05
-20.98
-25.26
-29.63
-33.90
-37.91
-41.58
-44.89
-47.71
-49.84
-50.97
-50.75
-48.97
-45.65
-41.06
-35.62
-29.75
-23.70
-17.54
-11.31
-5.14
0.63
5.56
9.28
11.71
13.17
14.17
15.22
16.51
17.91
19.06
19.67
19.72
19.43
19.18
19.19
19.48
19.84
20.06
20.03
19.85
19.68
19.58
19.38
18.73
17.28
14.89
11.76
8.35
5.16
2.54
0.50
-1.12
-2.53
-3.84
-5.04
-6.07
-6.93
-7.74
-8.64
-9.63
-10.52
-10.97
-10.69
-9.69
-8.22
-6.68
-5.41
-4.55
-3.99
-3.52
-2.98
-2.25
-1.34
-0.24
1.02
2.39
3.68
4.63
4.97
4.57
3.46
1.76
-0.38
-2.83
-5.43
-7.91
-9.81
-10.65
-10.10
-8.13
-5.12
-1.67
1.59
4.25
6.19
7.58
8.75
9.99
11.45
13.01
14.38
15.09
14.74
13.13
10.37
6.86
3.15
-0.27
-3.25
-5.99
-9.03
-13.00
-18.34
-25.09
-32.84
-40.86
-48.25
-54.22
-58.14
-59.45
-57.45
-51.22
-39.58
-21.44
3.74
35.47
71.87
109.93
146.09
177.14
201.01
217.37
227.48
233.73
238.72
244.23
250.42
255.61
256.63
249.81
232.28
203.00
163.32
116.68
67.67
20.79
-20.63
-54.96
-82.15
-103.13
-119.15
-131.34
-140.57
-147.66
-153.44
-158.79
-164.22
-169.62
-174.14
-176.43
-175.33
-170.35
-161.95
-151.34
-139.99
-129.09
-119.20
-110.22
-101.49
-91.96
-80.43
-66.06
-49.02
-31.28
-16.67
-10.10
-16.13
-37.32
-73.13
-119.67
-170.28
-216.83
-251.53
-268.73
-266.46
-247.17
-217.14
-184.63
-157.11
-138.53
-128.24
-121.71
-112.99
-97.43
-73.30
-41.86
-6.28
29.73
62.61
89.24
107.10
114.78
112.61
103.07
90.32
78.80
71.73
70.19
73.17
78.64
84.54
89.47
92.58
93.44
91.99
88.76
85.07
82.83
83.87
88.83
96.56
104.27
108.66
107.37
99.76
86.84
70.50
52.44
33.73
14.90
-3.41
-19.94
-32.81
-40.52
-42.92
-41.61
-39.21
-38.24
-39.74
-42.76
-44.69
-42.34
-34.33
-22.38
-11.12
-6.30
-12.06
-28.69
-51.84
-73.86
-85.89
-82.37
-62.89
-31.58
5.30
42.05
74.94
102.46
124.47
142.45
156.81
167.02
172.57
174.17
173.96
174.71
178.71
186.75
199.25
213.53
224.54
226.62
216.11
192.74
159.37
120.75
71.83
15.57
-39.50
-84.11
-114.42
-132.11
-140.80
-143.84
-144.16
-144.84
-147.17
-151.90
-158.73
-164.35
-163.44
-150.85
-124.57
-87.28
-45.66
-7.23
19.54
31.31
30.39
22.54
13.59
7.19
4.74
6.48
13.36
25.49
42.06
59.14
71.70
75.71
69.90
56.79
41.83
31.53
30.14
37.76
50.08
60.56
63.28
55.21
37.09
12.43
-13.32
-34.21
-45.68
-45.80
-35.21
-16.47
6.98
31.65
54.39
72.45
83.52
85.91
78.84
63.02
40.72
15.50
-8.43
-26.95
-36.65
-35.39
-22.73
-0.35
28.04
57.11
81.12
95.57
98.67
92.07
80.25
68.79
62.49
64.11
74.04
90.72
111.42
132.83
151.49
164.08
167.98
161.87
146.31
123.56
96.83
69.21
42.65
17.58
-6.99
-32.78
-61.47
-93.72
-128.53
-163.03
-192.96
-213.95
-223.18
-220.57
-208.84
-192.36
-175.36
-160.49
-148.52
-138.96
-131.30
-125.58
-122.33
-121.81
-123.43
-125.85
-127.62
-127.87
-126.42
-123.47
-119.00
-112.72
-104.40
-94.44
-84.05
-74.97
-68.88
-67.07
-70.38
-79.18
-93.21
-111.32
-131.19
-149.80
-164.36
-173.58
-178.15
-180.31
-182.29
-184.85
-186.56
-184.47
-175.72
-159.14
-136.07
-109.67
-83.65
-60.76
-42.08
-27.30
-15.58
-6.49
-0.20
2.96
3.32
2.21
1.48
2.19
3.74
3.81
-0.56
-10.88
-25.74
-40.67
-49.31
-45.51
-25.34
11.47
61.11
116.12
166.88
203.79
219.79
212.37
184.16
141.91
94.08
48.60
11.14
-15.14
-29.04
-30.59
-20.54
-0.19
28.64
63.67
102.21
140.88
175.12
199.35
208.51
200.48
177.91
148.08
120.28
102.08
96.42
101.01
110.31
118.94
123.98
125.19
123.47
118.78
109.82
95.40
76.04
54.56
35.20
21.55
14.57
13.64
15.84
17.32
16.33
13.98
12.69
14.28
18.77
24.98
31.57
37.80
43.51
49.38
56.04
62.46
68.17
72.20
73.73
72.79
70.32
67.47
65.78
66.15
68.07
69.68
68.10
60.47
44.60
23.94
1.45
-19.91
-38.46
-54.42
-69.39
-85.63
-104.97
-128.39
-155.97
-187.70
-222.37
-257.05
-286.27
-302.50
-298.78
-272.01
-225.37
-167.85
-111.46
-65.85
-35.31
-17.76
-7.26
1.55
10.47
18.10
22.91
26.03
32.66
48.63
78.28
121.66
173.09
222.22
258.03
273.02
265.38
239.04
199.11
152.53
106.72
66.65
32.71
1.76
-29.68
-62.85
-95.63
-127.60
-156.76
-179.60
-193.68
-199.53
-199.13
-193.54
-183.03
-169.34
-162.81
-173.90
-206.74
-257.19
-315.15
-367.44
-401.73
-411.17
-365.65
-264.84
-141.00
-33.56
39.74
83.24
108.80
125.30
136.24
142.01
137.43
121.34
99.59
81.04
71.45
71.37
77.29
84.56
90.22
88.67
77.97
62.00
47.63
39.66
38.82
42.28
46.22
48.59
45.95
37.26
25.81
17.29
16.22
24.45
41.61
68.09
103.33
145.02
188.39
226.90
253.57
263.10
254.79
233.82
198.14
155.47
114.35
76.75
37.85
-7.13
-56.82
-100.72
-134.29
-155.70
-165.45
-167.50
-166.07
-162.11
-152.61
-134.13
-106.02
-72.63
-40.30
-13.80
4.20
14.24
20.11
27.24
40.29
61.21
88.21
117.41
144.10
162.67
168.20
158.42
134.55
100.46
61.01
20.13
-19.16
-54.38
-84.00
-107.20
-124.01
-135.45
-143.26
-148.77
-151.81
-149.81
-138.88
-116.29
-82.61
-42.54
-3.50
27.22
45.73
53.05
54.52
56.96
65.21
79.79
96.88
110.52
115.70
110.82
98.06
81.86
66.59
54.72
46.35
40.15
34.86
30.41
28.18
29.70
35.35
43.72
51.98
56.88
56.14
49.38
38.54
27.66
20.63
19.43
23.37
29.51
33.92
33.23
25.79
12.41
-3.23
-16.83
-24.77
-24.67
-15.20
3.64
29.96
59.66
87.40
109.18
122.33
126.06
121.33
110.39
95.57
78.09
57.96
28.92
-8.19
-45.88
-74.85
-90.66
-94.81
-91.64
-85.57
-79.83
-75.99
-73.21
-70.54
-67.75
-65.80
-65.34
-66.55
-68.75
-71.94
-76.67
-82.89
-91.14
-102.45
-117.94
-136.70
-154.49
-165.44
-164.79
-150.65
-124.10
-89.37
-48.70
-6.54
28.53
50.67
59.99
60.37
55.81
48.58
39.39
29.16
19.56
13.80
15.66
27.44
46.52
66.61
80.27
81.61
68.84
44.57
15.14
-11.59
-29.75
-37.67
-37.40
-31.31
-21.41
-8.74
5.74
20.76
34.72
45.91
53.33
57.52
60.05
61.86
62.05
57.93
46.94
28.99
7.08
-14.33
-32.53
-48.92
-68.75
-97.56
-136.41
-178.87
-212.20
-222.97
-203.94
-158.67
-100.92
-49.27
-19.60
-18.95
-43.77
-82.55
-121.32
-148.98
-160.38
-156.17
-140.40
-117.34
-89.28
-56.27
-17.13
28.77
80.31
134.38
186.37
231.09
263.78
281.07
281.54
266.06
237.78
201.65
163.33
127.81
98.25
75.54
58.52
44.84
31.91
17.44
-0.35
-22.75
-50.41
-82.88
-118.10
-152.28
-180.43
-197.89
-201.99
-193.33
-175.83
-155.50
-138.63
-129.86
-131.14
-141.23
-156.22
-170.49
-178.02
-174.10
-156.64
-126.90
-89.05
-48.95
-12.32
16.38
34.54
41.30
37.20
24.24
6.04
-12.39
-25.57
-29.22
-21.84
-5.38
15.67
36.24
52.70
64.04
71.54
77.56
84.03
91.56
99.34
105.84
109.53
109.44
105.36
97.83
88.02
77.49
67.95
60.93
57.35
57.27
60.01
64.37
69.15
73.58
77.42
80.78
83.88
86.80
89.43
91.60
93.22
94.27
94.80
94.80
94.28
93.28
92.03
90.81
89.89
89.45
89.52
90.15
91.55
94.00
97.70
102.43
107.54
112.08
115.13
116.03
114.52
110.67
105.05
98.90
94.19
93.33
98.25
109.36
124.95
141.66
155.69
164.38
167.24
165.83
162.73
160.19
159.33
160.06
161.56
162.72
162.51
159.94
154.04
144.16
130.24
113.01
93.78
73.90
54.23
34.98
15.89
-3.38
-22.92
-42.55
-62.08
-81.61
-101.65
-123.17
-147.54
-176.41
-211.27
-252.62
-298.87
-345.67
-386.08
-412.10
-417.12
-398.33
-358.05
-303.27
-243.48
-187.90
-143.09
-111.88
-93.83
-86.37
-86.17
-89.95
-94.94
-98.99
-100.58
-98.93
-93.95
-86.27
-76.88
-66.47
-54.80
-40.39
-21.08
4.68
36.19
69.64
98.18
114.04
111.64
90.01
53.20
8.31
-37.49
-79.52
-115.96
-147.26
-174.12
-195.73
-209.71
-213.54
-206.22
-189.11
-165.36
-137.91
-109.56
-82.51
-58.07
-37.14
-20.88
-11.22
-10.03
-18.05
-32.32
-48.03
-59.35
-60.44
-46.74
-16.17
30.30
89.45
156.30
225.98
290.98
341.99
370.75
373.20
350.96
310.34
260.73
201.12
138.26
82.11
39.62
11.30
-6.21
-16.60
-23.06
-27.25
-30.17
-30.87
-29.39
-27.05
-25.41
-25.34
-27.37
-33.27
-43.81
-59.55
-78.63
-98.14
-114.02
-121.32
-115.82
-92.93
-58.24
-21.27
8.75
27.33
34.56
33.82
29.53
25.07
21.79
18.92
16.23
14.21
14.14
16.61
20.77
24.73
26.67
25.34
20.66
14.80
11.10
12.71
20.25
30.52
37.07
32.88
13.95
-18.51
-57.54
-93.87
-119.57
-130.97
-129.19
-118.39
-102.96
-85.90
-69.22
-54.58
-44.03
-39.07
-38.99
-39.83
-36.22
-24.34
-4.76
17.39
34.99
42.90
40.80
33.22
27.39
28.60
37.99
52.58
67.50
78.82
85.26
88.28
90.80
95.95
104.72
115.75
125.86
131.27
128.78
116.74
95.44
63.15
21.80
-25.31
-73.94
-118.98
-154.88
-177.02
-183.65
-177.38
-164.69
-152.60
-145.88
-143.91
-140.44
-126.41
-94.48
-43.29
21.01
86.56
140.45
172.78
179.97
165.52
138.12
108.16
84.17
70.70
68.05
74.10
85.72
100.03
114.28
124.89
126.89
114.93
85.67
40.38
-13.90
-66.27
-105.67
-125.27
-124.79
-109.83
-88.50
-67.49
-49.56
-33.61
-16.62
3.94
28.69
56.40
84.80
111.45
133.79
149.02
154.20
146.94
126.47
94.25
54.25
12.07
-26.49
-56.93
-77.49
-90.03
-99.85
-114.16
-139.00
-176.05
-220.78
-263.14
-291.01
-294.88
-271.46
-224.83
-164.69
-102.58
-48.06
-6.47
21.42
37.53
44.60
45.05
40.83
34.06
27.50
24.38
27.09
36.25
49.54
62.43
70.48
71.67
67.20
60.92
57.36
59.26
67.06
78.25
88.85
95.58
97.11
93.95
88.26
83.25
81.84
86.20
95.61
106.11
111.99
108.07
91.38
62.80
26.85
-13.69
-51.84
-80.40
-96.47
-102.98
-105.92
-111.25
-123.82
-143.19
-165.89
-185.69
-196.01
-191.89
-171.48
-133.24
-82.37
-28.12
19.56
52.97
69.37
70.42
60.71
46.15
32.44
23.07
19.54
21.59
27.45
35.18
43.03
50.06
56.19
62.07
68.11
74.69
82.22
90.98
101.24
112.71
124.44
135.00
143.21
148.24
150.31
150.41
149.52
148.11
145.67
141.00
132.81
120.40
103.69
83.34
60.31
35.33
8.72
-19.61
-49.97
-82.56
-117.23
-153.45
-190.18
-225.95
-258.98
-287.42
-309.62
-324.50
-331.67
-331.41
-324.20
-310.37
-289.74
-261.82
-226.31
-183.68
-135.50
-84.40
-33.46
14.48
57.33
93.89
123.64
146.34
161.95
170.68
173.25
171.04
165.89
159.61
153.33
147.12
140.08
130.94
118.90
104.31
88.71
74.41
63.60
57.52
56.13
58.28
62.16
65.98
68.36
68.62
66.60
62.61
57.05
50.27
42.49
33.85
24.65
15.46
7.15
0.53
-3.95
-6.61
-8.46
-10.85
-15.05
-22.05
-32.69
-47.94
-68.93
-96.51
-130.53
-169.09
-208.50
-243.87
-270.32
-284.13
-283.58
-269.11
-242.89
-208.22
-168.76
-127.93
-88.47
-52.10
-19.45
9.82
36.65
62.14
87.02
111.31
134.16
154.10
169.37
178.56
181.04
177.13
167.93
154.90
139.37
122.33
104.42
86.11
67.86
50.24
33.86
19.33
7.11
-2.40
-8.89
-12.12
-12.05
-8.98
-3.71
2.57
8.64
13.65
17.49
20.69
24.07
28.07
32.46
36.39
38.83
39.26
38.00
35.98
34.21
33.08
32.15
30.44
27.13
22.22
16.65
11.93
9.35
9.25
10.82
12.52
12.85
11.17
7.95
4.54
2.39
2.28
4.01
6.61
8.89
10.11
10.22
9.66
9.00
8.51
8.14
7.67
6.98
6.16
5.34
4.52
3.47
1.89
-0.36
-3.08
-5.71
-7.69
-8.66
-8.71
-8.32
-8.06
-8.40
-9.45
-11.02
-12.68
-13.98
-14.58
-14.32
-13.35
-12.24
-11.99
-13.78
-18.48
-26.10
-35.43
-44.25
-50.06
-51.08
-47.02
-39.15
-29.65
-20.69
-13.58
-8.58
-5.24
-2.96
-1.35
-0.27
0.45
1.15
2.36
4.55
7.80
11.68
15.40
18.10
19.19
18.63
16.87
14.65
12.67
11.39
10.85
10.80
10.83
10.62
10.00
8.94
7.51
5.79
3.91
2.09
0.62
-0.17
-0.14
0.59
1.56
2.14
1.79
0.29
-2.10
-4.80
-7.15
-8.69
-9.38
-9.46
-9.40
-9.61
-10.30
-11.49
-13.09
-15.01
-17.13
-19.26
-21.10
-22.14
-21.82
-19.75
-15.88
-10.55
-4.41
1.82
7.49
12.20
15.73
18.00
18.97
18.69
17.37
15.37
13.12
11.00
9.15
7.44
5.57
3.28
0.47
-2.61
-5.50
-7.72
-8.98
-9.27
-8.90
-8.33
-8.02
-8.21
-8.84
-9.58
-9.97
-9.67
-8.61
-7.05
-5.45
-4.32
-3.94
-4.25
-4.89
-5.36
-5.29
-4.61
-3.58
-2.62
-2.13
-2.27
-2.87
-3.53
-3.81
-3.36
-2.11
-0.26
1.87
3.98
5.93
7.70
9.30
10.67
11.56
11.68
10.85
9.15
6.97
4.85
3.23
2.24
1.69
1.23
0.55
-0.47
-1.73
-3.09
-4.42
-5.65
-6.74
-7.55
-7.86
-7.46
-6.23
-4.31
-2.06
0.14
1.96
3.27
4.13
4.62
4.80
4.61
3.91
2.65
0.92
-1.00
-2.75
-3.94
-4.36
-4.04
-3.19
-2.19
-1.51
-1.54
-2.54
-4.51
-7.18
-10.03
-12.48
-14.08
-14.59
-14.07
-12.72
-10.78
-8.44
-5.84
-3.09
-0.38
2.11
4.22
5.89
7.21
8.29
9.15
9.63
9.46
8.34
6.19
3.19
-0.24
-3.62
-6.60
-9.06
-11.12
-12.96
-14.76
-16.49
-18.03
-19.18
-19.82
-19.93
-19.65
-19.14
-18.62
-18.32
-18.38
-18.88
-19.79
-21.00
-22.38
-23.84
-25.31
-26.72
-27.89
-28.54
-28.37
-27.20
-25.17
-22.69
-20.35
-18.65
-17.82
-17.65
-17.65
-17.22
-15.88
-13.44
-9.96
-5.70
-0.96
3.97
8.79
13.23
16.96
19.64
21.01
21.01
19.84
17.95
15.94
14.40
13.66
13.80
14.56
15.45
15.96
15.68
14.57
12.88
11.16
10.02
9.85
10.73
12.35
14.15
15.55
16.16
15.89
14.98
13.74
12.48
11.35
10.27
9.10
7.66
5.93
4.03
2.17
0.55
-0.74
-1.84
-3.04
-4.68
-7.02
-10.15
-13.87
-17.77
-21.25
-23.70
-24.63
-23.79
-21.26
-17.39
-12.71
-7.78
-3.07
1.10
4.55
7.25
9.20
10.42
10.95
10.90
10.42
9.72
9.07
8.66
8.55
8.69
8.88
8.91
8.66
8.10
7.39
6.71
6.29
6.27
6.70
7.53
8.61
9.72
10.59
10.93
10.51
9.23
7.14
4.49
1.62
-1.14
-3.53
-5.45
-6.94
-8.20
-9.50
-11.09
-13.13
-15.63
-18.43
-21.15
-23.42
-24.86
-25.29
-24.73
-23.34
-21.30
-18.76
-15.84
-12.68
-9.48
-6.51
-4.02
-2.14
-0.84
0.06
0.81
1.59
2.46
3.32
4.03
4.50
4.73
4.84
4.98
5.32
5.90
6.71
7.61
8.41
8.91
8.96
8.49
7.50
6.08
4.40
2.70
1.19
0.06
-0.69
-1.16
-1.56
-2.11
-2.94
-4.02
-5.25
-6.49
-7.66
-8.80
-9.94
-11.10
-12.21
-13.10
-13.61
-13.60
-12.97
-11.69
-9.71
-7.07
-3.91
-0.48
2.84
5.71
7.99
9.76
11.34
13.01
14.87
16.75
18.32
19.26
19.40
18.80
17.69
16.33
14.96
13.72
12.76
12.16
11.92
11.98
12.15
12.19
11.87
11.03
9.61
7.68
5.41
2.99
0.60
-1.64
-3.69
-5.51
-7.11
-8.48
-9.63
-10.59
-11.42
-12.27
-13.26
-14.49
-15.97
-17.67
-19.46
-21.20
-22.73
-23.89
-24.56
-24.68
-24.21
-23.17
-21.56
-19.35
-16.49
-13.02
-9.07
-4.91
-0.91
2.56
5.24
7.00
7.92
8.21
8.09
7.81
7.51
7.23
6.99
6.75
6.56
6.46
6.51
6.71
7.02
7.37
7.68
7.98
8.29
8.66
9.04
9.27
9.18
8.66
7.76
6.66
5.60
4.72
4.04
3.48
2.95
2.41
1.89
1.37
0.75
-0.11
-1.36
-2.95
-4.58
-5.82
-6.22
-5.50
-3.67
-0.96
2.35
5.95
9.69
13.46
17.21
20.85
24.20
27.12
29.50
31.30
32.59
33.44
33.90
33.94
33.56
32.76
31.67
30.47
29.37
28.50
27.86
27.28
26.53
25.40
23.79
21.74
19.37
16.84
14.23
11.52
8.60
5.35
1.73
-2.13
-6.01
-9.64
-12.85
-15.63
-18.07
-20.33
-22.54
-24.75
-26.97
-29.19
-31.40
-33.52
-35.38
-36.72
-37.23
-36.64
-34.89
-32.09
-28.50
-24.42
-20.13
-15.82
-11.63
-7.69
-4.17
-1.25
0.93
2.36
3.18
3.64
3.98
4.33
4.63
4.76
4.53
3.94
3.07
2.20
1.55
1.31
1.50
2.09
2.98
4.04
5.14
6.09
6.64
6.59
5.86
4.49
2.66
0.55
-1.71
-4.03
-6.37
-8.59
-10.48
-11.81
-12.44
-12.39
-11.85
-11.19
-10.75
-10.80
-11.39
-12.43
-13.62
-14.62
-15.14
-14.98
-14.15
-12.75
-10.95
-8.90
-6.65
-4.26
-1.76
0.78
3.31
5.81
8.29
10.78
13.26
15.58
17.49
18.71
19.04
18.44
17.14
15.51
13.96
12.74
11.92
11.36
10.84
10.19
9.37
8.46
7.56
6.72
5.92
5.10
4.27
3.48
2.83
2.34
1.95
1.48
0.72
-0.50
-2.29
-4.65
-7.51
-10.73
-14.10
-17.38
-20.36
-22.97
-25.20
-27.13
-28.79
-30.08
-30.80
-30.74
-29.79
-28.04
-25.71
-23.05
-20.24
-17.33
-14.29
-11.08
-7.75
-4.34
-0.92
2.51
6.02
9.62
13.26
16.69
19.62
21.73
22.86
23.05
22.55
21.69
20.73
19.76
18.68
17.31
15.41
12.83
9.56
5.71
1.58
-2.42
-5.84
-8.26
-9.49
-9.56
-8.77
-7.57
-6.37
-5.44
-4.85
-4.54
-4.42
-4.44
-4.68
-5.23
-6.16
-7.47
-9.07
-10.79
-12.43
-13.87
-14.96
-15.60
-15.64
-14.91
-13.23
-10.50
-6.82
-2.46
2.18
6.71
10.81
14.38
17.41
19.98
22.14
23.88
25.18
25.95
26.18
25.87
25.13
24.06
22.77
21.38
19.97
18.58
17.26
16.00
14.75
13.45
12.08
10.69
9.38
8.30
7.54
7.04
6.60
5.92
4.80
3.14
1.10
-1.13
-3.38
-5.61
-7.85
-10.16
-12.52
-14.80
-16.89
-18.73
-20.36
-21.85
-23.19
-24.21
-24.61
-24.09
-22.49
-19.87
-16.50
-12.76
-9.05
-5.67
-2.76
-0.26
1.95
4.01
5.96
7.71
9.05
9.81
9.94
9.59
9.01
8.44
8.04
7.78
7.53
7.17
6.62
5.94
5.28
4.73
4.39
4.26
4.25
4.28
4.23
4.07
3.80
3.51
3.30
3.22
3.29
3.46
3.68
3.85
3.93
3.89
3.71
3.40
2.92
2.23
1.22
-0.21
-2.14
-4.51
-7.13
-9.67
-11.72
-12.90
-12.98
-11.91
-9.84
-7.10
-4.06
-1.09
1.59
3.90
5.90
7.72
9.44
11.03
12.39
13.35
13.82
13.79
13.37
12.74
12.06
11.46
10.99
10.60
10.19
9.67
8.93
8.02
7.00
6.04
5.23
4.57
3.96
3.20
2.08
0.51
-1.52
-3.85
-6.29
-8.63
-10.69
-12.40
-13.71
-14.67
-15.35
-15.88
-16.36
-16.89
-17.50
-18.20
-18.95
-19.73
-20.56
-21.43
-22.36
-23.28
-24.01
-24.29
-23.78
-22.20
-19.37
-15.26
-10.06
-4.10
2.20
8.33
13.79
18.14
21.02
22.23
21.84
20.09
17.44
14.37
11.32
8.57
6.22
4.27
2.62
1.19
-0.13
-1.39
-2.63
-3.84
-4.99
-6.01
-6.83
-7.32
-7.41
-7.02
-6.17
-4.96
-3.56
-2.16
-0.90
0.14
0.99
1.68
2.31
2.94
3.60
4.25
4.75
4.89
4.40
3.14
1.11
-1.41
-3.99
-6.16
-7.53
-7.94
-7.41
-6.11
-4.21
-1.94
0.52
2.94
5.09
6.73
7.68
7.85
7.31
6.31
5.25
4.58
4.68
5.70
7.56
10.00
12.71
15.42
17.98
20.28
22.19
23.54
24.16
23.96
22.98
21.38
19.40
17.16
14.71
11.97
8.86
5.40
1.71
-1.91
-5.08
-7.44
-8.72
-8.84
-7.86
-6.03
-3.68
-1.22
0.98
2.55
3.25
3.01
1.93
0.30
-1.55
-3.31
-4.84
-6.15
-7.29
-8.26
-8.99
-9.28
-8.87
-7.58
-5.31
-2.13
1.69
5.68
9.23
11.72
12.69
12.04
10.09
7.55
5.21
3.72
3.35
3.98
5.19
6.55
7.82
8.95
10.02
11.00
11.66
11.66
10.68
8.74
6.14
3.42
1.01
-0.95
-2.66
-4.50
-6.73
-9.33
-12.00
-14.30
-15.90
-16.69
-16.77
-16.37
-15.73
-15.12
-14.75
-14.80
-15.31
-16.14
-17.01
-17.52
-17.33
-16.24
-14.24
-11.43
-8.00
-4.20
-0.39
3.01
5.57
7.06
7.57
7.47
7.24
7.26
7.62
8.21
8.86
9.53
10.34
11.51
13.11
15.02
16.89
18.34
19.10
19.14
18.60
17.65
16.42
14.88
12.91
10.37
7.23
3.59
-0.27
-4.03
-7.39
-10.21
-12.51
-14.38
-15.92
-17.18
-18.13
-18.73
-19.01
-19.06
-19.06
-19.21
-19.65
-20.42
-21.45
-22.55
-23.44
-23.82
-23.40
-21.92
-19.32
-15.63
-11.07
-5.95
-0.67
4.37
8.82
12.41
15.04
16.68
17.39
17.25
16.41
15.12
13.79
12.90
12.92
14.14
16.50
19.63
22.96
25.83
27.68
28.07
26.78
23.84
19.55
14.47
9.32
4.82
1.41
-0.84
-2.14
-2.90
-3.44
-3.92
-4.33
-4.62
-4.76
-4.86
-5.06
-5.51
-6.36
-7.69
-9.59
-12.15
-15.31
-18.85
-22.34
-25.15
-26.63
-26.27
-23.83
-19.44
-13.48
-6.52
0.84
8.02
14.51
19.83
23.58
25.42
25.17
22.89
18.89
13.71
8.04
2.56
-2.13
-5.63
-7.71
-8.38
-7.76
-6.10
-3.73
-1.04
1.65
4.06
6.04
7.54
8.53
9.03
9.04
8.57
7.75
6.73
5.71
4.86
4.25
3.84
3.44
2.77
1.56
-0.47
-3.55
-7.70
-12.78
-18.39
-23.97
-28.92
-32.74
-35.07
-35.81
-35.02
-32.89
-29.63
-25.38
-20.22
-14.20
-7.47
-0.39
6.46
12.30
16.45
18.54
18.61
17.12
14.77
12.21
9.91
8.10
6.86
6.26
6.35
7.22
8.86
11.13
13.69
16.07
17.77
18.42
17.83
16.12
13.68
11.03
8.63
6.81
5.61
4.88
4.40
4.00
3.62
3.34
3.22
3.24
3.20
2.78
1.64
-0.41
-3.34
-6.92
-10.79
-14.54
-17.83
-20.38
-22.04
-22.71
-22.38
-21.08
-18.92
-16.00
-12.42
-8.29
-3.80
0.72
4.85
8.10
10.10
10.73
10.23
9.04
7.69
6.56
5.81
5.38
5.10
4.85
4.62
4.49
4.60
5.00
5.65
6.42
7.10
7.47
7.28
6.40
4.86
2.87
0.78
-1.06
-2.44
-3.36
-4.02
-4.63
-5.37
-6.25
-7.16
-7.98
-8.59
-8.95
-9.01
-8.73
-8.10
-7.15
-6.07
-5.14
-4.77
-5.35
-7.14
-10.18
-14.19
-18.64
-22.82
-26.06
-27.85
-27.94
-26.44
-23.63
-20.03
-16.13
-12.41
-9.17
-6.52
-4.40
-2.63
-0.99
0.67
2.46
4.45
6.72
9.34
12.33
15.58
18.80
21.55
23.36
23.79
22.62
19.88
15.80
10.84
5.56
0.54
-3.72
-6.85
-8.68
-9.21
-8.63
-7.24
-5.33
-3.14
-0.80
1.64
4.12
6.42
8.25
9.29
9.29
8.17
6.01
2.93
-0.91
-5.32
-10.02
-14.51
-18.12
-20.11
-19.95
-17.53
-13.22
-7.77
-1.98
3.51
8.38
12.61
16.24
19.30
21.63
23.01
23.32
22.57
21.02
19.09
17.19
15.66
14.64
14.17
14.11
14.29
14.51
14.63
14.52
14.16
13.58
12.82
11.89
10.74
9.34
7.68
5.84
3.98
2.21
0.59
-0.97
-2.60
-4.42
-6.38
-8.35
-10.10
-11.46
-12.43
-13.13
-13.76
-14.50
-15.46
-16.63
-17.97
-19.38
-20.74
-21.92
-22.74
-23.02
-22.55
-21.24
-19.09
-16.27
-13.07
-9.74
-6.47
-3.28
-0.08
3.17
6.36
9.20
11.35
12.55
12.79
12.32
11.50
10.71
10.16
9.89
9.90
10.14
10.59
11.22
11.92
12.49
12.72
12.47
11.69
10.48
9.00
7.45
5.94
4.53
3.23
2.04
0.99
0.13
-0.45
-0.71
-0.66
-0.36
0.14
0.77
1.47
2.13
2.59
2.66
2.12
0.85
-1.16
-3.72
-6.55
-9.26
-11.43
-12.70
-12.83
-11.70
-9.36
-5.99
-1.98
2.19
6.02
9.07
11.03
11.78
11.31
9.77
7.40
4.56
1.70
-0.66
-2.12
-2.49
-1.89
-0.72
0.55
1.58
2.30
2.90
3.68
4.83
6.35
8.01
9.51
10.60
11.18
11.23
10.74
9.64
7.85
5.45
2.74
0.24
-1.45
-1.95
-1.26
0.19
1.75
2.82
3.00
2.14
0.30
-2.36
-5.67
-9.38
-13.18
-16.80
-20.04
-22.85
-25.31
-27.54
-29.56
-31.26
-32.42
-32.84
-32.38
-31.09
-29.10
-26.61
-23.77
-20.68
-17.44
-14.12
-10.86
-7.75
-4.81
-1.97
0.97
4.13
7.46
10.69
13.42
15.30
16.25
16.49
16.47
16.69
17.48
18.96
20.97
23.29
25.57
27.46
28.62
28.74
27.68
25.56
22.72
19.61
16.66
14.09
11.96
10.14
8.47
6.80
5.05
3.18
1.19
-0.87
-2.93
-4.86
-6.60
-8.16
-9.59
-10.98
-12.30
-13.37
-13.97
-13.82
-12.80
-10.91
-8.31
-5.24
-1.93
1.35
4.36
6.92
8.88
10.19
10.89
11.09
10.90
10.47
9.95
9.47
9.12
8.88
8.63
8.09
6.95
4.95
1.99
-1.81
-6.23
-11.04
-16.08
-21.28
-26.57
-31.70
-36.23
-39.67
-41.72
-42.53
-42.79
-43.52
-45.67
-49.71
-55.32
-61.38
-66.23
-68.08
-65.48
-57.68
-44.78
-27.86
-8.66
10.59
27.70
40.89
49.08
52.01
50.21
44.73
36.92
28.16
19.62
12.15
6.19
1.84
-1.04
-2.68
-3.25
-2.83
-1.42
0.99
4.32
8.36
12.75
17.11
21.07
24.40
27.02
28.98
30.41
31.37
31.88
31.73
30.72
28.67
25.63
21.89
18.06
14.90
13.22
13.69
16.74
22.56
30.91
41.11
51.98
61.97
69.45
73.10
72.27
67.08
58.39
47.51
35.89
24.77
14.98
6.96
0.80
-3.53
-6.05
-6.72
-5.52
-2.61
1.52
5.96
9.63
11.57
11.29
8.83
4.70
-0.46
-6.13
-11.99
-17.90
-23.76
-29.44
-34.74
-39.51
-43.76
-47.68
-51.46
-55.21
-58.88
-62.24
-65.01
-67.00
-68.12
-68.40
-67.94
-66.97
-65.77
-64.63
-63.75
-63.06
-62.18
-60.64
-58.02
-54.23
-49.54
-44.43
-39.28
-34.21
-29.15
-24.07
-19.12
-14.68
-11.21
-8.95
-7.84
-7.53
-7.60
-7.75
-7.90
-8.13
-8.50
-8.99
-9.38
-9.38
-8.66
-6.97
-4.23
-0.57
3.73
8.32
12.86
17.18
21.20
24.93
28.37
31.44
34.09
36.20
37.76
38.80
39.39
39.60
39.49
39.12
38.56
37.89
37.25
36.77
36.65
37.03
37.98
39.42
41.09
42.63
43.65
43.89
43.29
41.90
39.89
37.44
34.74
32.05
29.64
27.69
26.15
24.60
22.35
18.69
13.30
6.36
-1.43
-9.15
-15.99
-21.37
-24.97
-26.64
-26.33
-24.19
-20.68
-16.61
-12.96
-10.59
-9.92
-10.75
-12.43
-14.16
-15.29
-15.58
-15.12
-14.22
-13.20
-12.23
-11.25
-10.11
-8.64
-6.83
-4.86
-3.00
-1.46
-0.39
0.19
0.29
-0.12
-1.14
-2.85
-5.22
-8.12
-11.23
-14.17
-16.55
-18.08
-18.62
-18.22
-17.20
-16.09
-15.51
-16.06
-18.05
-21.35
-25.36
-29.18
-31.84
-32.65
-31.37
-28.23
-23.78
-18.58
-13.05
-7.44
-1.92
3.27
7.81
11.36
13.78
15.16
15.83
16.23
16.69
17.34
18.06
18.65
18.90
18.73
18.16
17.27
16.19
14.99
13.70
12.32
10.78
9.03
7.06
4.91
2.67
0.48
-1.57
-3.45
-5.17
-6.79
-8.36
-9.87
-11.28
-12.54
-13.66
-14.75
-15.99
-17.57
-19.62
-22.11
-24.87
-27.60
-29.90
-31.29
-31.35
-29.76
-26.56
-22.22
-17.58
-13.55
-10.73
-9.12
-8.18
-7.12
-5.32
-2.66
0.49
3.62
6.27
8.33
9.92
11.23
12.39
13.42
14.32
15.14
15.99
16.93
17.98
19.09
20.20
21.30
22.40
23.42
24.22
24.52
24.01
22.47
19.84
16.24
11.98
7.47
3.26
-0.13
-2.29
-3.07
-2.59
-1.22
0.51
2.12
3.24
3.61
3.13
1.84
-0.10
-2.34
-4.41
-5.80
-6.13
-5.24
-3.24
-0.49
2.55
5.43
7.81
9.50
10.45
10.75
10.51
9.84
8.79
7.34
5.45
3.10
0.44
-2.27
-4.65
-6.36
-7.17
-7.11
-6.41
-5.44
-4.49
-3.69
-2.98
-2.22
-1.34
-0.46
0.22
0.51
0.35
-0.11
-0.58
-0.82
-0.71
-0.29
0.29
0.87
1.35
1.66
1.75
1.62
1.22
0.56
-0.35
-1.55
-3.03
-4.79
-6.73
-8.60
-10.01
-10.55
-9.92
-8.10
-5.39
-2.31
0.59
2.92
4.54
5.56
6.15
6.47
6.53
6.34
5.91
5.39
4.99
4.86
4.98
5.22
5.50
5.88
6.65
8.14
10.44
13.31
16.16
18.37
19.55
19.81
19.57
19.33
19.25
19.08
18.18
15.96
12.17
7.06
1.32
-4.28
-9.19
-13.21
-16.49
-19.25
-21.58
-23.35
-24.33
-24.41
-23.71
-22.53
-21.18
-19.84
-18.44
-16.80
-14.75
-12.13
-8.80
-4.60
0.67
7.01
14.13
21.29
27.51
31.83
33.73
33.22
30.74
26.86
22.13
16.95
11.73
6.90
2.88
-0.15
-2.34
-4.18
-6.24
-8.79
-11.71
-14.44
-16.34
-16.93
-16.16
-14.37
-12.14
-10.09
-8.64
-7.84
-7.46
-7.02
-6.11
-4.55
-2.52
-0.37
1.46
2.75
3.49
3.87
4.13
4.45
5.00
5.89
7.23
8.94
10.78
12.33
13.11
12.79
11.30
8.88
5.88
2.74
-0.16
-2.53
-4.22
-5.18
-5.50
-5.29
-4.66
-3.71
-2.51
-1.20
0.02
0.92
1.38
1.47
1.38
1.33
1.42
1.59
1.69
1.66
1.62
1.78
2.32
3.18
4.17
4.99
5.55
5.95
6.44
7.23
8.30
9.45
10.32
10.67
10.46
9.80
8.82
7.60
6.11
4.35
2.42
0.51
-1.10
-2.29
-3.05
-3.52
-3.90
-4.28
-4.68
-5.02
-5.23
-5.31
-5.28
-5.12
-4.74
-3.90
-2.29
0.50
4.82
10.87
18.60
27.59
37.06
46.01
53.46
58.66
61.30
61.46
59.55
56.09
51.57
46.31
40.43
33.88
26.59
18.60
10.19
1.85
-5.81
-12.30
-17.46
-21.45
-24.72
-27.68
-30.66
-33.72
-36.73
-39.46
-41.76
-43.55
-44.80
-45.46
-45.40
-44.49
-42.67
-40.06
-36.88
-33.41
-29.85
-26.30
-22.89
-19.94
-17.99
-17.72
-19.63
-23.64
-28.94
-34.11
-37.71
-38.72
-37.01
-33.17
-28.23
-23.09
-18.33
-14.08
-10.28
-6.80
-3.53
-0.28
3.33
7.82
13.64
20.87
29.09
37.51
45.23
51.59
56.26
59.22
60.52
60.24
58.35
54.95
50.28
44.84
39.29
34.41
30.97
29.55
30.34
33.01
36.64
40.02
42.13
42.61
41.96
41.37
42.15
44.97
49.33
53.45
54.53
49.66
36.87
16.23
-9.73
-36.41
-58.69
-72.75
-77.55
-74.94
-69.05
-65.02
-67.92
-81.65
-107.87
-144.95
-187.43
-226.78
-253.65
-261.15
-247.42
-216.26
-175.22
-132.12
-91.89
-55.41
-20.70
14.52
50.76
86.24
118.09
143.89
162.84
175.48
182.79
185.09
181.79
172.32
157.50
140.32
125.46
117.57
119.18
129.70
145.89
163.53
179.09
190.38
196.12
195.15
186.23
168.66
143.17
112.47
80.35
50.19
23.38
-1.15
-26.54
-56.56
-93.89
-138.57
-187.04
-232.40
-266.12
-280.96
-274.04
-248.52
-212.78
-177.17
-149.86
-133.95
-127.27
-124.79
-121.96
-117.03
-111.17
-106.73
-105.08
-105.54
-105.77
-103.26
-96.71
-86.62
-74.84
-63.34
-53.16
-44.00
-34.56
-23.46
-10.10
4.68
18.87
30.20
37.16
39.70
39.20
37.88
37.85
40.33
44.97
49.94
52.89
51.98
46.75
38.12
28.10
19.01
12.72
9.68
8.86
8.55
7.48
5.32
2.98
2.19
4.77
12.18
24.91
42.07
61.82
81.67
98.44
109.13
110.54
100.04
79.74
56.68
38.13
27.30
22.96
21.23
18.96
15.73
12.54
11.03
11.92
13.83
13.96
9.16
-2.26
-20.14
-42.29
-66.82
-91.52
-113.79
-131.12
-141.56
-138.75
-123.71
-105.69
-87.35
-70.30
-54.13
-35.87
-11.65
21.16
62.44
108.75
153.32
190.13
214.75
226.96
231.05
233.07
237.74
238.28
229.50
210.31
184.53
155.14
121.47
80.84
31.16
-26.36
-86.03
-138.49
-178.52
-202.90
-213.26
-215.64
-216.73
-221.32
-230.83
-243.61
-255.50
-262.99
-264.54
-256.06
-239.82
-220.59
-203.51
-191.80
-185.67
-181.83
-175.91
-164.28
-146.24
-124.73
-103.25
-84.01
-66.76
-49.46
-29.50
-5.64
21.76
51.11
79.87
106.04
127.05
139.03
136.99
117.32
80.81
34.01
-13.07
-52.45
-82.10
-106.99
-135.29
-172.07
-214.68
-253.25
-275.92
-275.67
-254.25
-220.33
-183.94
-150.82
-120.35
-87.71
-48.46
-2.21
46.94
92.84
131.00
160.89
186.01
211.99
243.91
284.37
332.10
382.32
427.86
461.06
475.98
470.19
445.61
407.88
364.67
323.37
289.28
264.69
249.09
240.22
235.13
230.92
225.01
215.05
198.95
175.28
143.95
106.83
67.92
32.70
6.45
-7.63
-9.96
-4.80
1.20
1.64
-7.07
-24.12
-44.87
-63.02
-73.51
-74.81
-69.49
-62.88
-60.46
-65.38
-77.20
-92.31
-105.79
-113.61
-113.96
-107.44
-96.10
-82.22
-67.48
-52.81
-38.80
-26.13
-15.71
-8.32
-4.14
-2.46
-1.81
-0.56
2.44
7.43
13.68
19.87
24.65
27.17
27.33
25.71
23.20
20.63
18.40
16.39
14.16
11.13
6.96
1.64
-4.44
-10.59
-16.11
-20.46
-23.44
-25.25
-26.45
-27.73
-29.89
-33.64
-39.53
-47.93
-58.89
-72.13
-87.03
-102.72
-118.31
-133.05
-146.57
-158.84
-169.98
-180.10
-188.98
-195.94
-199.88
-199.37
-192.90
-179.23
-157.76
-128.91
-94.33
-56.82
-19.74
13.86
42.13
64.91
83.33
98.84
112.09
122.32
127.84
127.13
120.07
108.36
94.98
82.88
74.01
68.84
66.94
67.70
70.85
76.26
83.34
90.63
96.10
97.94
95.50
89.64
82.35
75.71
71.07
68.83
68.89
71.45
77.22
86.86
100.01
114.51
126.39
131.00
124.48
104.55
70.93
25.16
-29.39
-87.07
-139.62
-177.07
-190.30
-174.81
-133.79
-78.43
-24.36
14.18
30.13
26.24
13.29
5.08
12.58
40.25
85.41
140.58
196.59
245.35
280.88
299.40
298.74
277.97
238.05
182.92
120.02
59.28
10.82
-18.82
-29.21
-26.31
-20.31
-21.53
-36.94
-68.47
-113.95
-168.74
-227.58
-285.27
-336.40
-375.66
-398.89
-404.63
-395.07
-375.29
-350.82
-324.95
-297.48
-265.13
-223.52
-169.50
-102.82
-26.75
52.47
126.63
186.90
225.43
237.26
221.92
184.04
132.51
78.12
30.68
-3.50
-22.84
-29.58
-27.77
-21.52
-13.72
-5.99
0.48
4.61
5.38
2.36
-3.71
-10.80
-16.41
-18.70
-17.25
-13.40
-9.17
-6.03
-4.27
-3.17
-1.90
-0.67
-1.09
-3.52
-8.28
-14.10
-18.40
-18.78
-14.50
-6.70
2.31
10.11
15.65
18.98
21.08
23.04
25.37
27.90
29.95
30.79
29.73
27.13
23.71
20.61
18.60
17.87
17.78
17.12
14.56
8.47
-1.65
-16.04
-34.47
-55.74
-77.14
-94.47
-102.94
-96.98
-77.49
-49.11
-19.08
5.63
20.97
26.99
26.76
24.18
21.82
19.79
17.38
14.02
10.32
7.73
7.76
10.86
16.19
22.29
27.56
31.87
35.71
39.74
43.95
47.59
49.58
49.14
46.07
40.36
32.08
20.88
6.40
-11.11
-30.21
-48.43
-63.15
-72.56
-76.08
-73.97
-66.66
-54.44
-37.78
-17.83
2.98
21.21
33.49
37.57
33.23
22.11
7.06
-8.81
-22.69
-32.65
-37.89
-38.69
-36.24
-32.07
-27.44
-22.88
-18.32
-12.70
-4.81
5.85
18.26
30.00
38.40
41.84
40.54
36.48
33.04
33.26
38.62
48.30
59.67
69.66
75.96
77.46
74.04
66.81
57.25
46.97
37.45
30.42
27.97
31.97
42.74
55.66
64.11
62.76
51.81
36.61
23.66
16.94
16.26
18.36
18.29
13.35
3.70
-8.32
-20.07
-30.08
-38.55
-45.46
-51.08
-55.55
-58.35
-58.95
-57.44
-55.02
-53.71
-55.32
-60.58
-68.92
-78.62
-87.02
-91.43
-89.94
-82.22
-69.73
-55.34
-42.49
-34.18
-31.81
-34.40
-39.07
-42.35
-41.73
-36.78
-29.07
-21.16
-15.34
-12.56
-12.29
-13.12
-13.72
-13.45
-12.34
-10.72
-8.61
-5.62
-1.13
5.32
13.56
22.68
31.33
38.13
42.26
43.66
42.99
41.34
39.80
39.07
39.33
40.23
41.19
41.64
41.24
39.91
37.77
35.07
32.01
28.76
25.39
21.97
18.60
15.38
12.43
9.77
7.37
5.01
2.40
-0.79
-4.78
-9.59
-14.92
-20.24
-24.94
-28.52
-30.74
-31.67
-31.61
-30.89
-29.85
-28.66
-27.43
-26.23
-25.15
-24.32
-23.90
-23.99
-24.55
-25.37
-26.11
-26.29
-25.54
-23.63
-20.53
-16.45
-11.72
-6.68
-1.67
3.05
7.34
11.13
14.47
17.46
20.17
22.65
24.91
26.95
28.76
30.38
31.78
32.88
33.52
33.53
32.88
31.71
30.25
28.84
27.70
26.97
26.60
26.42
26.21
25.80
25.07
24.01
22.65
21.11
19.62
18.33
17.32
16.60
16.16
15.92
15.66
15.18
14.23
12.85
11.11
9.15
7.28
5.92
5.36
5.52
6.05
6.51
6.86
7.05
7.23
7.91
9.97
14.12
20.43
28.38
37.01
45.59
53.31
59.64
64.91
70.48
77.78
87.38
98.84
110.83
121.90
130.01
133.02
129.69
120.35
106.23
88.70
69.22
46.06
21.38
-0.79
-18.35
-33.91
-50.12
-66.72
-82.62
-96.16
-105.89
-110.91
-112.31
-112.76
-115.08
-120.46
-128.28
-136.59
-142.66
-144.44
-141.34
-135.45
-130.62
-130.23
-135.36
-144.76
-156.13
-167.22
-176.80
-184.16
-188.83
-189.84
-185.83
-175.98
-161.35
-144.83
-129.25
-115.18
-99.87
-78.88
-48.95
-10.56
31.65
70.78
100.95
119.92
129.49
133.74
136.41
139.19
141.77
143.02
142.35
140.23
137.80
135.95
134.64
132.89
129.35
123.15
114.41
104.30
94.44
86.20
80.14
75.78
71.94
67.37
61.40
54.20
46.74
40.27
35.68
33.16
32.08
31.29
29.60
26.13
20.68
13.72
6.25
-0.56
-5.91
-9.91
-13.85
-19.90
-30.27
-46.08
-66.46
-88.53
-108.06
-120.89
-124.15
-116.94
-100.35
-76.89
-49.73
-22.16
2.93
23.47
38.60
48.81
55.88
62.12
69.50
78.82
89.35
99.20
106.11
108.41
105.54
98.13
87.60
75.63
63.79
53.32
45.01
38.95
34.36
29.58
22.75
12.67
-0.23
-13.80
-24.93
-30.88
-30.54
-24.81
-16.19
-7.49
-0.89
2.79
3.94
3.67
3.24
3.73
5.90
10.24
16.86
25.44
35.03
43.99
50.11
51.13
45.44
32.92
15.30
-4.08
-21.23
-32.81
-37.23
-34.99
-28.34
-20.45
-14.34
-12.16
-14.76
-21.77
-31.87
-43.33
-54.54
-64.35
-72.24
-78.13
-82.12
-84.39
-85.15
-84.89
-84.52
-85.24
-88.03
-93.12
-99.73
-106.24
-110.83
-112.28
-110.32
-105.46
-98.44
-89.57
-78.27
-63.20
-42.66
-15.34
18.84
58.16
98.99
136.38
165.24
181.74
184.55
175.23
157.66
136.94
117.88
103.69
95.27
91.04
87.46
80.19
65.83
43.46
15.42
-13.36
-37.40
-52.84
-58.90
-57.56
-51.96
-44.49
-35.86
-25.65
-13.62
-0.87
10.24
17.28
19.30
17.54
14.79
13.78
15.60
19.07
21.50
20.22
13.83
2.89
-10.66
-24.52
-37.06
-47.80
-57.19
-66.06
-74.97
-83.89
-92.09
-98.45
-101.77
-101.27
-96.87
-89.25
-79.65
-69.46
-59.88
-51.68
-45.41
-41.64
-41.06
-44.24
-51.16
-60.89
-71.48
-80.41
-85.17
-83.98
-76.21
-62.52
-44.82
-25.94
-9.18
2.48
7.17
4.75
-3.11
-13.51
-23.22
-29.63
-31.28
-27.94
-20.24
-9.38
3.13
15.49
25.87
32.66
35.05
33.29
28.64
22.83
17.32
12.87
9.47
6.69
4.24
2.11
0.60
-0.05
0.10
0.72
1.33
1.60
1.44
1.02
0.61
0.49
0.87
1.87
3.46
5.51
7.78
9.94
11.69
12.77
13.04
12.52
11.41
9.99
8.60
7.47
6.66
5.97
4.98
3.29
0.60
-3.02
-7.10
-10.87
-13.39
-13.83
-11.79
-7.40
-1.38
5.17
11.09
15.51
18.06
18.94
18.69
17.97
17.25
16.72
16.38
16.14
15.97
15.98
16.29
16.97
17.93
18.94
19.70
20.01
19.80
19.07
17.89
16.31
14.45
12.43
10.48
8.81
7.58
6.76
6.17
5.50
4.50
3.02
1.09
-1.09
-3.29
-5.37
-7.29
-9.17
-11.24
-13.80
-17.13
-21.48
-26.92
-33.26
-40.05
-46.64
-52.28
-56.34
-58.40
-58.25
-55.93
-51.55
-45.34
-37.51
-28.32
-18.04
-7.00
4.44
15.85
26.67
36.23
43.89
49.15
51.74
51.76
49.55
45.58
40.38
34.52
28.62
23.37
19.35
16.90
15.93
15.87
15.94
15.43
14.08
12.09
10.01
8.38
7.48
7.18
7.05
6.60
5.50
3.72
1.44
-1.04
-3.52
-5.92
-8.27
-10.70
-13.32
-16.19
-19.31
-22.64
-26.04
-29.30
-32.13
-34.13
-34.93
-34.23
-31.92
-28.14
-23.27
-17.79
-12.21
-6.92
-2.09
2.25
6.18
9.78
13.08
16.06
18.68
20.85
22.52
23.64
24.24
24.41
24.30
24.11
23.96
23.89
23.83
23.65
23.25
22.58
21.69
20.64
19.45
18.12
16.60
14.89
13.06
11.23
9.48
7.80
6.08
4.14
1.87
-0.74
-3.59
-6.48
-9.27
-11.88
-14.32
-16.72
-19.22
-22.03
-25.27
-28.94
-32.82
-36.50
-39.43
-41.10
-41.22
-39.75
-36.87
-32.91
-28.21
-23.00
-17.49
-11.83
-6.17
-0.68
4.51
9.30
13.62
17.39
20.54
23.00
24.72
25.70
26.04
25.89
25.44
24.87
24.29
23.75
23.25
22.71
22.00
21.00
19.56
17.64
15.29
12.70
10.10
7.67
5.50
3.47
1.33
-1.22
-4.45
-8.49
-13.26
-18.47
-23.54
-27.79
-30.61
-31.70
-31.20
-29.66
-27.78
-26.16
-24.93
-23.62
-21.27
-16.77
-9.27
1.41
14.59
28.91
42.68
54.39
63.00
68.10
69.80
68.56
65.01
59.91
54.11
48.44
43.62
40.08
37.88
36.73
36.16
35.57
34.58
32.96
30.79
28.32
25.91
23.82
22.11
20.64
19.14
17.40
15.38
13.23
11.24
9.60
8.36
7.34
6.19
4.57
2.26
-0.72
-4.09
-7.41
-10.31
-12.58
-14.31
-15.74
-17.15
-18.68
-20.30
-21.94
-23.53
-25.16
-27.03
-29.31
-32.02
-34.96
-37.76
-40.04
-41.51
-42.11
-41.93
-41.12
-39.79
-37.93
-35.45
-32.22
-28.12
-23.11
-17.23
-10.59
-3.50
3.51
9.79
14.65
17.65
18.75
18.30
16.92
15.22
13.60
12.21
11.09
10.20
9.58
9.22
8.99
8.58
7.65
5.91
3.30
-0.01
-3.71
-7.47
-10.96
-13.80
-15.56
-15.86
-14.50
-11.69
-7.96
-4.08
-0.67
2.07
4.35
6.64
9.32
12.43
15.62
18.35
20.09
20.49
19.50
17.28
14.13
10.49
6.86
3.79
1.81
1.26
2.24
4.56
7.77
11.35
14.88
18.17
21.19
24.03
26.66
28.89
30.38
30.81
30.04
28.18
25.55
22.62
19.83
17.51
15.82
14.81
14.36
14.30
14.39
14.46
14.44
14.35
14.26
14.20
14.09
13.83
13.33
12.57
11.58
10.40
9.05
7.55
5.99
4.49
3.21
2.22
1.44
0.63
-0.45
-2.02
-4.04
-6.33
-8.68
-10.89
-12.93
-14.87
-16.87
-19.02
-21.41
-23.97
-26.58
-28.98
-30.89
-31.99
-32.09
-31.16
-29.31
-26.77
-23.71
-20.22
-16.29
-11.96
-7.33
-2.64
1.81
5.78
9.12
11.86
14.09
15.89
17.30
18.24
18.72
18.77
18.56
18.22
17.87
17.55
17.27
17.09
17.11
17.43
18.03
18.66
18.93
18.52
17.27
15.33
13.09
10.91
9.01
7.40
5.93
4.45
2.84
1.07
-0.87
-2.97
-5.18
-7.36
-9.35
-11.05
-12.49
-13.89
-15.59
-17.83
-20.66
-23.84
-26.89
-29.26
-30.51
-30.42
-29.05
-26.67
-23.62
-20.22
-16.69
-13.09
-9.44
-5.72
-1.91
1.96
5.74
9.22
12.13
14.25
15.49
15.96
15.97
15.85
15.86
16.03
16.20
16.15
15.73
14.96
14.05
13.25
12.76
12.56
12.49
12.32
11.84
10.96
9.66
8.05
6.27
4.44
2.63
0.91
-0.73
-2.35
-4.01
-5.77
-7.63
-9.50
-11.30
-12.97
-14.61
-16.40
-18.58
-21.31
-24.51
-27.94
-31.20
-33.82
-35.47
-35.91
-35.11
-33.17
-30.27
-26.64
-22.51
-18.07
-13.48
-8.85
-4.28
0.15
4.31
8.06
11.25
13.78
15.64
16.91
17.72
18.23
18.54
18.70
18.71
18.59
18.34
18.00
17.58
17.08
16.51
15.85
15.10
14.28
13.37
12.36
11.21
9.96
8.66
7.43
6.32
5.36
4.44
3.45
2.26
0.79
-0.96
-2.95
-5.09
-7.24
-9.26
-11.04
-12.56
-13.91
-15.28
-16.85
-18.76
-20.99
-23.30
-25.34
-26.66
-26.92
-25.95
-23.81
-20.74
-17.08
-13.09
-8.93
-4.69
-0.43
3.73
7.57
10.84
13.34
14.99
15.91
16.30
16.42
16.49
16.62
16.84
17.04
17.10
16.91
16.45
15.79
15.05
14.36
13.77
13.23
12.68
12.03
11.24
10.27
9.10
7.70
6.11
4.36
2.50
0.64
-1.15
-2.82
-4.36
-5.83
-7.36
-9.06
-11.01
-13.22
-15.64
-18.22
-20.92
-23.72
-26.54
-29.19
-31.28
-32.35
-32.04
-30.24
-27.13
-23.14
-18.77
-14.38
-10.18
-6.21
-2.48
1.05
4.36
7.42
10.22
12.72
14.84
16.51
17.63
18.23
18.42
18.37
18.26
18.16
18.02
17.77
17.34
16.76
16.11
15.51
14.96
14.40
13.67
12.64
11.28
9.66
7.89
6.08
4.28
2.47
0.58
-1.43
-3.55
-5.74
-7.93
-10.06
-12.12
-14.16
-16.26
-18.51
-20.99
-23.71
-26.60
-29.43
-31.89
-33.56
-34.03
-33.03
-30.50
-26.65
-21.89
-16.70
-11.49
-6.56
-1.99
2.21
6.07
9.59
12.70
15.38
17.57
19.30
20.57
21.36
21.64
21.34
20.48
19.15
17.60
16.07
14.81
13.94
13.42
13.12
12.84
12.37
11.62
10.54
9.21
7.73
6.21
4.73
3.27
1.78
0.17
-1.61
-3.51
-5.41
-7.16
-8.71
-10.06
-11.43
-12.99
-14.93
-17.34
-20.18
-23.34
-26.63
-29.80
-32.58
-34.70
-35.88
-35.92
-34.71
-32.24
-28.65
-24.16
-19.12
-13.88
-8.82
-4.20
-0.20
3.14
5.90
8.20
10.16
11.88
13.42
14.82
16.11
17.23
18.10
18.56
18.47
17.79
16.61
15.23
13.98
13.13
12.76
12.75
12.81
12.68
12.26
11.62
10.95
10.36
9.83
9.16
8.14
6.67
4.82
2.84
0.95
-0.76
-2.37
-4.05
-5.95
-8.06
-10.28
-12.50
-14.68
-16.92
-19.37
-22.11
-25.04
-27.87
-30.15
-31.42
-31.34
-29.73
-26.67
-22.46
-17.54
-12.42
-7.52
-3.11
0.69
3.95
6.83
9.48
11.99
14.33
16.45
18.22
19.55
20.37
20.66
20.47
19.93
19.27
18.72
18.49
18.64
19.05
19.45
19.55
19.15
18.19
16.86
15.35
13.84
12.35
10.83
9.16
7.33
5.42
3.58
1.96
0.63
-0.42
-1.20
-1.73
-1.96
-1.93
-1.78
-1.78
-2.27
-3.50
-5.50
-8.04
-10.65
-12.74
-13.80
-13.54
-11.99
-9.49
-6.52
-3.49
-0.59
2.18
4.92
7.62
10.09
12.03
13.21
13.65
13.62
13.56
13.78
14.39
15.18
15.84
16.13
16.01
15.65
15.31
15.16
15.20
15.28
15.12
14.53
13.44
11.90
10.05
8.02
5.91
3.77
1.69
-0.19
-1.75
-2.96
-3.94
-4.95
-6.24
-7.97
-10.11
-12.50
-15.03
-17.70
-20.63
-23.90
-27.45
-30.94
-33.82
-35.55
-35.75
-34.37
-31.68
-28.06
-23.93
-19.58
-15.12
-10.61
-6.09
-1.68
2.43
6.01
8.84
10.82
11.97
12.51
12.73
12.92
13.25
13.68
14.05
14.19
13.99
13.52
12.91
12.26
11.63
11.01
10.36
9.69
9.04
8.41
7.73
6.87
5.75
4.33
2.65
0.78
-1.23
-3.36
-5.61
-7.88
-10.08
-12.05
-13.80
-15.42
-17.13
-19.16
-21.63
-24.59
-27.90
-31.31
-34.46
-36.88
-38.18
-38.03
-36.36
-33.32
-29.26
-24.64
-19.82
-15.07
-10.46
-6.01
-1.68
2.46
6.31
9.68
12.40
14.33
15.47
15.95
16.00
15.88
15.78
15.77
15.83
15.86
15.76
15.52
15.13
14.64
14.07
13.43
12.70
11.89
11.02
10.13
9.19
8.08
6.69
4.93
2.89
0.77
-1.22
-2.95
-4.50
-6.08
-7.94
-10.17
-12.76
-15.54
-18.41
-21.34
-24.35
-27.47
-30.53
-33.21
-35.12
-35.92
-35.44
-33.68
-30.82
-27.05
-22.60
-17.68
-12.50
-7.30
-2.32
2.23
6.23
9.65
12.54
14.97
16.94
18.42
19.35
19.68
19.51
19.00
18.43
18.03
17.90
17.99
18.11
18.07
17.72
17.08
16.20
15.22
14.22
13.25
12.27
11.24
10.07
8.70
7.07
5.17
3.07
0.90
-1.22
-3.16
-4.96
-6.76
-8.75
-11.13
-13.98
-17.22
-20.68
-24.12
-27.33
-30.09
-32.16
-33.27
-33.16
-31.67
-28.83
-24.92
-20.35
-15.57
-10.94
-6.61
-2.64
1.01
4.34
7.32
9.92
12.18
14.15
15.86
17.30
18.37
18.94
18.87
18.14
16.86
15.28
13.74
12.62
12.11
12.22
12.71
13.18
13.28
12.80
11.72
10.18
8.30
6.20
3.86
1.29
-1.53
-4.50
-7.52
-10.50
-13.37
-16.07
-18.58
-20.89
-23.04
-25.19
-27.50
-30.10
-32.90
-35.57
-37.56
-38.32
-37.45
-34.90
-30.98
-26.18
-20.98
-15.72
-10.56
-5.58
-0.84
3.57
7.51
10.93
13.81
16.17
18.01
19.28
19.93
20.02
19.79
19.57
19.64
20.09
20.75
21.33
21.55
21.36
20.88
20.36
20.00
19.84
19.81
19.72
19.42
18.86
18.05
17.02
15.84
14.52
13.07
11.45
9.61
7.52
5.17
2.60
-0.10
-2.88
-5.73
-8.71
-11.86
-15.17
-18.48
-21.47
-23.74
-24.89
-24.64
-22.90
-19.81
-15.70
-11.00
-6.12
-1.39
3.04
7.08
10.74
13.99
16.79
19.11
20.91
22.19
22.92
23.06
22.59
21.65
20.49
19.44
18.84
18.82
19.26
19.84
20.18
20.01
19.27
18.07
16.62
15.11
13.62
12.19
10.79
9.43
8.06
6.60
4.96
3.07
0.91
-1.48
-3.95
-6.33
-8.52
-10.53
-12.52
-14.76
-17.50
-20.85
-24.67
-28.59
-32.11
-34.74
-36.12
-36.04
-34.46
-31.47
-27.27
-22.23
-16.78
-11.41
-6.52
-2.32
1.20
4.20
6.91
9.50
12.02
14.40
16.51
18.22
19.44
20.14
20.37
20.21
19.79
19.21
18.58
17.94
17.37
16.92
16.59
16.36
16.15
15.81
15.20
14.23
12.89
11.24
9.40
7.47
5.50
3.51
1.46
-0.62
-2.71
-4.78
-6.83
-8.88
-10.99
-13.22
-15.65
-18.33
-21.33
-24.64
-28.09
-31.35
-33.96
-35.38
-35.27
-33.51
-30.30
-26.06
-21.29
-16.37
-11.54
-6.90
-2.47
1.68
5.42
8.56
10.98
12.64
13.69
14.35
14.85
15.31
15.72
16.03
16.19
16.22
16.20
16.18
16.12
15.92
15.47
14.68
13.62
12.40
11.21
10.13
9.17
8.17
6.96
5.40
3.45
1.30
-0.78
-2.54
-3.87
-4.91
-5.94
-7.22
-8.97
-11.18
-13.75
-16.52
-19.33
-21.99
-24.25
-25.75
-26.13
-25.08
-22.56
-18.73
-13.99
-8.80
-3.58
1.38
5.90
9.92
13.41
16.39
18.93
21.10
22.94
24.49
25.70
26.47
26.72
26.46
25.82
25.02
24.24
23.60
23.05
22.47
21.73
20.78
19.70
18.61
17.59
16.63
15.61
14.32
12.59
10.33
7.64
4.74
1.91
-0.59
-2.68
-4.46
-6.25
-8.43
-11.37
-15.24
-19.97
-25.21
-30.33
-34.45
-36.66
-36.22
-32.78
-26.56
-18.33
-9.23
-0.44
6.99
12.36
15.23
15.46
13.14
8.60
2.40
-4.67
-11.77
-18.14
-23.29
-27.00
-29.29
-30.41
-30.66
-30.35
-29.74
-28.84
-27.51
-25.44
-22.29
-17.97
-12.66
-6.88
-1.34
3.23
6.27
7.52
7.06
5.35
3.07
1.05
-0.00
0.31
1.92
4.28
6.60
8.15
8.56
8.07
7.44
7.65
9.50
13.25
18.49
24.33
29.71
33.76
35.93
36.07
34.24
30.63
25.58
19.64
13.54
8.11
4.05
1.78
1.36
2.55
4.98
8.24
11.93
15.63
18.86
21.22
22.42
22.44
21.53
20.08
18.50
17.02
15.69
14.44
13.17
11.92
10.81
10.01
9.60
9.50
9.47
9.18
8.36
6.84
4.64
1.94
-0.98
-3.81
-6.27
-8.25
-9.75
-10.89
-11.87
-12.83
-13.92
-15.28
-17.09
-19.52
-22.67
-26.53
-30.85
-35.28
-39.48
-43.17
-46.18
-48.46
-49.84
-50.15
-49.15
-46.72
-42.90
-37.94
-32.18
-25.97
-19.61
-13.28
-7.16
-1.42
3.72
8.00
11.15
13.04
13.76
13.61
13.09
12.69
12.73
13.33
14.36
15.59
16.80
17.87
18.76
19.52
20.13
20.51
20.49
19.88
18.55
16.44
13.69
10.54
7.35
4.43
2.03
0.21
-1.11
-2.08
-2.91
-3.78
-4.88
-6.25
-7.97
-10.04
-12.43
-15.08
-17.87
-20.58
-22.91
-24.48
-24.96
-24.15
-22.07
-18.91
-15.01
-10.67
-6.15
-1.60
2.86
7.11
11.01
14.44
17.30
19.54
21.14
22.09
22.44
22.31
21.80
21.11
20.38
19.74
19.24
18.88
18.61
18.37
18.10
17.76
17.30
16.65
15.74
14.50
12.91
11.04
9.02
7.03
5.20
3.57
2.03
0.39
-1.51
-3.71
-6.12
-8.54
-10.79
-12.82
-14.76
-16.85
-19.31
-22.19
-25.33
-28.27
-30.52
-31.62
-31.35
-29.77
-27.10
-23.62
-19.53
-14.94
-9.95
-4.71
0.55
5.48
9.80
13.32
16.01
18.00
19.47
20.56
21.36
21.86
22.01
21.78
21.18
20.25
19.12
17.90
16.73
15.77
15.09
14.71
14.58
14.53
14.34
13.82
12.84
11.40
9.67
7.85
6.17
4.71
3.41
1.98
0.13
-2.40
-5.60
-9.15
-12.54
-15.29
-17.21
-18.54
-19.82
-21.60
-24.20
-27.45
-30.77
-33.44
-34.83
-34.63
-32.85
-29.76
-25.69
-20.97
-15.89
-10.73
-5.75
-1.16
2.87
6.28
9.05
11.25
12.90
14.07
14.80
15.16
15.24
15.14
15.00
14.88
14.87
14.92
15.00
15.01
14.89
14.56
14.01
13.24
12.29
11.18
9.97
8.72
7.44
6.13
4.77
3.30
1.72
0.07
-1.54
-3.05
-4.43
-5.77
-7.24
-8.97
-11.03
-13.37
-15.89
-18.47
-21.01
-23.40
-25.49
-27.01
-27.67
-27.20
-25.53
-22.80
-19.26
-15.26
-11.04
-6.76
-2.53
1.51
5.17
8.24
10.52
11.98
12.69
12.80
12.51
11.95
11.24
10.45
9.62
8.82
8.14
7.63
7.35
7.24
7.15
6.88
6.28
5.31
4.08
2.82
1.76
1.01
0.51
0.05
-0.65
-1.83
-3.58
-5.85
-8.41
-11.00
-13.32
-15.22
-16.70
-17.93
-19.18
-20.71
-22.63
-24.81
-26.91
-28.42
-28.94
-28.22
-26.31
-23.40
-19.82
-15.80
-11.49
-6.95
-2.29
2.31
6.60
10.34
13.41
15.82
17.66
19.02
19.95
20.46
20.52
20.19
19.60
18.91
18.25
17.70
17.24
16.78
16.22
15.49
14.57
13.55
12.53
11.59
10.70
9.75
8.58
7.12
5.44
3.71
2.04
0.47
-1.14
-2.99
-5.22
-7.78
-10.44
-12.88
-14.89
-16.53
-18.06
-19.88
-22.25
-25.18
-28.31
-31.13
-33.07
-33.74
-32.97
-30.81
-27.39
-22.92
-17.63
-11.84
-5.93
-0.31
4.70
9.00
12.69
15.96
18.93
21.54
23.59
24.82
25.12
24.61
23.61
22.55
21.74
21.38
21.39
21.61
21.78
21.69
21.21
20.33
19.11
17.63
16.02
14.37
12.75
11.22
9.77
8.36
6.90
5.29
3.41
1.26
-1.14
-3.64
-6.03
-8.08
-9.58
-10.43
-10.70
-10.61
-10.51
-10.80
-11.78
-13.48
-15.61
-17.63
-18.89
-18.86
-17.31
-14.35
-10.40
-6.06
-1.93
1.55
4.19
6.09
7.56
8.93
10.45
12.15
13.86
15.33
16.35
16.86
16.98
16.89
16.73
16.52
16.20
15.68
14.91
13.98
13.05
12.29
11.83
11.66
11.64
11.56
11.23
10.59
9.66
8.53
7.24
5.78
4.11
2.28
0.36
-1.50
-3.25
-4.94
-6.72
-8.77
-11.10
-13.63
-16.13
-18.49
-20.72
-23.04
-25.68
-28.69
-31.80
-34.45
-35.97
-35.82
-33.78
-30.04
-25.10
-19.50
-13.71
-8.01
-2.48
2.83
7.86
12.50
16.62
20.08
22.85
24.94
26.46
27.52
28.22
28.66
28.83
28.69
28.11
27.01
25.36
23.28
21.01
18.81
16.92
15.34
13.99
12.64
11.10
9.30
7.34
5.36
3.51
1.80
0.14
-1.64
-3.61
-5.70
-7.78
-9.70
-11.46
-13.19
-15.06
-17.19
-19.49
-21.79
-23.81
-25.36
-26.32
-26.62
-26.17
-24.88
-22.66
-19.53
-15.71
-11.49
-7.27
-3.36
0.09
3.11
5.87
8.56
11.31
14.08
16.67
18.78
20.11
20.52
20.04
18.92
17.47
15.98
14.60
13.37
12.26
11.21
10.21
9.20
8.11
6.84
5.28
3.37
1.20
-1.03
-3.11
-4.88
-6.40
-7.84
-9.44
-11.35
-13.57
-15.97
-18.33
-20.51
-22.43
-24.13
-25.68
-27.22
-28.88
-30.72
-32.74
-34.77
-36.53
-37.66
-37.83
-36.85
-34.73
-31.69
-28.00
-23.98
-19.85
-15.79
-11.90
-8.26
-4.97
-2.09
0.31
2.25
3.78
5.00
5.98
6.81
7.51
8.10
8.59
9.00
9.35
9.64
9.91
10.17
10.41
10.63
10.74
10.64
10.21
9.37
8.19
6.80
5.39
4.10
2.96
1.87
0.70
-0.66
-2.24
-4.00
-5.85
-7.70
-9.51
-11.24
-12.88
-14.48
-16.10
-17.81
-19.65
-21.61
-23.55
-25.27
-26.47
-26.83
-26.08
-24.03
-20.66
-16.20
-11.05
-5.73
-0.72
3.68
7.41
10.62
13.53
16.27
18.82
21.00
22.60
23.50
23.77
23.64
23.44
23.42
23.67
24.16
24.86
25.78
27.02
28.58
30.08
30.87
30.22
27.74
23.69
19.10
15.41
13.87
14.92
17.83
21.25
23.90
25.33
26.02
27.06
29.28
32.74
36.52
38.96
38.82
35.96
31.45
27.00
24.35
24.72
28.72
36.42
46.79
58.49
69.83
78.56
81.97
77.62
64.43
43.43
17.57
-10.42
-37.63
-61.65
-81.26
-97.06
-111.01
-125.37
-141.48
-159.05
-177.99
-196.52
-211.69
-221.27
-225.40
-226.31
-226.41
-226.32
-224.18
-219.28
-210.73
-197.99
-182.30
-166.81
-155.04
-148.82
-147.31
-132.40
-95.80
-42.20
15.16
64.27
99.37
120.27
130.36
134.68
138.50
144.38
152.89
164.20
177.19
188.94
195.39
193.30
181.83
163.36
140.99
115.74
91.89
72.98
59.91
50.90
43.50
35.97
28.47
21.33
15.34
11.25
8.87
7.07
4.14
-1.46
-11.28
-25.97
-45.39
-67.68
-89.13
-105.04
-111.11
-105.36
-87.56
-62.80
-39.85
-25.78
-18.82
-13.57
-4.25
14.32
43.11
82.53
130.84
184.13
236.00
278.80
305.59
313.30
304.43
285.82
265.89
250.10
239.06
228.47
213.10
190.20
161.25
130.48
101.72
76.32
52.32
26.15
-6.48
-47.34
-95.08
-145.98
-195.67
-239.88
-274.14
-294.32
-298.00
-287.87
-269.62
-249.64
-232.80
-221.04
-213.02
-204.90
-192.39
-161.84
-110.81
-50.17
4.28
44.16
70.96
90.23
105.86
118.35
125.55
123.46
111.18
92.69
73.84
59.73
52.36
50.61
52.30
55.76
59.44
63.65
70.17
80.22
92.79
105.90
115.58
119.03
115.92
107.36
96.05
85.29
77.74
74.50
75.12
78.10
82.06
85.94
88.75
90.27
91.22
92.72
95.51
99.23
102.39
103.27
100.55
93.71
83.34
70.77
57.40
44.06
30.71
16.57
0.80
-16.91
-36.07
-55.45
-73.41
-88.56
-100.03
-107.55
-111.14
-110.77
-106.29
-97.62
-84.99
-69.02
-50.41
-29.59
-6.70
18.14
44.29
70.25
93.84
112.84
125.83
132.60
134.01
131.30
125.59
117.55
107.45
95.42
81.62
66.25
49.56
31.80
13.16
-6.09
-25.63
-45.05
-64.00
-82.28
-100.05
-118.03
-137.39
-159.53
-185.27
-214.25
-244.49
-272.72
-295.35
-309.92
-316.19
-316.54
-315.24
-316.79
-323.94
-336.55
-351.62
-364.63
-371.40
-369.40
-357.90
-337.31
-308.40
-272.31
-231.23
-188.86
-149.89
-118.44
-96.16
-81.58
-71.15
-61.58
-51.96
-43.90
-39.84
-40.51
-43.54
-44.21
-37.99
-23.10
-1.50
22.29
43.92
61.09
74.06
84.20
92.17
97.01
96.98
91.42
82.22
73.60
70.18
74.39
85.13
98.27
108.88
113.60
111.94
105.63
97.03
87.55
77.34
65.86
52.99
39.68
27.67
18.66
13.41
11.27
10.38
8.37
3.07
-6.85
-21.47
-39.71
-59.66
-79.09
-96.00
-108.97
-117.30
-121.03
-120.64
-117.09
-111.75
-105.89
-100.18
-94.32
-87.25
-77.54
-64.08
-46.50
-25.66
-3.60
17.13
34.28
46.77
55.02
60.72
66.07
73.19
82.57
92.69
100.65
103.74
100.88
93.09
82.95
73.31
67.41
66.68
70.58
77.72
87.22
99.05
113.16
128.52
142.65
154.91
164.20
169.09
168.50
162.89
154.11
144.22
134.62
125.78
121.75
125.08
135.11
148.57
162.04
173.72
183.61
192.99
203.75
222.77
253.93
295.10
339.53
379.95
412.09
435.18
450.91
429.66
359.29
251.64
134.48
31.10
-49.22
-106.38
-143.69
-165.49
-176.94
-178.58
-171.40
-160.99
-153.65
-153.38
-160.08
-171.17
-183.92
-196.95
-206.69
-212.20
-216.35
-221.41
-228.76
-236.87
-242.55
-242.80
-236.24
-220.83
-196.77
-167.01
-135.80
-107.35
-84.41
-68.47
-59.88
-57.76
-58.70
-58.89
-55.68
-48.24
-37.72
-26.34
-16.57
-10.29
-8.05
-8.60
-9.85
-10.07
-8.49
-5.64
-2.69
-0.85
-0.56
-1.23
-1.45
0.39
5.22
12.93
22.30
31.63
39.19
43.58
43.76
38.94
28.63
12.92
-7.18
-29.59
-51.45
-69.85
-82.72
-89.59
-91.60
-90.98
-90.08
-90.42
-92.10
-94.01
-94.35
-91.59
-85.13
-75.49
-63.99
-52.14
-41.11
-31.41
-23.22
-16.66
-11.92
-9.03
-7.33
-5.28
-0.68
8.44
22.90
41.79
62.75
82.88
99.94
113.13
123.06
130.96
137.71
143.08
145.73
143.82
135.95
122.01
103.37
82.41
61.59
42.50
25.45
9.68
-5.75
-21.21
-36.14
-49.29
-59.57
-66.75
-71.78
-76.29
-81.71
-88.44
-95.50
-100.88
-102.33
-98.21
-88.01
-72.31
-52.40
-29.83
-6.07
17.56
39.84
59.74
76.44
89.55
99.12
105.66
110.00
113.10
115.79
118.42
120.62
121.24
118.81
112.12
100.95
86.36
70.39
55.39
43.13
34.28
28.38
24.32
20.88
17.18
12.91
8.14
3.21
-1.54
-5.89
-9.79
-13.30
-16.54
-19.59
-22.47
-25.24
-28.01
-30.96
-34.24
-37.82
-41.44
-44.79
-47.62
-50.03
-52.38
-55.25
-59.01
-63.62
-68.60
-73.03
-76.00
-76.86
-75.37
-71.79
-66.65
-60.61
-54.27
-48.11
-42.50
-37.75
-34.22
-32.27
-32.15
-33.89
-37.18
-41.38
-45.76
-49.70
-52.80
-54.74
-55.05
-52.82
-46.84
-35.96
-19.58
2.00
27.54
55.21
83.05
109.22
132.21
150.80
164.06
171.51
173.21
169.79
162.24
151.64
138.88
124.46
108.70
91.89
74.48
57.24
41.21
27.49
16.97
9.95
5.91
3.63
1.55
-1.59
-6.21
-11.75
-16.91
-20.27
-20.95
-18.90
-14.84
-9.76
-4.54
0.35
4.75
8.60
11.73
13.86
14.77
14.43
13.11
11.28
9.38
7.66
6.16
4.73
3.22
1.60
-0.07
-1.61
-2.87
-3.80
-4.51
-5.19
-6.01
-7.05
-8.16
-9.00
-9.23
-8.65
-7.34
-5.68
-4.16
-3.18
-2.85
-3.08
-3.62
-4.32
-5.20
-6.43
-8.14
-10.30
-12.65
-14.87
-16.70
-18.13
-19.38
-20.76
-22.49
-24.59
-26.79
-28.75
-30.11
-30.65
-30.27
-28.95
-26.74
-23.75
-20.25
-16.66
-13.43
-10.84
-8.78
-6.68
-3.75
0.67
6.67
13.71
20.78
26.98
31.91
35.88
39.61
43.80
48.65
53.84
58.69
62.54
64.97
65.89
65.36
63.58
60.86
57.62
54.46
51.96
50.56
50.34
51.15
52.76
55.04
57.98
61.48
65.21
68.52
70.65
70.94
69.10
65.29
59.92
53.56
46.72
39.89
33.36
27.18
20.97
13.92
5.04
-6.42
-20.48
-36.26
-52.33
-67.21
-80.02
-90.55
-99.09
-105.95
-111.21
-114.76
-116.65
-117.32
-117.61
-118.42
-120.38
-123.50
-127.22
-130.38
-131.46
-128.65
-120.06
-104.11
-80.02
-48.18
-10.28
30.96
72.32
110.72
143.73
169.77
188.17
198.93
202.59
200.06
192.65
182.04
170.17
158.83
149.10
140.74
132.14
120.84
104.65
82.69
56.06
27.59
0.78
-21.37
-37.26
-46.82
-51.07
-51.35
-48.86
-44.45
-38.85
-32.90
-27.64
-24.11
-23.04
-24.54
-28.08
-32.65
-37.10
-40.50
-42.35
-42.63
-41.69
-40.01
-38.00
-35.81
-33.45
-30.81
-27.90
-24.90
-22.15
-19.97
-18.53
-17.76
-17.43
-17.34
-17.40
-17.74
-18.68
-20.53
-23.45
-27.25
-31.38
-35.03
-37.42
-38.05
-36.94
-34.67
-32.14
-30.28
-29.71
-30.60
-32.66
-35.28
-37.75
-39.41
-39.81
-38.66
-35.92
-31.70
-26.29
-20.12
-13.71
-7.61
-2.31
1.85
4.76
6.55
7.51
8.03
8.43
8.96
9.66
10.46
11.16
11.56
11.49
10.95
10.10
9.14
8.28
7.62
7.11
6.64
6.11
5.47
4.77
4.06
3.37
2.69
1.99
1.20
0.23
-1.02
-2.68
-4.87
-7.61
-10.81
-14.22
-17.52
-20.47
-22.93
-25.02
-26.90
-28.72
-30.40
-31.64
-31.99
-31.07
-28.74
-25.13
-20.60
-15.59
-10.49
-5.55
-0.93
3.26
6.87
9.75
11.75
12.79
12.86
12.03
10.45
8.35
6.01
3.72
1.72
0.22
-0.69
-0.97
-0.69
0.05
1.11
2.34
3.57
4.59
5.22
5.26
4.61
3.28
1.40
-0.84
-3.19
-5.41
-7.28
-8.66
-9.50
-9.92
-10.13
-10.41
-10.99
-11.90
-12.99
-13.93
-14.41
-14.31
-13.78
-13.20
-13.03
-13.67
-15.29
-17.73
-20.53
-22.98
-24.34
-23.95
-21.53
-17.19
-11.48
-5.11
1.16
6.74
11.33
14.84
17.32
18.91
19.78
20.11
20.06
19.74
19.16
18.24
16.88
15.05
12.86
10.59
8.60
7.15
6.26
5.78
5.37
4.78
3.92
2.95
2.16
1.81
1.98
2.48
3.03
3.29
3.10
2.46
1.49
0.35
-0.87
-2.16
-3.59
-5.24
-7.28
-9.86
-13.11
-17.12
-21.74
-26.55
-30.90
-34.05
-35.36
-34.55
-31.70
-27.23
-21.72
-15.79
-9.96
-4.62
-0.05
3.61
6.31
8.07
9.02
9.31
9.14
8.71
8.23
7.87
7.74
7.85
8.11
8.35
8.40
8.20
7.80
7.35
7.02
6.90
6.93
6.95
6.72
6.10
5.07
3.74
2.27
0.81
-0.53
-1.78
-2.97
-4.20
-5.52
-6.95
-8.37
-9.61
-10.50
-10.92
-10.98
-10.94
-11.16
-11.93
-13.31
-15.04
-16.65
-17.59
-17.47
-16.21
-14.00
-11.19
-8.10
-4.93
-1.72
1.56
4.87
8.02
10.72
12.74
14.00
14.61
14.83
14.87
14.84
14.70
14.38
13.88
13.27
12.69
12.22
11.82
11.40
10.85
10.13
9.33
8.54
7.86
7.30
6.82
6.38
5.92
5.36
4.59
3.56
2.25
0.77
-0.73
-2.12
-3.33
-4.45
-5.60
-7.02
-8.92
-11.59
-15.21
-19.86
-25.33
-31.09
-36.33
-40.22
-42.14
-41.83
-39.50
-35.66
-30.97
-26.07
-21.43
-17.36
-13.96
-11.22
-9.05
-7.42
-6.39
-6.15
-6.86
-8.54
-11.01
-13.90
-16.79
-19.43
-21.79
-24.09
-26.61
-29.58
-32.95
-36.49
-39.86
-42.87
-45.63
-48.47
-51.75
-55.57
-59.69
-63.66
-67.07
-69.39
-69.85
-67.09
-59.28
-44.85
-23.42
3.32
31.78
57.45
76.48
86.94
89.15
85.06
77.08
67.19
56.73
46.64
37.93
31.61
28.49
28.60
31.15
34.69
37.70
39.09
38.51
36.32
33.19
29.90
27.00
24.85
23.54
23.04
23.16
23.56
23.72
23.03
20.97
17.29
12.15
6.13
0.09
-5.03
-8.49
-9.95
-9.52
-7.69
-5.14
-2.56
-0.55
0.51
0.34
-1.15
-3.93
-7.77
-12.28
-16.94
-21.21
-24.70
-27.16
-28.60
-29.20
-29.35
-29.46
-29.94
-31.00
-32.56
-34.21
-35.24
-34.82
-32.28
-27.31
-20.09
-11.25
-1.76
7.36
15.26
21.47
25.92
28.90
30.84
32.09
32.84
33.13
32.97
32.45
31.72
30.87
29.89
28.55
26.55
23.72
20.19
16.38
12.90
10.26
8.74
8.34
8.77
9.68
10.66
11.34
11.44
10.79
9.41
7.45
5.23
3.07
1.21
-0.27
-1.50
-2.68
-4.05
-5.81
-8.08
-10.89
-14.28
-18.23
-22.69
-27.55
-32.64
-37.71
-42.52
-46.83
-50.53
-53.54
-55.76
-57.01
-57.06
-55.79
-53.40
-50.53
-48.19
-47.47
-49.09
-52.98
-58.22
-63.25
-66.35
-66.16
-62.01
-53.96
-42.76
-29.63
-15.96
-3.00
8.49
18.52
27.87
37.81
49.61
64.03
80.92
99.32
117.64
134.08
147.02
155.40
158.97
158.41
155.17
151.04
147.39
144.70
142.28
138.66
132.18
121.76
107.28
89.61
70.13
50.35
31.41
14.00
-1.61
-15.35
-27.09
-36.52
-43.13
-46.42
-46.25
-43.16
-38.33
-33.31
-29.53
-27.79
-27.99
-29.35
-30.81
-31.56
-31.38
-30.55
-29.64
-29.13
-29.09
-29.30
-29.38
-29.10
-28.58
-28.23
-28.58
-29.98
-32.41
-35.38
-38.05
-39.56
-39.28
-37.06
-33.19
-28.19
-22.60
-16.79
-10.88
-4.98
0.79
6.11
10.62
13.98
16.13
17.16
17.32
16.82
15.68
13.80
11.04
7.33
2.66
-2.82
-8.90
-15.23
-21.26
-26.19
-29.12
-29.27
-26.32
-20.59
-13.09
-5.23
1.66
6.79
10.11
12.25
14.09
16.31
19.10
22.12
24.70
26.22
26.28
24.78
21.91
18.07
13.86
10.09
7.62
7.16
8.86
12.14
15.72
18.18
18.49
16.56
13.22
9.86
7.74
7.42
8.55
10.19
11.26
11.12
9.71
7.42
4.77
2.03
-0.85
-4.16
-8.13
-12.71
-17.53
-22.06
-25.80
-28.49
-30.21
-31.34
-32.37
-33.74
-35.65
-37.92
-40.08
-41.49
-41.57
-40.00
-36.85
-32.55
-27.74
-23.08
-19.03
-15.83
-13.45
-11.71
-10.34
-9.04
-7.60
-5.85
-3.73
-1.34
1.12
3.35
5.02
5.81
5.59
4.45
2.72
0.90
-0.51
-1.21
-1.14
-0.50
0.34
1.06
1.45
1.47
1.19
0.72
0.16
-0.46
-1.13
-1.86
-2.70
-3.78
-5.30
-7.45
-10.33
-13.87
-17.78
-21.68
-25.14
-27.78
-29.33
-29.62
-28.60
-26.33
-23.04
-19.01
-14.59
-10.04
-5.53
-1.12
3.17
7.26
11.01
14.27
16.95
19.01
20.46
21.25
21.27
20.45
18.74
16.28
13.40
10.51
7.97
6.01
4.63
3.68
2.92
2.18
1.43
0.80
0.53
0.76
1.54
2.64
3.72
4.41
4.45
3.79
2.57
1.01
-0.65
-2.20
-3.52
-4.53
-5.26
-5.86
-6.55
-7.61
-9.22
-11.35
-13.75
-15.96
-17.51
-18.04
-17.41
-15.71
-13.20
-10.15
-6.80
-3.37
-0.04
2.99
5.53
7.45
8.76
9.53
9.96
10.18
10.27
10.17
9.76
8.92
7.64
6.02
4.31
2.80
1.75
1.26
1.27
1.47
1.43
0.70
-0.98
-3.66
-7.02
-10.50
-13.44
-15.25
-15.54
-14.20
-11.30
-7.04
-1.71
4.31
10.53
16.32
20.95
23.76
24.28
22.45
18.66
13.80
8.97
5.28
3.45
3.66
5.48
8.11
10.63
12.29
12.65
11.67
9.66
7.21
5.06
3.88
4.07
5.58
7.90
10.31
12.20
13.35
13.88
14.17
14.47
14.82
15.11
15.20
15.08
14.92
14.86
14.91
14.84
14.34
13.14
11.23
8.81
6.26
3.92
2.00
0.54
-0.59
-1.61
-2.73
-4.12
-5.84
-7.81
-9.85
-11.72
-13.26
-14.45
-15.42
-16.38
-17.53
-18.94
-20.50
-21.91
-22.86
-23.00
-22.16
-20.30
-17.55
-14.12
-10.25
-6.21
-2.23
1.44
4.62
7.13
8.92
10.04
10.68
11.04
11.28
11.44
11.42
11.09
10.35
9.23
7.92
6.66
5.68
5.10
4.81
4.62
4.27
3.63
2.68
1.58
0.49
-0.47
-1.27
-2.01
-2.80
-3.73
-4.81
-6.03
-7.33
-8.66
-9.94
-11.09
-12.06
-12.81
-13.33
-13.65
-13.84
-13.96
-14.14
-14.52
-15.23
-16.34
-17.73
-19.19
-20.30
-20.70
-20.10
-18.39
-15.68
-12.21
-8.31
-4.30
-0.50
2.87
5.61
7.67
9.10
10.04
10.68
11.12
11.37
11.32
10.91
10.09
9.03
7.95
7.10
6.52
6.05
5.37
4.16
2.37
0.20
-1.81
-3.07
-3.10
-1.70
0.97
4.48
8.22
11.61
14.25
16.01
17.10
17.89
18.77
19.86
20.93
21.45
20.80
18.50
14.44
8.88
2.32
-4.57
-11.20
-17.01
-21.56
-24.45
-25.41
-24.32
-21.34
-16.96
-11.91
-7.01
-2.96
-0.11
1.65
2.70
3.58
4.59
5.77
6.88
7.58
7.68
7.24
6.49
5.73
5.19
4.90
4.82
4.79
4.70
4.49
4.14
3.66
3.04
2.28
1.36
0.31
-0.78
-1.74
-2.49
-3.05
-3.60
-4.40
-5.64
-7.27
-9.04
-10.53
-11.42
-11.63
-11.39
-11.10
-11.20
-11.93
-13.31
-15.14
-17.09
-18.76
-19.76
-19.75
-18.50
-16.00
-12.41
-8.12
-3.53
0.94
4.96
8.30
10.87
12.68
13.91
14.82
15.64
16.46
17.13
17.39
17.01
15.93
14.39
12.71
11.24
10.16
9.46
9.00
8.62
8.23
7.74
7.14
6.39
5.51
4.52
3.49
2.50
1.64
0.91
0.28
-0.37
-1.14
-2.15
-3.46
-5.06
-6.85
-8.70
-10.47
-12.09
-13.57
-15.05
-16.74
-18.84
-21.42
-24.35
-27.25
-29.59
-30.81
-30.58
-28.84
-25.84
-22.01
-17.81
-13.56
-9.41
-5.41
-1.57
1.98
5.05
7.45
9.12
10.14
10.76
11.22
11.70
12.18
12.47
12.36
11.74
10.68
9.47
8.44
7.81
7.60
7.63
7.64
7.44
6.99
6.42
5.87
5.42
4.99
4.42
3.55
2.33
0.86
-0.64
-2.01
-3.15
-4.10
-4.99
-5.96
-7.08
-8.35
-9.74
-11.20
-12.78
-14.55
-16.49
-18.42
-19.97
-20.66
-20.11
-18.15
-14.93
-10.85
-6.43
-2.11
1.85
5.33
8.35
10.94
13.15
14.96
16.38
17.42
18.11
18.57
18.90
19.17
19.40
19.56
19.59
19.54
19.52
19.69
20.17
20.92
21.78
22.53
23.01
23.23
23.36
23.61
24.18
25.11
26.38
27.87
29.44
30.99
32.44
33.86
35.41
37.31
39.72
42.57
45.49
47.91
49.25
49.14
47.60
45.01
42.02
39.34
37.60
37.30
38.71
41.91
46.73
52.65
58.78
63.94
66.95
66.95
63.64
57.21
48.10
36.64
22.89
6.74
-11.77
-32.11
-53.28
-74.11
-93.84
-112.45
-130.60
-149.08
-168.18
-187.33
-205.18
-220.16
-231.14
-237.70
-239.98
-238.06
-231.35
-218.52
-198.17
-169.80
-134.62
-95.55
-56.29
-20.00
11.59
38.36
61.06
80.40
96.46
108.88
117.41
122.45
124.79
125.00
122.68
116.51
105.03
87.94
66.90
45.46
27.92
17.84
16.79
24.04
37.12
52.82
68.13
