1.593527735000000000e+09
-2.999999999999999889e-02
5.059999999999999609e+00
1.791000000000000014e+01
7.934000000000000341e+01
2.282500000000000000e+02
-4.865000000000000000e+02
-5.900000000000000355e+00
1.561500000000000057e+02
4.678000000000000114e+01
4.089999999999999858e+00
-1.169999999999999929e+00
-3.959999999999999964e+00
-1.027999999999999936e+01
-9.810000000000000497e+00
9.481000000000000227e+01
-4.375000000000000000e+01
1.219999999999999973e+00
4.621000000000000085e+01
6.832999999999999829e+01
-1.199899999999999949e+02
8.821999999999999886e+01
-2.184300000000000068e+02
-2.084399999999999977e+02
7.642000000000000171e+01
1.547100000000000080e+02
-2.078999999999999915e+01
-6.046000000000000085e+01
3.904300000000000068e+02
-1.813600000000000136e+02
-1.821999999999999886e+02
-3.046000000000000085e+01
-2.669999999999999929e+01
-1.548000000000000043e+01
6.895000000000000284e+01
9.075000000000000000e+01
-3.372599999999999909e+02
1.338600000000000136e+02
5.290000000000000036e+00
3.753999999999999915e+01
-1.664099999999999966e+02
-2.023000000000000043e+01
2.355999999999999872e+01
1.388199999999999932e+02
-7.618999999999999773e+01
-3.105999999999999872e+01
3.500999999999999801e+01
2.207000000000000028e+01
-6.519999999999999574e+00
1.443999999999999950e+01
9.599999999999999645e+00
-3.990000000000000213e+00
-2.959999999999999964e+00
9.449999999999999289e+00
-1.639999999999999902e+00
-1.418999999999999950e+01
1.107000000000000028e+01
-4.410000000000000142e+00
-1.103999999999999915e+01
7.660000000000000142e+00
2.750000000000000000e+00
-1.297000000000000064e+01
-2.100000000000000000e+01
2.093499999999999943e+02
-1.131700000000000017e+02
-6.890000000000000568e+01
-6.592000000000000171e+01
2.836999999999999886e+02
-1.385999999999999943e+01
-1.267999999999999972e+01
-1.428999999999999915e+01
-1.254899999999999949e+02
-3.634000000000000341e+01
9.112000000000000455e+01
-1.021700000000000017e+02
-2.891399999999999864e+02
5.715999999999999659e+01
3.471600000000000250e+02
-1.177900000000000063e+02
-1.155999999999999943e+02
-4.790000000000000036e+00
-2.669999999999999929e+01
-4.519999999999999574e+00
1.929999999999999938e+00
-1.325000000000000000e+01
-9.960000000000000853e+00
1.701999999999999957e+01
2.770000000000000018e+00
9.599999999999999645e-01
-3.720000000000000195e+00
-2.287000000000000099e+01
5.190000000000000391e+00
-5.030000000000000249e+00
-1.244999999999999929e+01
3.486999999999999744e+01
-3.069999999999999840e+00
-1.916000000000000014e+01
1.903000000000000114e+01
-1.601999999999999957e+01
-2.362999999999999901e+01
3.520000000000000018e+00
-8.609999999999999432e+00
1.110999999999999943e+01
7.810999999999999943e+01
-1.344999999999999929e+01
-6.102000000000000313e+01
-3.735000000000000142e+01
1.078400000000000034e+02
1.650000000000000000e+01
-1.365000000000000000e+02
6.503000000000000114e+01
8.060000000000000497e+00
1.731699999999999875e+02
-1.027999999999999936e+01
1.111500000000000057e+02
-4.392000000000000171e+01
-2.269000000000000128e+01
3.390999999999999659e+01
-5.809999999999999609e+00
1.040000000000000036e+01
2.412999999999999901e+01
-1.199999999999999956e-01
-8.900000000000000355e+00
2.580000000000000071e+00
-1.109999999999999964e+01
2.332999999999999829e+01
3.000000000000000000e+00
3.732000000000000028e+01
1.139000000000000057e+01
-3.945000000000000284e+01
9.490000000000000213e+00
-1.823999999999999844e+01
-4.230000000000000426e+00
8.699999999999999956e-01
-1.175000000000000000e+01
2.290000000000000036e+00
1.900000000000000022e-01
-9.619999999999999218e+00
1.648999999999999844e+01
1.428999999999999915e+01
-2.753000000000000114e+01
-1.623999999999999844e+01
-1.524000000000000021e+01
1.632000000000000028e+01
3.442000000000000171e+01
-4.418999999999999773e+01
-1.019999999999999929e+01
3.832000000000000028e+01
-1.513000000000000078e+01
1.853999999999999915e+01
2.330999999999999872e+01
-2.348000000000000043e+01
-9.160000000000000142e+00
-4.196999999999999886e+01
3.085999999999999943e+01
1.142999999999999972e+01
3.035999999999999943e+01
-1.000999999999999979e+01
-4.725999999999999801e+01
-1.013000000000000078e+01
2.496000000000000085e+01
2.808999999999999986e+01
3.234000000000000341e+01
-3.799000000000000199e+01
-3.032000000000000028e+01
-1.851000000000000156e+01
7.639999999999999680e+00
1.612999999999999901e+01
-1.651999999999999957e+01
2.973999999999999844e+01
2.196000000000000085e+01
-2.803000000000000114e+01
-1.001999999999999957e+01
-4.030000000000000249e+00
7.600000000000000089e-01
2.178999999999999915e+01
5.679999999999999716e+00
-7.500000000000000000e-01
1.540000000000000036e+00
-2.057999999999999829e+01
4.299999999999999822e+00
9.550000000000000711e+00
-9.119999999999999218e+00
2.017999999999999972e+01
-2.549999999999999822e+00
-1.102999999999999936e+01
1.253999999999999915e+01
-1.100000000000000006e-01
-3.919999999999999929e+00
1.366000000000000014e+01
-1.091000000000000014e+01
6.339999999999999858e+00
1.246000000000000085e+01
-1.375999999999999979e+01
1.133000000000000007e+01
-1.520000000000000018e+00
-1.910999999999999943e+01
1.819000000000000128e+01
1.076999999999999957e+01
-1.358999999999999986e+01
-3.518999999999999773e+01
1.851999999999999957e+01
-7.330000000000000071e+00
6.700000000000000178e+00
2.351000000000000156e+01
1.219999999999999973e+00
-2.021999999999999886e+01
-1.508000000000000007e+01
-4.459999999999999964e+00
1.033999999999999986e+01
-1.612000000000000099e+01
7.330000000000000071e+00
4.209999999999999964e+00
-1.141999999999999993e+01
1.867000000000000171e+01
1.057000000000000028e+01
7.169999999999999929e+00
1.520000000000000018e+00
-2.487999999999999901e+01
-9.849999999999999645e+00
-1.133000000000000007e+01
6.070000000000000284e+00
1.758999999999999986e+01
1.770000000000000018e+00
2.879999999999999893e+00
3.259999999999999787e+00
-9.580000000000000071e+00
-1.898999999999999844e+01
4.759999999999999787e+00
-1.300000000000000044e-01
1.069999999999999929e+01
1.989999999999999858e+01
-2.229999999999999982e+00
3.414000000000000057e+01
-6.300999999999999801e+01
-4.946000000000000085e+01
4.807999999999999829e+01
1.833999999999999986e+01
-1.375000000000000000e+01
-2.580000000000000071e+00
-1.005000000000000071e+01
-2.339999999999999858e+00
2.398000000000000043e+01
-2.569999999999999840e+00
-1.222000000000000064e+01
-1.390000000000000036e+01
-4.860000000000000320e+00
1.522000000000000064e+01
1.855000000000000071e+01
-1.291999999999999993e+01
9.929999999999999716e+00
-4.139999999999999680e+00
-1.009999999999999964e+01
3.850000000000000089e+00
-1.600000000000000089e+00
1.524000000000000021e+01
7.199999999999999734e-01
-1.144999999999999929e+01
1.316000000000000014e+01
-3.600000000000000089e+00
5.070000000000000284e+00
7.679999999999999716e+00
-9.410000000000000142e+00
1.064000000000000057e+01
-1.939999999999999947e+00
-1.328999999999999915e+01
5.290000000000000036e+00
-7.570000000000000284e+00
2.000000000000000042e-02
4.650000000000000355e+00
-5.719999999999999751e+00
9.589999999999999858e+00
-6.000000000000000000e+00
-2.083999999999999986e+01
9.830000000000000071e+00
4.629999999999999893e+00
-9.320000000000000284e+00
1.467999999999999972e+01
1.489999999999999991e+00
-4.450000000000000178e+00
5.009999999999999787e+00
-2.350000000000000089e+00
6.959999999999999964e+00
-2.337999999999999901e+01
-9.730000000000000426e+00
1.964699999999999989e+02
-2.181800000000000068e+02
-2.378300000000000125e+02
1.142300000000000040e+02
7.512000000000000455e+01
-5.379999999999999893e+00
-7.559999999999999609e+00
3.640000000000000124e+00
-5.969999999999999751e+00
7.889999999999999680e+00
-6.330000000000000071e+00
-2.846999999999999886e+01
1.921999999999999886e+01
3.699999999999999956e-01
1.190000000000000036e+01
2.326000000000000156e+01
-1.650000000000000000e+01
-1.835000000000000142e+01
-1.830999999999999872e+01
-5.959999999999999964e+00
2.870000000000000107e+00
5.450000000000000178e+00
-2.500000000000000000e+00
9.140000000000000568e+00
-7.549999999999999822e+00
-5.540000000000000036e+00
9.320000000000000284e+00
-2.750000000000000000e+00
1.459999999999999964e+01
-4.650000000000000355e+00
-3.050000000000000000e+01
1.908999999999999986e+01
9.509999999999999787e+00
-8.800000000000000711e+00
1.061999999999999922e+01
1.171000000000000085e+01
-5.129999999999999893e+00
7.719999999999999751e+00
5.150000000000000000e+01
3.911999999999999744e+01
-3.965999999999999659e+01
-4.317999999999999972e+01
-5.440999999999999659e+01
-7.769999999999999574e+00
1.960000000000000142e+01
2.129999999999999893e+00
2.957000000000000028e+01
3.048000000000000043e+01
2.316000000000000014e+01
-7.750000000000000000e+00
-1.289000000000000057e+01
1.320000000000000062e+00
1.436999999999999922e+01
1.433000000000000007e+01
3.661999999999999744e+01
-1.933199999999999932e+02
1.933999999999999986e+01
2.753000000000000114e+01
5.624000000000000199e+01
1.084999999999999964e+01
-3.838000000000000256e+01
1.941000000000000014e+01
6.030000000000000249e+00
-9.369999999999999218e+00
1.655000000000000071e+01
6.349999999999999645e+00
-2.379999999999999893e+00
1.358999999999999986e+01
1.340000000000000080e+00
-1.364000000000000057e+01
3.410000000000000142e+00
-7.570000000000000284e+00
-1.975000000000000000e+01
5.669999999999999929e+00
4.570000000000000284e+00
-1.138000000000000078e+01
1.413000000000000078e+01
9.070000000000000284e+00
-2.098999999999999844e+01
8.179999999999999716e+00
1.509999999999999964e+01
-1.269999999999999929e+01
-8.140000000000000568e+00
-1.310000000000000053e+00
-2.060000000000000053e+00
6.389999999999999680e+00
-1.119999999999999929e+01
-8.779999999999999361e+00
6.400000000000000355e+00
-4.330000000000000071e+00
-5.400000000000000355e-01
1.513000000000000078e+01
-2.350000000000000089e+00
-1.459999999999999964e+00
8.859999999999999432e+00
-8.859999999999999432e+00
-1.270000000000000018e+00
1.914999999999999858e+01
-1.857999999999999829e+01
-6.025000000000000000e+01
-8.615000000000000568e+01
-1.470800000000000125e+02
-7.860000000000000320e+00
6.795000000000000284e+01
8.312000000000000455e+01
8.834999999999999432e+01
1.130799999999999983e+02
-2.789999999999999858e+01
-3.080699999999999932e+02
2.203999999999999915e+01
2.091699999999999875e+02
-8.112999999999999545e+01
7.626999999999999602e+01
-1.085199999999999960e+02
-8.129000000000000625e+01
7.656999999999999318e+01
9.426999999999999602e+01
-4.789000000000000057e+01
2.167999999999999972e+01
-8.859999999999999432e+00
-1.530000000000000027e+00
-1.346000000000000085e+01
1.019800000000000040e+02
3.293999999999999773e+01
-8.731999999999999318e+01
-3.189999999999999947e+00
-8.299999999999999600e-01
1.549000000000000021e+01
4.607999999999999829e+01
-1.167399999999999949e+02
1.072000000000000064e+01
4.502000000000000313e+01
-2.523000000000000043e+01
-5.674000000000000199e+01
-2.017999999999999972e+01
1.142999999999999972e+01
-4.169999999999999929e+00
2.453999999999999915e+01
-2.876999999999999957e+01
-3.105000000000000071e+01
3.656000000000000227e+01
-1.123000000000000043e+01
1.678000000000000114e+01
4.109000000000000341e+01
-2.464999999999999858e+01
-1.209000000000000057e+02
7.015999999999999659e+01
-6.889999999999999680e+00
-1.050999999999999979e+01
3.160999999999999943e+01
1.930000000000000071e+01
2.887999999999999901e+01
9.169999999999999929e+00
4.157999999999999829e+01
-2.355999999999999872e+01
-3.996000000000000085e+01
-4.177000000000000313e+01
-1.460999999999999943e+01
2.779999999999999805e+00
-1.083999999999999986e+01
-2.030999999999999872e+01
2.319999999999999929e+01
3.504999999999999716e+01
-3.840999999999999659e+01
-4.922999999999999687e+01
9.834000000000000341e+01
2.003000000000000114e+01
-5.629999999999999893e+00
-6.382000000000000028e+01
4.127000000000000313e+01
5.747999999999999687e+01
1.388600000000000136e+02
-1.176700000000000017e+02
-1.245199999999999960e+02
-3.678000000000000114e+01
-1.675000000000000000e+01
-3.267999999999999972e+01
5.764000000000000057e+01
-1.838600000000000136e+02
-2.096999999999999886e+02
1.395200000000000102e+02
2.163499999999999943e+02
6.207999999999999829e+01
-1.766599999999999966e+02
-1.331500000000000057e+02
-1.320000000000000000e+02
2.992000000000000171e+01
-1.819000000000000128e+01
7.401000000000000512e+01
4.750000000000000000e+01
-3.429999999999999716e+01
-2.792000000000000171e+01
-6.493000000000000682e+01
8.015999999999999659e+01
-8.754999999999999716e+01
-2.769000000000000128e+01
3.300000000000000155e-01
-8.529999999999999361e+00
5.999999999999999778e-02
2.119999999999999929e+01
3.162999999999999901e+01
-8.067000000000000171e+01
-1.744099999999999966e+02
4.108399999999999750e+02
1.055199999999999960e+02
-7.959000000000000341e+01
-8.090999999999999659e+01
1.101999999999999957e+01
9.089000000000000057e+01
4.975999999999999801e+01
-2.243899999999999864e+02
1.020199999999999960e+02
4.514000000000000057e+01
1.697599999999999909e+02
-5.529999999999999716e+01
-1.273000000000000043e+01
2.680899999999999750e+02
4.531000000000000227e+01
7.784000000000000341e+01
-2.930000000000000160e+00
-2.369999999999999929e+01
-3.021999999999999886e+01
-6.593000000000000682e+01
5.310000000000000142e+01
1.908199999999999932e+02
-2.387000000000000099e+01
-8.829000000000000625e+01
-4.700000000000000178e+00
3.740000000000000213e+00
-8.400000000000000355e+00
-2.958999999999999986e+01
-6.540000000000000036e+00
6.210999999999999943e+01
-3.250000000000000000e+01
-2.651999999999999957e+01
7.600000000000000089e-01
-8.976999999999999602e+01
8.640000000000000568e+01
-2.685000000000000142e+01
1.900000000000000022e-01
1.298400000000000034e+02
-1.429099999999999966e+02
4.014999999999999858e+01
-1.052999999999999972e+02
-1.663000000000000114e+02
5.540000000000000036e+00
1.192600000000000051e+02
1.037099999999999937e+02
3.696999999999999886e+01
-1.651800000000000068e+02
-8.660999999999999943e+01
6.222999999999999687e+01
9.415999999999999659e+01
-2.056100000000000136e+02
1.096099999999999994e+02
1.069399999999999977e+02
2.366000000000000014e+01
-1.885999999999999943e+01
-5.620000000000000107e+00
3.439000000000000057e+01
2.053000000000000114e+01
6.887000000000000455e+01
-8.679000000000000625e+01
-1.131299999999999955e+02
-1.191000000000000014e+01
-1.313000000000000078e+01
1.336599999999999966e+02
-8.854999999999999716e+01
4.990000000000000213e+00
5.142000000000000171e+01
8.417000000000000171e+01
-3.232999999999999829e+01
-2.107999999999999829e+01
-1.425999999999999979e+01
-1.410999999999999943e+01
-9.820000000000000284e+00
-3.400000000000000244e-01
4.639999999999999680e+00
-1.648999999999999844e+01
-1.424000000000000021e+01
-2.100000000000000000e+01
6.124000000000000199e+01
3.870000000000000107e+00
-5.836999999999999744e+01
-2.255000000000000071e+01
5.556000000000000227e+01
4.860000000000000142e+01
2.251399999999999864e+02
-6.748999999999999488e+01
-6.200000000000000000e+01
-9.730000000000000426e+00
5.509000000000000341e+01
7.976999999999999602e+01
2.676000000000000156e+01
-1.443300000000000125e+02
-1.071899999999999977e+02
2.166500000000000057e+02
1.017800000000000011e+02
1.408000000000000007e+01
-3.270000000000000018e+00
6.879999999999999893e+00
3.720000000000000284e+01
1.068999999999999950e+01
-1.225000000000000000e+01
-1.846000000000000085e+01
-1.149999999999999911e+00
-2.225000000000000000e+01
5.585000000000000142e+01
-2.137999999999999901e+01
5.729999999999999716e+01
-7.389999999999999680e+00
-1.803999999999999915e+01
-1.600200000000000102e+02
1.668000000000000114e+02
9.031999999999999318e+01
-5.489000000000000057e+01
4.507999999999999829e+01
-1.092399999999999949e+02
-9.279999999999999716e+01
-6.209000000000000341e+01
-1.165000000000000036e+01
-3.315199999999999818e+02
1.869499999999999886e+02
5.772999999999999687e+01
1.621699999999999875e+02
-3.725999999999999801e+01
2.521500000000000057e+02
-1.375500000000000114e+02
-4.570000000000000284e+00
-8.830000000000000071e+00
-1.313000000000000078e+01
-1.174800000000000040e+02
9.029000000000000625e+01
-6.289999999999999858e+01
-1.010300000000000011e+02
-2.056299999999999955e+02
6.432999999999999829e+01
1.220900000000000034e+02
-4.634000000000000341e+01
3.728000000000000114e+01
6.660000000000000142e+00
7.110000000000000320e+00
-4.099999999999999756e-01
-4.489000000000000057e+01
9.279999999999999361e+00
2.003000000000000114e+01
-5.040000000000000036e+00
-2.979999999999999982e+00
-9.810000000000000497e+00
1.474000000000000021e+01
-5.814000000000000057e+01
2.387199999999999989e+02
-1.191500000000000057e+02
-1.192000000000000028e+02
-2.515300000000000011e+02
6.260999999999999943e+01
9.198999999999999488e+01
-3.410000000000000142e+00
-1.206000000000000050e+01
1.725699999999999932e+02
-3.950000000000000000e+01
-4.565999999999999659e+01
6.990000000000000568e+01
-3.521000000000000085e+01
-2.273000000000000043e+01
1.514900000000000091e+02
-1.929600000000000080e+02
-1.276200000000000045e+02
-1.311899999999999977e+02
-4.207999999999999829e+01
-4.931000000000000227e+01
-2.903999999999999915e+01
9.642000000000000171e+01
1.583999999999999986e+01
7.373000000000000398e+01
-6.939000000000000057e+01
-3.531000000000000227e+01
2.653799999999999955e+02
-1.991299999999999955e+02
3.974000000000000199e+01
7.796999999999999886e+01
1.033299999999999983e+02
-1.342899999999999920e+02
4.028999999999999915e+01
-1.240100000000000051e+02
6.520999999999999375e+01
3.535000000000000142e+01
-3.229999999999999982e+00
5.796000000000000085e+01
-6.654999999999999716e+01
-6.540000000000000036e+00
8.160999999999999943e+01
5.752000000000000313e+01
-2.229699999999999989e+02
-5.627000000000000313e+01
7.554000000000000625e+01
-1.555000000000000000e+02
4.129999999999999716e+01
9.156000000000000227e+01
7.357999999999999829e+01
8.945000000000000284e+01
9.332999999999999829e+01
1.599399999999999977e+02
-1.231700000000000017e+02
-1.118799999999999955e+02
4.679999999999999716e+00
-2.135399999999999920e+02
-6.043999999999999773e+01
8.210999999999999943e+01
-5.954999999999999716e+01
1.892000000000000171e+01
3.288000000000000256e+01
-3.982999999999999829e+01
8.828000000000000114e+01
-1.770200000000000102e+02
1.655200000000000102e+02
-6.626999999999999602e+01
1.490200000000000102e+02
-2.631399999999999864e+02
2.437999999999999901e+01
9.395000000000000284e+01
-1.029800000000000040e+02
7.042000000000000171e+01
9.098000000000000398e+01
8.334000000000000341e+01
-3.314100000000000250e+02
1.706800000000000068e+02
5.828000000000000114e+01
-6.610000000000000320e+00
-2.691100000000000136e+02
1.785600000000000023e+02
-1.211999999999999922e+01
3.597999999999999687e+01
4.540000000000000036e+00
4.519999999999999574e+00
-1.458000000000000007e+01
-1.358000000000000007e+01
1.687000000000000099e+01
-1.400000000000000133e-01
-1.308999999999999986e+01
1.896999999999999886e+01
-8.900000000000000355e+00
-5.290000000000000036e+00
9.300000000000000711e+00
-4.419999999999999929e+00
3.910000000000000142e+00
-1.248000000000000043e+01
9.630000000000000782e+00
-1.992999999999999972e+01
-2.719999999999999929e+01
1.323000000000000043e+01
1.288000000000000078e+01
7.660000000000000142e+00
-2.378999999999999915e+01
8.660000000000000142e+00
1.092999999999999972e+01
-2.114999999999999858e+01
8.100000000000000533e-01
8.490000000000000213e+00
-8.800000000000000711e+00
9.759999999999999787e+00
1.198000000000000043e+01
-1.058999999999999986e+01
-1.935000000000000142e+01
6.750000000000000000e+00
6.660000000000000142e+00
-5.500000000000000000e+00
3.393999999999999773e+01
1.151999999999999957e+01
-3.352000000000000313e+01
2.359999999999999876e+00
4.040000000000000036e+00
-1.239000000000000057e+01
-4.259999999999999787e+00
1.274000000000000021e+01
1.479999999999999982e+00
-3.073999999999999844e+01
1.669000000000000128e+01
-2.419999999999999929e+00
-7.469999999999999751e+00
1.438000000000000078e+01
1.600000000000000000e+01
-5.610000000000000320e+00
-1.275999999999999979e+01
7.780000000000000249e+00
3.220000000000000195e+00
-9.669999999999999929e+00
1.334999999999999964e+01
4.570000000000000284e+00
-1.689000000000000057e+01
-4.099999999999999645e+00
1.189999999999999947e+00
1.400000000000000133e-01
-7.940000000000000391e+00
5.700000000000000178e+00
1.197000000000000064e+01
3.009999999999999787e+00
5.679999999999999716e+00
1.100000000000000000e+01
-1.669000000000000128e+01
-4.200000000000000178e+00
1.501999999999999957e+01
-1.021000000000000085e+01
-2.382000000000000028e+01
1.511999999999999922e+01
4.820000000000000284e+00
-1.215000000000000036e+01
2.542000000000000171e+01
4.059999999999999609e+00
-4.699999999999999734e-01
-7.469999999999999751e+00
8.859999999999999432e+00
3.620000000000000107e+00
-2.237999999999999901e+01
5.809999999999999609e+00
7.800000000000000266e-01
-6.070000000000000284e+00
-1.241000000000000014e+01
2.378999999999999915e+01
1.639999999999999902e+00
-1.753000000000000114e+01
1.566000000000000014e+01
3.979999999999999982e+00
-1.796999999999999886e+01
6.360000000000000320e+00
1.272000000000000064e+01
1.400000000000000133e-01
-9.359999999999999432e+00
-1.889999999999999902e+00
7.849999999999999645e+00
-1.317999999999999972e+01
-1.744000000000000128e+01
1.748000000000000043e+01
8.470000000000000639e+00
-1.280000000000000071e+01
9.119999999999999218e+00
-4.171999999999999886e+01
2.769999999999999929e+01
-1.419999999999999929e+00
2.562999999999999901e+01
5.839000000000000057e+01
1.128999999999999915e+01
-6.224000000000000199e+01
-4.442999999999999972e+01
-8.990000000000000213e+00
3.620000000000000284e+01
4.263000000000000256e+01
6.360000000000000320e+00
-1.416000000000000014e+01
2.899999999999999800e-01
-1.805000000000000071e+01
1.377999999999999936e+01
1.077999999999999936e+01
-1.599000000000000021e+01
-8.179999999999999716e+00
1.798000000000000043e+01
-2.290000000000000036e+00
-3.240000000000000213e+00
-4.650000000000000355e+00
-5.799999999999999600e-01
-6.730000000000000426e+00
5.910000000000000142e+00
1.957000000000000028e+01
-2.432999999999999829e+01
2.751000000000000156e+01
-1.171000000000000085e+01
1.459999999999999964e+00
5.879999999999999893e+00
1.379999999999999893e+00
8.300000000000000711e+00
-3.899999999999999911e+00
3.706000000000000227e+01
-5.809999999999999609e+00
-4.267000000000000171e+01
-3.700999999999999801e+01
4.522999999999999687e+01
3.664000000000000057e+01
-5.868999999999999773e+01
-1.752199999999999989e+02
1.575000000000000000e+02
8.034999999999999432e+01
-1.498600000000000136e+02
-5.315999999999999659e+01
5.289000000000000057e+01
2.491000000000000014e+01
1.253999999999999915e+01
-1.056899999999999977e+02
2.382800000000000011e+02
-2.213199999999999932e+02
-1.247300000000000040e+02
3.400999999999999801e+01
-8.770999999999999375e+01
4.701899999999999977e+02
1.068299999999999983e+02
-6.288000000000000256e+01
-8.320000000000000284e+00
1.639000000000000057e+01
-4.792999999999999972e+01
-1.792299999999999898e+02
1.083599999999999994e+02
7.570999999999999375e+01
-8.706999999999999318e+01
1.405800000000000125e+02
-2.153000000000000114e+01
-2.651299999999999955e+02
-2.283999999999999986e+01
-9.169999999999999929e+00
1.565000000000000036e+01
1.456000000000000050e+01
2.676000000000000156e+01
4.395000000000000284e+01
-6.665999999999999659e+01
-3.624000000000000199e+01
3.861999999999999744e+01
6.410999999999999943e+01
-5.107999999999999829e+01
-5.534000000000000341e+01
-1.344999999999999929e+01
3.907000000000000028e+01
9.769999999999999574e+00
-2.866000000000000014e+01
-6.679999999999999716e+00
3.353000000000000114e+01
1.832999999999999829e+01
6.509999999999999787e+00
8.737999999999999545e+01
-5.011999999999999744e+01
-1.306200000000000045e+02
-9.987000000000000455e+01
1.378000000000000114e+02
4.674000000000000199e+01
-3.026999999999999957e+01
5.588000000000000256e+01
3.435999999999999943e+01
3.240000000000000213e+00
-3.722999999999999687e+01
-8.515000000000000568e+01
-4.265999999999999659e+01
8.745999999999999375e+01
1.024000000000000021e+01
-5.718999999999999773e+01
-4.106000000000000227e+01
-3.109999999999999876e+00
1.732000000000000028e+01
8.699999999999999956e-01
4.980000000000000426e+00
1.869000000000000128e+01
1.789000000000000057e+01
-7.290000000000000036e+00
-4.534000000000000341e+01
3.452000000000000313e+01
6.599999999999999645e+00
-3.413000000000000256e+01
2.085000000000000142e+01
1.812000000000000099e+01
-1.671999999999999886e+01
-1.183000000000000007e+01
2.375000000000000000e+01
-8.490000000000000213e+00
1.409999999999999920e+00
3.672999999999999687e+01
9.599999999999999645e+00
-2.194000000000000128e+01
-3.221999999999999886e+01
1.108999999999999986e+01
-1.450000000000000000e+01
1.413000000000000078e+01
3.037999999999999901e+01
1.425999999999999979e+01
-4.500000000000000111e-01
-3.209000000000000341e+01
1.730000000000000071e+01
1.726999999999999957e+01
-1.249000000000000021e+01
-9.439999999999999503e+00
1.573000000000000043e+01
-7.299999999999999822e-01
-3.546999999999999886e+01
1.564000000000000057e+01
1.336999999999999922e+01
-9.259999999999999787e+00
-1.308999999999999986e+01
1.710000000000000142e+01
2.500000000000000000e+00
-3.128000000000000114e+01
1.483999999999999986e+01
1.366999999999999993e+01
-1.626000000000000156e+01
-1.989999999999999991e+00
1.481000000000000050e+01
-3.509999999999999787e+00
-3.592000000000000171e+01
1.482000000000000028e+01
1.161999999999999922e+01
-1.250000000000000000e+01
-3.109999999999999876e+00
1.848999999999999844e+01
1.959999999999999964e+00
-1.353999999999999915e+01
1.439000000000000057e+01
5.910000000000000142e+00
-2.744999999999999929e+01
8.839999999999999858e+00
1.035999999999999943e+01
-1.380000000000000071e+01
-1.982000000000000028e+01
1.583000000000000007e+01
2.890000000000000124e+00
-3.511999999999999744e+01
1.694000000000000128e+01
1.422000000000000064e+01
-1.398000000000000043e+01
-2.640000000000000124e+00
1.261999999999999922e+01
-1.050000000000000000e+01
-2.617999999999999972e+01
1.957000000000000028e+01
1.701999999999999957e+01
-2.146999999999999886e+01
2.091000000000000014e+01
1.662000000000000099e+01
-1.251999999999999957e+01
-6.519999999999999574e+00
1.857999999999999829e+01
1.459999999999999964e+00
-3.527000000000000313e+01
1.484999999999999964e+01
9.169999999999999929e+00
-1.932999999999999829e+01
1.892999999999999972e+01
1.969999999999999929e+01
-1.136999999999999922e+01
1.546000000000000085e+01
-2.544000000000000128e+01
4.280000000000000249e+00
3.062999999999999901e+01
2.244000000000000128e+01
6.839999999999999858e+00
-2.653000000000000114e+01
-1.327999999999999936e+01
1.787000000000000099e+01
-2.080000000000000071e+00
-1.891000000000000014e+01
2.110999999999999943e+01
7.030000000000000249e+00
-2.826999999999999957e+01
1.800000000000000000e+01
1.452999999999999936e+01
-1.528999999999999915e+01
-1.073000000000000043e+01
1.491999999999999993e+01
7.000000000000000666e-02
-2.719999999999999929e+01
1.194999999999999929e+01
1.010000000000000009e+00
-2.480999999999999872e+01
1.582000000000000028e+01
1.355000000000000071e+01
-1.288000000000000078e+01
-1.183999999999999986e+01
2.137999999999999901e+01
5.290000000000000036e+00
-1.762999999999999901e+01
1.533000000000000007e+01
1.156000000000000050e+01
-1.363000000000000078e+01
-8.009999999999999787e+00
2.701000000000000156e+01
-1.639999999999999902e+00
-2.487999999999999901e+01
2.051999999999999957e+01
-1.030000000000000027e+00
-3.071999999999999886e+01
-2.089999999999999858e+00
1.063000000000000078e+01
-7.700000000000000178e+00
-1.619999999999999929e+01
2.342000000000000171e+01
1.782999999999999829e+01
2.871999999999999886e+01
-1.110100000000000051e+02
-1.823000000000000114e+02
1.528899999999999864e+02
2.846999999999999886e+01
-8.756000000000000227e+01
3.044300000000000068e+02
-9.507999999999999829e+01
-1.108100000000000023e+02
5.229999999999999716e+01
7.512000000000000455e+01
5.739999999999999858e+01
-8.498999999999999488e+01
1.074500000000000028e+02
-1.852700000000000102e+02
-3.578999999999999773e+02
-4.353999999999999915e+01
7.018000000000000682e+01
1.341000000000000014e+01
-1.117500000000000000e+02
7.318999999999999773e+01
1.285200000000000102e+02
1.737199999999999989e+02
3.110000000000000142e+01
-2.121999999999999886e+02
-5.775999999999999801e+01
-8.499999999999999778e-01
-2.958999999999999986e+01
-5.214000000000000057e+01
1.131299999999999955e+02
-2.121000000000000085e+01
-2.982999999999999829e+01
1.121200000000000045e+02
-9.789999999999999147e+00
-5.900999999999999801e+01
-3.214999999999999858e+01
8.304999999999999716e+01
4.121000000000000085e+01
-4.540000000000000036e+00
-7.000000000000000666e-02
-2.850000000000000089e+00
-2.678999999999999915e+01
6.669999999999999929e+00
6.085999999999999943e+01
6.529000000000000625e+01
-9.054999999999999716e+01
-1.041099999999999994e+02
1.588300000000000125e+02
-4.445000000000000284e+01
-3.581000000000000227e+01
-2.725000000000000000e+01
-3.865999999999999659e+01
1.046000000000000085e+01
2.689999999999999947e+00
-3.039999999999999858e+01
1.285999999999999943e+01
5.219999999999999751e+00
-1.299000000000000021e+01
-1.148000000000000043e+01
1.285999999999999943e+01
3.100000000000000089e+00
-3.535999999999999943e+01
8.230000000000000426e+00
5.070000000000000284e+00
-1.116000000000000014e+01
1.072000000000000064e+01
1.013000000000000078e+01
-4.450000000000000178e+00
-2.607000000000000028e+01
-2.408999999999999986e+01
-6.709000000000000341e+01
3.160999999999999943e+01
2.355999999999999872e+01
5.100000000000000089e-01
-3.256000000000000227e+01
3.284000000000000341e+01
8.769999999999999574e+00
-8.080000000000000071e+00
-5.339999999999999858e+01
8.490000000000000213e+00
1.473899999999999864e+02
-4.313000000000000256e+01
-2.908999999999999986e+01
-2.260000000000000142e+01
2.660000000000000142e+00
1.408999999999999986e+01
1.572000000000000064e+01
-8.499999999999999778e-01
-4.157000000000000028e+01
1.120000000000000107e+00
1.189999999999999947e+00
-2.932999999999999829e+01
2.046000000000000085e+01
5.300000000000000266e-01
-6.549999999999999822e+00
5.530000000000000249e+00
1.270000000000000018e+00
1.052999999999999936e+01
1.265000000000000036e+01
1.510999999999999943e+01
-1.610000000000000098e+00
-2.300000000000000000e+01
1.143999999999999950e+01
-4.699999999999999734e-01
-1.396000000000000085e+01
2.870000000000000107e+00
5.370000000000000107e+00
1.876999999999999957e+01
-2.133999999999999986e+01
5.730000000000000426e+00
-3.049999999999999822e+00
-1.876000000000000156e+01
1.646000000000000085e+01
5.509999999999999787e+00
-1.357000000000000028e+01
-5.410000000000000142e+00
8.439999999999999503e+00
-2.009999999999999787e+00
-1.814999999999999858e+01
1.917000000000000171e+01
2.510999999999999943e+01
4.500999999999999801e+01
3.664000000000000057e+01
-2.376999999999999886e+02
1.088799999999999955e+02
5.282000000000000028e+01
-6.723999999999999488e+01
-1.037300000000000040e+02
-2.616000000000000014e+01
8.639000000000000057e+01
2.337999999999999901e+01
-9.560000000000000497e+00
4.340999999999999659e+01
-4.942999999999999972e+01
-2.894999999999999929e+01
3.825999999999999801e+01
1.698999999999999844e+01
-8.018999999999999773e+01
-6.451000000000000512e+01
-3.800000000000000044e-01
7.006000000000000227e+01
2.416000000000000014e+01
1.717999999999999972e+01
-1.540000000000000036e+00
-4.719999999999999751e+00
2.360999999999999943e+01
1.414000000000000057e+01
-2.135999999999999943e+01
1.310999999999999943e+01
6.990000000000000213e+00
-1.111999999999999922e+01
-8.800000000000000711e+00
3.535999999999999943e+01
7.526000000000000512e+01
-1.001400000000000006e+02
9.942000000000000171e+01
1.127900000000000063e+02
-2.887300000000000182e+02
1.088000000000000078e+01
-2.567000000000000171e+01
-4.000000000000000000e+01
-3.439999999999999947e+00
2.758999999999999986e+01
4.336999999999999744e+01
1.886299999999999955e+02
-7.087000000000000455e+01
-1.919000000000000057e+02
-6.548999999999999488e+01
3.190899999999999750e+02
-1.810699999999999932e+02
-2.990699999999999932e+02
1.169999999999999929e+00
1.060600000000000023e+02
4.728999999999999915e+01
1.766500000000000057e+02
-1.125300000000000011e+02
-7.734000000000000341e+01
-1.545800000000000125e+02
-5.747999999999999687e+01
-1.795800000000000125e+02
-1.612400000000000091e+02
4.922599999999999909e+02
1.973400000000000034e+02
2.723000000000000043e+01
-2.716000000000000014e+01
-6.080000000000000071e+00
4.150000000000000355e+00
4.740000000000000213e+00
9.550000000000000711e+00
-6.820999999999999375e+01
1.081000000000000050e+01
-9.619999999999999218e+00
9.779999999999999361e+00
-3.120000000000000107e+00
-1.447000000000000064e+01
2.650000000000000000e+01
2.220000000000000195e+00
4.660000000000000142e+00
-1.438000000000000078e+01
5.490000000000000213e+00
-1.653000000000000114e+01
-2.494999999999999929e+01
-1.360999999999999943e+01
1.550999999999999979e+01
2.096000000000000085e+01
-2.421999999999999886e+01
2.928000000000000114e+01
4.828999999999999915e+01
9.179000000000000625e+01
2.748299999999999841e+02
-1.805099999999999909e+02
-3.259499999999999886e+02
-1.783799999999999955e+02
-7.173999999999999488e+01
2.585099999999999909e+02
-1.430000000000000071e+01
-1.129999999999999893e+00
2.537000000000000099e+01
-8.232999999999999829e+01
-7.379000000000000625e+01
2.938299999999999841e+02
1.559099999999999966e+02
-9.475000000000000000e+01
-1.863100000000000023e+02
-1.101099999999999994e+02
-4.278000000000000114e+01
-1.706100000000000136e+02
-8.714000000000000057e+01
-3.420000000000000284e+01
-2.796800000000000068e+02
-8.454000000000000625e+01
3.677799999999999727e+02
3.432000000000000028e+01
-2.737000000000000099e+01
-3.472999999999999687e+01
7.773000000000000398e+01
-1.274000000000000057e+02
1.302599999999999909e+02
-3.842999999999999972e+01
6.698000000000000398e+01
-7.779999999999999716e+01
-1.626899999999999977e+02
-6.121999999999999886e+01
1.617800000000000011e+02
3.231600000000000250e+02
1.928300000000000125e+02
-3.910899999999999750e+02
6.370000000000000107e+00
-1.255600000000000023e+02
-6.625000000000000000e+01
3.185099999999999909e+02
-1.268999999999999950e+01
-1.951899999999999977e+02
1.641299999999999955e+02
1.351599999999999966e+02
-4.565999999999999659e+01
-3.120400000000000205e+02
8.751000000000000512e+01
1.335000000000000000e+02
-5.661999999999999744e+01
-1.061400000000000006e+02
8.273000000000000398e+01
-2.214399999999999977e+02
1.031899999999999977e+02
2.931299999999999955e+02
-2.536800000000000068e+02
1.628899999999999864e+02
-8.095999999999999375e+01
5.452000000000000313e+01
2.041999999999999886e+02
3.465999999999999659e+01
-1.978100000000000023e+02
-3.026999999999999957e+01
5.896999999999999886e+01
5.931000000000000227e+01
7.289000000000000057e+01
6.242999999999999972e+01
-5.810999999999999943e+01
-1.623000000000000043e+01
-5.419999999999999929e+00
9.949999999999999289e+00
-5.910000000000000142e+01
7.879000000000000625e+01
-3.568999999999999773e+01
1.878999999999999915e+01
-7.367000000000000171e+01
5.925999999999999801e+01
1.408700000000000045e+02
9.087000000000000455e+01
1.987700000000000102e+02
-4.072300000000000182e+02
-9.295000000000000284e+01
-7.520999999999999375e+01
2.607999999999999829e+01
-5.999999999999999778e-01
3.148999999999999844e+01
7.075000000000000000e+01
-4.071999999999999886e+01
4.617000000000000171e+01
-2.628999999999999915e+01
-1.610000000000000098e+00
5.307000000000000028e+01
4.014999999999999858e+01
4.830000000000000071e+00
1.558999999999999986e+01
9.840999999999999659e+01
-1.517700000000000102e+02
-3.970000000000000284e+01
3.150000000000000000e+01
3.472999999999999687e+01
-5.009000000000000341e+01
-1.092999999999999972e+01
3.259000000000000341e+01
-1.125999999999999979e+01
1.610999999999999943e+01
4.280000000000000249e+00
1.040000000000000036e+00
2.326000000000000156e+01
-3.828000000000000114e+01
-5.410000000000000142e+00
1.894000000000000128e+01
1.227999999999999936e+01
-2.400000000000000000e+01
1.900000000000000000e+01
6.289999999999999858e+01
-1.105400000000000063e+02
1.739999999999999991e+00
-1.073000000000000043e+01
-3.009999999999999787e+00
3.232999999999999829e+01
1.780999999999999872e+01
-5.835999999999999943e+01
-1.260000000000000009e+00
2.300000000000000000e+01
-6.230000000000000426e+00
-7.860000000000000320e+00
-3.430000000000000160e+00
1.962000000000000099e+01
2.032000000000000028e+01
4.735999999999999943e+01
-5.886999999999999744e+01
-2.717999999999999972e+01
-1.419999999999999929e+00
3.664000000000000057e+01
2.000000000000000000e+01
-1.132000000000000028e+01
8.220000000000000639e+00
-2.310000000000000053e+00
-5.969999999999999751e+00
2.589999999999999858e+00
2.600000000000000000e+01
-2.653999999999999915e+01
-2.151999999999999957e+01
1.158999999999999986e+01
1.417999999999999972e+01
-1.342999999999999972e+01
-4.799999999999999822e+00
1.669999999999999929e+01
-4.199999999999999845e-01
-1.862000000000000099e+01
1.575000000000000000e+01
2.800000000000000266e-01
-7.330000000000000071e+00
-2.990000000000000213e+00
1.914000000000000057e+01
-1.176999999999999957e+01
-7.330000000000000071e+00
9.769999999999999574e+00
-2.350000000000000089e+00
-1.744000000000000128e+01
7.780000000000000249e+00
8.720000000000000639e+00
-2.189999999999999947e+00
-1.901000000000000156e+01
1.160999999999999943e+01
3.250000000000000000e+00
-5.599999999999999645e+00
-1.273000000000000043e+01
6.540000000000000036e+00
6.400000000000000133e-01
-1.126999999999999957e+01
8.099999999999999645e+00
8.179999999999999716e+00
-2.017999999999999972e+01
1.612999999999999901e+01
3.580000000000000071e+00
-1.642999999999999972e+01
5.259999999999999787e+00
5.990000000000000213e+00
1.199999999999999956e-01
-1.000000000000000000e+00
7.330000000000000071e+00
-3.680000000000000160e+00
-1.356000000000000050e+01
3.680000000000000160e+00
9.539999999999999147e+00
-5.519999999999999574e+00
-8.099999999999999645e+00
1.231000000000000050e+01
1.356000000000000050e+01
-3.424000000000000199e+01
8.429999999999999716e+00
4.219999999999999751e+00
8.740000000000000213e+00
-4.660000000000000142e+00
7.089999999999999858e+00
8.259999999999999787e+00
3.029999999999999805e+00
4.269999999999999574e+00
-5.269999999999999574e+00
-2.871000000000000085e+01
1.621000000000000085e+01
-1.022000000000000064e+01
-8.279999999999999361e+00
1.056000000000000050e+01
1.020000000000000018e+00
-1.081000000000000050e+01
1.450000000000000000e+01
2.346999999999999886e+01
-3.857999999999999829e+01
2.148999999999999844e+01
4.225999999999999801e+01
6.950000000000000178e+00
-2.383999999999999986e+01
-5.269999999999999574e+00
2.239999999999999858e+01
-2.223999999999999844e+01
-6.809999999999999609e+00
2.923000000000000043e+01
-1.866000000000000014e+01
2.321000000000000085e+01
3.228999999999999915e+01
-6.190000000000000391e+00
-4.468999999999999773e+01
2.301999999999999957e+01
2.982000000000000028e+01
-4.347999999999999687e+01
1.096000000000000085e+01
6.013000000000000256e+01
5.559999999999999609e+00
-4.978000000000000114e+01
-1.069999999999999929e+01
2.500000000000000000e-01
-1.411999999999999922e+01
6.870000000000000107e+00
6.519999999999999574e+00
-7.500000000000000000e+00
-2.089000000000000057e+01
-2.970000000000000195e+00
1.359999999999999964e+01
6.860000000000000320e+00
5.280000000000000249e+00
-3.669999999999999929e+00
-1.033000000000000007e+01
1.088000000000000078e+01
2.310000000000000142e+01
-1.114000000000000057e+01
-8.130000000000000782e+00
1.380000000000000071e+01
2.089999999999999858e+00
-1.221000000000000085e+01
1.199000000000000021e+01
1.039000000000000057e+01
-2.305000000000000071e+01
-7.599999999999999645e+00
9.653000000000000114e+01
-2.094000000000000128e+01
-1.610999999999999943e+01
-2.376999999999999957e+01
-9.160000000000000142e+00
-4.120000000000000107e+00
7.068999999999999773e+01
-1.461999999999999922e+01
-5.400000000000000355e+00
-1.556000000000000050e+01
7.500000000000000000e+00
2.773000000000000043e+01
4.160000000000000142e+01
7.390999999999999659e+01
6.800000000000000488e-01
-5.913000000000000256e+01
3.012999999999999901e+01
8.162999999999999545e+01
-3.577000000000000313e+01
-4.849000000000000199e+01
-1.300600000000000023e+02
7.056999999999999318e+01
4.610999999999999943e+01
1.215000000000000036e+01
-4.845000000000000284e+01
-4.439000000000000057e+01
-3.350000000000000089e+00
2.583999999999999986e+01
-3.732000000000000028e+01
-2.839000000000000057e+01
8.240000000000000213e+00
7.293000000000000682e+01
-8.000000000000000000e+00
-4.082999999999999829e+01
2.651000000000000156e+01
2.342999999999999972e+01
-3.947999999999999687e+01
1.166000000000000014e+01
-1.583999999999999986e+01
2.166000000000000014e+01
-1.259999999999999964e+01
-1.639999999999999858e+01
-1.885999999999999943e+01
-1.113000000000000078e+01
2.025000000000000000e+01
1.229999999999999982e+00
9.423999999999999488e+01
2.949300000000000068e+02
-2.462500000000000000e+02
-2.335900000000000034e+02
2.862000000000000099e+01
1.163799999999999955e+02
3.207999999999999829e+01
2.232999999999999829e+01
3.306000000000000227e+01
-8.669999999999999929e+00
-4.059999999999999609e+00
1.378999999999999915e+01
2.505999999999999872e+01
-1.644999999999999929e+01
-2.221999999999999886e+01
1.167999999999999972e+01
-3.950000000000000178e+00
-2.882999999999999829e+01
3.903000000000000114e+01
1.368999999999999950e+01
1.120000000000000107e+00
-8.830000000000000071e+00
-3.720000000000000195e+00
-2.490000000000000213e+00
-2.355999999999999872e+01
1.027999999999999936e+01
7.889999999999999680e+00
-1.953999999999999915e+01
1.739999999999999991e+00
1.191999999999999993e+01
-2.359999999999999876e+00
-4.000000000000000083e-02
-1.799999999999999933e-01
1.758999999999999986e+01
-1.582000000000000028e+01
3.740000000000000213e+00
-9.000000000000000000e+00
-1.258000000000000007e+01
3.729999999999999982e+00
8.669999999999999929e+00
3.020000000000000018e+00
-1.334999999999999964e+01
1.208000000000000007e+01
-1.197000000000000064e+01
-1.801999999999999957e+01
5.830000000000000071e+00
-5.009999999999999787e+00
1.662999999999999901e+01
-2.255999999999999872e+01
1.449000000000000021e+01
3.629999999999999893e+00
-1.496000000000000085e+01
1.546000000000000085e+01
1.660000000000000142e+01
-5.980000000000000426e+00
-7.299999999999999822e+00
-1.409999999999999920e+00
-3.507000000000000028e+01
3.384000000000000341e+01
3.126000000000000156e+01
1.138000000000000078e+01
-2.509999999999999787e+00
1.682000000000000028e+01
1.146000000000000085e+01
-4.690000000000000391e+00
-1.332000000000000028e+01
2.792999999999999972e+01
-6.659000000000000341e+01
-6.440000000000000391e+00
-2.278999999999999915e+01
-1.796000000000000085e+01
4.867000000000000171e+01
-3.309000000000000341e+01
-4.120000000000000284e+01
-3.245000000000000284e+01
-3.746999999999999886e+01
1.052500000000000000e+02
-5.314000000000000057e+01
-3.110000000000000142e+01
8.529999999999999361e+00
2.770000000000000018e+00
-3.856000000000000227e+01
1.356000000000000050e+01
2.229999999999999982e+00
2.403000000000000114e+01
-7.648000000000000398e+01
7.173999999999999488e+01
-5.921000000000000085e+01
-1.134999999999999964e+01
1.120100000000000051e+02
1.420900000000000034e+02
2.078999999999999915e+01
-9.035999999999999943e+01
1.488300000000000125e+02
-7.456999999999999318e+01
-7.782999999999999829e+01
-5.713000000000000256e+01
6.931000000000000227e+01
1.220400000000000063e+02
1.307800000000000011e+02
1.336399999999999864e+02
-7.745999999999999375e+01
-3.100000000000000089e+00
5.889999999999999680e+00
3.495000000000000284e+01
3.686999999999999744e+01
9.903000000000000114e+01
-1.491299999999999955e+02
6.467000000000000171e+01
-4.417900000000000205e+02
1.571599999999999966e+02
3.708799999999999955e+02
2.351100000000000136e+02
-2.394399999999999977e+02
-5.178999999999999915e+01
1.873600000000000136e+02
-2.599700000000000273e+02
-1.465099999999999909e+02
1.465099999999999909e+02
-1.401999999999999957e+01
1.571200000000000045e+02
2.164000000000000057e+01
-2.187400000000000091e+02
9.048000000000000398e+01
-2.124099999999999966e+02
1.062000000000000028e+02
1.728899999999999864e+02
8.395999999999999375e+01
-1.761299999999999955e+02
-2.017599999999999909e+02
-2.941800000000000068e+02
5.329800000000000182e+02
4.506800000000000068e+02
-2.696600000000000250e+02
-1.809499999999999886e+02
-4.531000000000000227e+01
2.783999999999999986e+01
-2.200000000000000000e+01
8.640999999999999659e+01
-5.621000000000000085e+01
-3.250000000000000000e+00
1.199999999999999956e+00
2.973000000000000043e+01
1.432700000000000102e+02
-2.018199999999999932e+02
-2.697400000000000091e+02
1.258100000000000023e+02
4.408000000000000114e+02
7.035999999999999943e+01
1.021000000000000085e+01
-4.899000000000000199e+01
3.182000000000000028e+01
2.020600000000000023e+02
-3.194200000000000159e+02
2.618899999999999864e+02
-3.675000000000000000e+01
-5.860800000000000409e+02
-3.461999999999999744e+01
2.890099999999999909e+02
7.909000000000000341e+01
1.582000000000000028e+01
1.009999999999999964e+01
1.100999999999999979e+01
-5.021000000000000085e+01
7.540000000000000036e+00
-1.040000000000000036e+00
-1.241999999999999993e+01
9.730000000000000426e+00
5.750000000000000000e+00
6.009999999999999787e+00
2.850000000000000000e+01
-1.344999999999999929e+01
-2.103999999999999915e+01
-2.753000000000000114e+01
-3.572999999999999687e+01
5.325999999999999801e+01
6.790000000000000036e+00
-2.910999999999999943e+01
3.667999999999999972e+01
-2.580000000000000071e+00
4.549999999999999822e+00
3.928000000000000114e+01
-1.600000000000000000e+01
-2.319999999999999929e+01
8.499999999999999778e-01
-3.479999999999999982e+00
3.507999999999999829e+01
3.490000000000000213e+00
6.800000000000000488e-01
-9.060000000000000497e+00
5.368999999999999773e+01
1.274000000000000057e+02
-3.508000000000000114e+02
1.157300000000000040e+02
1.612899999999999920e+02
-1.808999999999999986e+01
-6.125000000000000000e+01
3.270000000000000284e+01
-2.625000000000000000e+01
-4.885999999999999943e+01
5.946000000000000085e+01
-5.232999999999999829e+01
2.979999999999999982e+00
-7.673999999999999488e+01
6.660000000000000142e+00
2.076000000000000156e+01
1.173000000000000043e+01
6.128000000000000114e+01
-1.200900000000000034e+02
1.705999999999999872e+01
4.453000000000000114e+01
2.319999999999999840e+00
8.349999999999999645e+00
-1.964999999999999858e+01
3.536999999999999744e+01
1.698999999999999844e+01
5.000000000000000000e+00
-1.898000000000000043e+01
-8.310000000000000497e+00
-6.250000000000000000e+00
-1.729999999999999982e+00
6.830000000000000071e+00
2.319000000000000128e+01
7.190000000000000568e+01
2.429300000000000068e+02
-2.155099999999999909e+02
-2.811600000000000250e+02
3.236999999999999744e+01
1.473300000000000125e+02
-2.708999999999999986e+01
-1.310699999999999932e+02
-1.500000000000000000e+02
1.630000000000000000e+02
7.840999999999999659e+01
-1.046000000000000085e+01
-4.799999999999999822e-01
-5.277000000000000313e+01
-1.842899999999999920e+02
6.696999999999999886e+01
1.962400000000000091e+02
-1.862000000000000099e+01
-2.405000000000000071e+01
9.098999999999999488e+01
2.664000000000000057e+01
1.459999999999999964e+00
-1.518600000000000136e+02
8.823999999999999488e+01
8.468000000000000682e+01
9.000000000000000000e+00
-5.239000000000000057e+01
-1.032999999999999972e+02
1.123000000000000043e+01
-2.529999999999999805e+00
2.505300000000000011e+02
-7.185999999999999943e+01
2.097199999999999989e+02
-1.586699999999999875e+02
-1.105400000000000063e+02
-1.760000000000000142e+01
4.409000000000000341e+01
-2.000000000000000000e+00
-4.535999999999999943e+01
8.782999999999999829e+01
-1.219999999999999973e+00
-3.709999999999999964e+00
-7.209999999999999964e+00
-1.002999999999999936e+01
-1.989999999999999858e+01
-2.300000000000000100e-01
5.679999999999999716e+00
-2.310999999999999943e+01
-1.123000000000000043e+01
-3.990000000000000213e+00
-1.632000000000000028e+01
1.730000000000000071e+01
3.064999999999999858e+01
2.362999999999999901e+01
-1.032000000000000028e+01
-6.309999999999999609e+00
-3.450000000000000178e+00
-2.298999999999999844e+01
-1.465000000000000036e+01
2.353000000000000114e+01
3.699999999999999956e-01
-1.889999999999999902e+00
2.810000000000000142e+01
1.903999999999999915e+01
-1.617000000000000171e+01
1.192999999999999972e+01
7.009999999999999787e+00
-4.419999999999999929e+00
-3.549999999999999822e+00
1.016999999999999993e+01
5.110000000000000320e+00
-1.898999999999999844e+01
-1.948000000000000043e+01
1.025999999999999979e+01
1.748999999999999844e+01
-5.349999999999999645e+00
3.700000000000000178e+00
-1.159999999999999920e+00
-1.035999999999999943e+01
2.060000000000000053e+00
3.799999999999999822e+00
-6.769999999999999574e+00
-9.039999999999999147e+00
4.459999999999999964e+00
2.959999999999999964e+00
-1.489000000000000057e+01
3.439999999999999947e+00
8.109999999999999432e+00
-2.169999999999999929e+00
-1.292999999999999972e+01
5.179999999999999716e+00
5.629999999999999893e+00
-5.639999999999999680e+00
1.879999999999999893e+00
1.005000000000000071e+01
3.499999999999999778e-01
-7.070000000000000284e+00
2.196000000000000085e+01
1.321000000000000085e+01
-2.885999999999999943e+01
6.490000000000000213e+00
3.715999999999999659e+01
2.364000000000000057e+01
-1.055300000000000011e+02
-4.832999999999999829e+01
3.460000000000000142e+01
4.564000000000000057e+01
2.575400000000000205e+02
-2.697500000000000000e+02
-7.906999999999999318e+01
-1.957999999999999829e+01
1.614000000000000057e+01
2.544000000000000128e+01
-1.584199999999999875e+02
1.787999999999999901e+01
1.985099999999999909e+02
-1.138900000000000006e+02
-1.639000000000000057e+02
1.736899999999999977e+02
6.426999999999999602e+01
-4.431000000000000227e+01
-3.857999999999999829e+01
-5.440000000000000391e+00
3.352000000000000313e+01
-9.701999999999999602e+01
-2.405000000000000071e+01
-2.850000000000000089e+00
1.236999999999999922e+01
1.543999999999999950e+01
2.359999999999999876e+00
-6.660000000000000142e+00
-1.710999999999999943e+01
-5.629999999999999716e+01
1.515000000000000036e+01
-1.791000000000000014e+01
-2.371999999999999886e+01
9.278000000000000114e+01
2.694000000000000128e+01
-5.256000000000000227e+01
1.365500000000000114e+02
-6.978000000000000114e+01
4.400000000000000022e-01
-9.240000000000000568e+01
-1.534499999999999886e+02
-8.598000000000000398e+01
-1.461899999999999977e+02
1.000199999999999960e+02
7.551999999999999602e+01
2.363899999999999864e+02
1.098299999999999983e+02
9.550000000000000711e+00
-6.700000000000000178e+00
-4.324000000000000199e+01
4.235999999999999943e+01
2.146999999999999886e+01
-3.664000000000000057e+01
3.617000000000000171e+01
1.438000000000000078e+01
-3.664000000000000057e+01
2.953999999999999915e+01
1.457000000000000028e+01
-3.268999999999999773e+01
2.364999999999999858e+01
1.721000000000000085e+01
-2.632000000000000028e+01
2.069999999999999929e+01
1.710000000000000142e+01
-1.635999999999999943e+01
2.189999999999999947e+00
1.376999999999999957e+01
-9.689999999999999503e+00
-1.290000000000000036e+01
9.400000000000000355e+00
-7.490000000000000213e+00
-2.796000000000000085e+01
1.501999999999999957e+01
1.120000000000000107e+00
-2.612999999999999901e+01
1.019999999999999929e+01
5.769999999999999574e+00
-1.416000000000000014e+01
-8.919999999999999929e+00
6.400000000000000355e+00
-8.179999999999999716e+00
-2.676000000000000156e+01
1.441999999999999993e+01
2.680000000000000160e+00
-1.951000000000000156e+01
4.650000000000000355e+00
1.055000000000000071e+01
-3.540000000000000036e+00
-2.635999999999999943e+01
1.316999999999999993e+01
3.169999999999999929e+00
-1.748000000000000043e+01
1.155000000000000071e+01
1.077999999999999936e+01
-1.002999999999999936e+01
-1.610000000000000142e+01
1.584999999999999964e+01
6.500000000000000222e-01
-3.135000000000000142e+01
1.919999999999999929e+01
1.475000000000000000e+01
-9.939999999999999503e+00
-5.000000000000000000e+00
1.461999999999999922e+01
8.800000000000000044e-01
-1.876999999999999957e+01
1.333000000000000007e+01
3.129999999999999893e+00
-2.196000000000000085e+01
1.375999999999999979e+01
4.080000000000000071e+00
-1.864999999999999858e+01
2.423000000000000043e+01
4.024000000000000199e+01
5.778000000000000114e+01
-7.973999999999999488e+01
-1.564000000000000057e+01
-2.192999999999999972e+01
-2.905999999999999872e+01
6.899999999999999467e-01
-2.251999999999999957e+01
-1.272000000000000064e+01
4.928000000000000114e+01
-4.589999999999999858e+00
-3.030000000000000071e+01
5.888000000000000256e+01
-1.111899999999999977e+02
1.372899999999999920e+02
5.981000000000000227e+01
3.307000000000000028e+01
3.631000000000000227e+01
-1.009699999999999989e+02
-2.799999999999999822e+00
-2.086299999999999955e+02
4.253999999999999915e+01
-9.164000000000000057e+01
1.016200000000000045e+02
-1.038299999999999983e+02
1.801000000000000156e+01
9.499999999999999556e-01
6.146999999999999886e+01
-1.549000000000000021e+01
-4.000000000000000222e-01
4.450000000000000178e+00
-1.024000000000000021e+01
1.047000000000000064e+01
-4.450000000000000178e+00
-2.123999999999999844e+01
9.820000000000000284e+00
8.210000000000000853e+00
-1.427999999999999936e+01
-1.580000000000000071e+00
1.490000000000000036e+01
-3.359999999999999876e+00
-2.021999999999999886e+01
1.113000000000000078e+01
3.029999999999999805e+00
-2.237000000000000099e+01
1.534999999999999964e+01
8.560000000000000497e+00
-1.265000000000000036e+01
4.129999999999999893e+00
1.206000000000000050e+01
-2.839999999999999858e+00
-1.005000000000000071e+01
3.332000000000000028e+01
2.535000000000000142e+01
-4.411999999999999744e+01
-5.269999999999999574e+00
-3.303000000000000114e+01
-8.507999999999999829e+01
8.840999999999999659e+01
3.875999999999999801e+01
-1.239000000000000057e+01
2.628000000000000114e+01
-1.217999999999999972e+01
-2.583999999999999986e+01
-5.332999999999999829e+01
3.807000000000000028e+01
5.263000000000000256e+01
1.648000000000000043e+01
9.949999999999999289e+00
-2.489999999999999858e+01
-3.317999999999999972e+01
-1.424000000000000021e+01
-6.300000000000000044e-01
-6.330000000000000071e+00
2.912999999999999901e+01
-6.299999999999999822e+00
-1.603999999999999915e+01
-1.540000000000000036e+00
1.167999999999999972e+01
-4.799999999999999822e-01
-1.223000000000000043e+01
8.330000000000000071e+00
2.299999999999999822e+00
-1.912000000000000099e+01
1.016999999999999993e+01
7.929999999999999716e+00
-8.439999999999999503e+00
1.078999999999999915e+01
3.240000000000000213e+00
8.800000000000000044e-01
-1.685000000000000142e+01
1.278999999999999915e+01
6.700000000000000178e+00
-1.488000000000000078e+01
2.910000000000000142e+00
6.809999999999999609e+00
-1.128999999999999915e+01
-4.919999999999999929e+00
5.660000000000000142e+00
7.160000000000000142e+00
-2.071000000000000085e+01
6.940000000000000391e+00
1.753000000000000114e+01
-1.000000000000000000e+00
1.140000000000000036e+01
1.340000000000000080e+00
-1.269999999999999929e+01
-2.180000000000000160e+00
1.050000000000000000e+01
-1.560000000000000053e+00
-1.534999999999999964e+01
1.426999999999999957e+01
8.000000000000000000e+00
-1.375000000000000000e+01
8.410000000000000142e+00
6.209999999999999964e+00
-5.750000000000000000e+00
-4.339999999999999858e+00
3.810000000000000053e+00
2.129999999999999893e+00
-1.453999999999999915e+01
8.650000000000000355e+00
2.180000000000000160e+00
-1.176999999999999957e+01
7.049999999999999822e+00
2.270000000000000018e+00
-1.265000000000000036e+01
-7.290000000000000036e+00
8.276999999999999602e+01
5.614999999999999858e+01
-1.870999999999999943e+02
-1.716000000000000014e+01
-1.939999999999999947e+00
-1.898000000000000114e+02
1.162099999999999937e+02
9.448999999999999488e+01
4.493999999999999773e+01
3.714000000000000057e+01
3.957999999999999829e+01
-1.004800000000000040e+02
-3.607999999999999829e+01
6.330000000000000071e+00
-2.541000000000000014e+01
6.931000000000000227e+01
4.799999999999999822e-01
-2.030999999999999872e+01
-1.960000000000000142e+01
2.941000000000000014e+01
1.120000000000000107e+00
-1.389000000000000057e+01
1.664000000000000057e+01
1.149999999999999911e+00
-1.280000000000000071e+01
8.490000000000000213e+00
5.490000000000000213e+00
-1.182000000000000028e+01
-1.379999999999999893e+00
8.609999999999999432e+00
-4.190000000000000391e+00
-1.591999999999999993e+01
9.539999999999999147e+00
-5.600000000000000533e-01
-1.475999999999999979e+01
1.085999999999999943e+01
5.410000000000000142e+00
-7.009999999999999787e+00
-2.509999999999999787e+00
7.740000000000000213e+00
-3.069999999999999840e+00
-1.342999999999999972e+01
9.750000000000000000e+00
9.399999999999999467e-01
-2.017999999999999972e+01
1.196000000000000085e+01
5.490000000000000213e+00
-9.349999999999999645e+00
2.299999999999999822e+00
1.233999999999999986e+01
-2.629999999999999893e+00
-8.730000000000000426e+00
1.542999999999999972e+01
-3.040000000000000036e+00
-1.161999999999999922e+01
6.900000000000000355e+00
3.970000000000000195e+00
-2.239000000000000057e+01
1.317999999999999972e+01
7.709999999999999964e+00
-1.519999999999999929e+01
7.330000000000000071e+00
1.083999999999999986e+01
-5.440000000000000391e+00
-5.860000000000000320e+00
1.165000000000000036e+01
-2.229999999999999982e+00
-1.625000000000000000e+01
1.375000000000000000e+01
1.949999999999999956e+00
-2.419999999999999929e+01
1.705999999999999872e+01
9.750000000000000000e+00
-1.873999999999999844e+01
3.220000000000000195e+00
1.607000000000000028e+01
-4.429999999999999716e+00
-1.281000000000000050e+01
1.316999999999999993e+01
9.000000000000000222e-01
-2.242999999999999972e+01
1.541999999999999993e+01
4.330000000000000071e+00
-2.410999999999999943e+01
1.351999999999999957e+01
1.269999999999999929e+01
-1.298000000000000043e+01
-7.199999999999999734e-01
1.466000000000000014e+01
-2.560000000000000053e+00
-1.846999999999999886e+01
1.689999999999999858e+01
1.929999999999999938e+00
-2.464999999999999858e+01
2.012000000000000099e+01
4.910000000000000142e+00
-3.306000000000000227e+01
2.096000000000000085e+01
1.460999999999999943e+01
-1.901000000000000156e+01
1.059999999999999964e+01
1.850000000000000000e+01
-4.629999999999999893e+00
-1.878999999999999915e+01
1.912000000000000099e+01
3.569999999999999840e+00
-2.782000000000000028e+01
1.605000000000000071e+01
7.679999999999999716e+00
-1.928000000000000114e+01
7.540000000000000036e+00
1.571000000000000085e+01
-5.759999999999999787e+00
-2.403999999999999915e+01
1.773999999999999844e+01
7.030000000000000249e+00
-1.728000000000000114e+01
5.690000000000000391e+00
1.147000000000000064e+01
-5.830000000000000071e+00
-1.026999999999999957e+01
1.238000000000000078e+01
-2.040000000000000036e+00
-2.662999999999999901e+01
1.183999999999999986e+01
7.969999999999999751e+00
-1.882999999999999829e+01
1.316999999999999993e+01
1.197000000000000064e+01
-5.169999999999999929e+00
7.900000000000000355e-01
9.949999999999999289e+00
-5.969999999999999751e+00
-1.255000000000000071e+01
1.176999999999999957e+01
-1.000000000000000000e+00
-2.330999999999999872e+01
1.325999999999999979e+01
3.020000000000000018e+00
-2.194000000000000128e+01
1.032000000000000028e+01
9.169999999999999929e+00
-1.159999999999999964e+01
5.080000000000000071e+00
1.089000000000000057e+01
-5.309999999999999609e+00
-7.320000000000000284e+00
1.163000000000000078e+01
-2.169999999999999929e+00
-1.805999999999999872e+01
1.319999999999999929e+01
8.900000000000000133e-01
-2.051000000000000156e+01
1.508999999999999986e+01
6.469999999999999751e+00
-1.409999999999999964e+01
5.190000000000000391e+00
1.221000000000000085e+01
-2.359999999999999876e+00
-1.150999999999999979e+01
1.136999999999999922e+01
-2.000000000000000042e-02
-2.151000000000000156e+01
1.394999999999999929e+01
6.169999999999999929e+00
-1.558999999999999986e+01
8.660000000000000142e+00
8.460000000000000853e+00
-8.669999999999999929e+00
-4.889999999999999680e+00
1.411999999999999922e+01
3.599999999999999867e-01
-1.710000000000000142e+01
1.099000000000000021e+01
2.709999999999999964e+00
-1.860000000000000142e+01
1.153999999999999915e+01
5.280000000000000249e+00
-1.141000000000000014e+01
4.160000000000000142e+00
1.255000000000000071e+01
-4.679999999999999716e+00
-1.558000000000000007e+01
1.682999999999999829e+01
1.502999999999999936e+01
-1.798999999999999844e+01
-3.290000000000000036e+00
-5.730000000000000426e+00
-1.028999999999999915e+01
9.580000000000000071e+00
1.730999999999999872e+01
-3.990000000000000213e+00
-1.351999999999999957e+01
9.349999999999999645e+00
3.240000000000000213e+00
-1.473000000000000043e+01
1.469999999999999929e+01
2.160000000000000142e+00
-1.341000000000000014e+01
1.103999999999999915e+01
1.056000000000000050e+01
-9.500000000000000000e+00
-4.269999999999999574e+00
7.730000000000000426e+00
-3.990000000000000213e+00
-8.990000000000000213e+00
1.414000000000000057e+01
1.870000000000000107e+00
-1.992999999999999972e+01
1.275000000000000000e+01
6.379999999999999893e+00
-1.085999999999999943e+01
7.530000000000000249e+00
5.679999999999999716e+00
-1.419999999999999929e+01
-8.839999999999999858e+00
1.052999999999999936e+01
-6.450000000000000178e+00
-8.269999999999999574e+00
2.237000000000000099e+01
1.164000000000000057e+01
-1.516000000000000014e+01
8.660000000000000142e+00
3.979999999999999982e+00
-1.066999999999999993e+01
5.099999999999999645e+00
7.059999999999999609e+00
-7.190000000000000391e+00
-8.269999999999999574e+00
1.164000000000000057e+01
-4.780000000000000249e+00
-1.553999999999999915e+01
1.438000000000000078e+01
1.050000000000000044e+00
-2.148000000000000043e+01
1.639999999999999858e+01
4.790000000000000036e+00
-1.490000000000000036e+01
8.929999999999999716e+00
6.830000000000000071e+00
-7.480000000000000426e+00
4.660000000000000142e+00
9.529999999999999361e+00
-1.076999999999999957e+01
-4.330000000000000071e+00
1.142999999999999972e+01
-5.540000000000000036e+00
-1.311999999999999922e+01
1.026999999999999957e+01
4.160000000000000142e+00
-1.432000000000000028e+01
1.244999999999999929e+01
8.000000000000000000e+00
-6.080000000000000071e+00
7.199999999999999734e-01
8.710000000000000853e+00
-3.830000000000000071e+00
-1.477999999999999936e+01
1.150000000000000000e+01
1.500000000000000000e+00
-1.628999999999999915e+01
8.609999999999999432e+00
7.709999999999999964e+00
-8.099999999999999645e+00
-6.790000000000000036e+00
1.055000000000000071e+01
-5.100000000000000089e-01
-1.667000000000000171e+01
1.101999999999999957e+01
3.200000000000000178e+00
-1.869000000000000128e+01
9.029999999999999361e+00
7.230000000000000426e+00
-9.490000000000000213e+00
-3.870000000000000107e+00
1.301999999999999957e+01
4.199999999999999845e-01
-1.583999999999999986e+01
1.041999999999999993e+01
3.790000000000000036e+00
-1.823999999999999844e+01
1.158000000000000007e+01
5.629999999999999893e+00
-1.791000000000000014e+01
2.799999999999999822e+00
-2.819999999999999840e+00
3.527000000000000313e+01
1.137999999999999972e+02
-1.369000000000000057e+02
1.499000000000000021e+01
9.878000000000000114e+01
-1.264000000000000057e+01
-3.032999999999999829e+01
2.229999999999999982e+00
4.535999999999999943e+01
2.032000000000000028e+01
6.006000000000000227e+01
4.078000000000000114e+01
-8.269999999999999574e+00
-7.978000000000000114e+01
1.245799999999999983e+02
2.678999999999999915e+01
-5.371999999999999886e+01
1.531100000000000136e+02
7.959999999999999964e+00
-5.582999999999999829e+01
-4.904999999999999716e+01
-6.089999999999999858e+00
1.272199999999999989e+02
-1.360699999999999932e+02
-8.306000000000000227e+01
1.029200000000000017e+02
1.828999999999999915e+01
-2.776999999999999957e+01
2.213400000000000034e+02
2.078100000000000023e+02
-3.300000000000000155e-01
-2.651499999999999773e+02
4.038000000000000256e+01
4.679999999999999716e+01
6.681000000000000227e+01
-1.025999999999999979e+01
-3.252000000000000313e+01
-1.332000000000000028e+01
2.082000000000000028e+01
1.458999999999999986e+01
9.150000000000000355e+00
-8.731000000000000227e+01
-7.312999999999999545e+01
-5.202000000000000313e+01
2.061899999999999977e+02
2.629999999999999893e+00
-7.726999999999999602e+01
-2.639000000000000057e+01
8.839999999999999858e+00
1.053100000000000023e+02
-7.235999999999999943e+01
5.570000000000000284e+00
5.913000000000000256e+01
-7.290999999999999659e+01
-1.100000000000000089e+00
1.008999999999999986e+01
2.450000000000000178e+00
-1.041000000000000014e+01
1.239999999999999991e+00
-4.732999999999999829e+01
-1.408400000000000034e+02
4.917000000000000171e+01
-7.492000000000000171e+01
1.182699999999999960e+02
3.250000000000000000e+00
8.012999999999999545e+01
1.056599999999999966e+02
-1.299399999999999977e+02
1.909999999999999920e+00
1.539000000000000057e+01
-5.709999999999999964e+00
-7.278000000000000114e+01
-9.851999999999999602e+01
1.511699999999999875e+02
1.297599999999999909e+02
-1.922599999999999909e+02
-7.026000000000000512e+01
1.185999999999999943e+01
-9.640000000000000568e+00
6.209999999999999964e+00
1.729999999999999982e+00
-6.469999999999999751e+00
1.243999999999999950e+01
-4.370000000000000107e+00
-1.142999999999999972e+01
-2.305000000000000071e+01
5.490000000000000213e+00
5.110000000000000320e+00
6.830000000000000071e+00
8.460000000000000853e+00
1.246000000000000085e+01
-1.180000000000000071e+01
-3.030000000000000071e+01
3.300000000000000155e-01
-2.851000000000000156e+01
-2.617000000000000171e+01
7.503000000000000114e+01
5.586999999999999744e+01
-2.460999999999999943e+01
-2.298999999999999844e+01
-1.177999999999999972e+02
-5.040000000000000036e+00
3.313100000000000023e+02
-1.839600000000000080e+02
-5.607999999999999829e+01
-9.369999999999999218e+00
-7.287999999999999545e+01
-2.021299999999999955e+02
1.892299999999999898e+02
1.315300000000000011e+02
-1.582700000000000102e+02
-4.178999999999999915e+01
2.367000000000000171e+01
-5.727000000000000313e+01
1.917999999999999972e+01
7.965999999999999659e+01
-6.160999999999999943e+01
1.626999999999999957e+01
2.187000000000000099e+01
9.439999999999999503e+00
-1.011999999999999922e+01
-2.770000000000000018e+00
1.649999999999999911e+00
-1.751999999999999957e+01
-4.450000000000000178e+00
5.480000000000000426e+00
4.589999999999999858e+00
1.540399999999999920e+02
-2.745799999999999841e+02
1.031800000000000068e+02
-2.403999999999999915e+01
5.767999999999999972e+01
-6.812000000000000455e+01
1.607100000000000080e+02
-8.081000000000000227e+01
-5.767000000000000171e+01
-8.529999999999999361e+00
-3.178999999999999915e+01
3.030600000000000023e+02
-4.842000000000000171e+01
-6.299999999999999822e+00
-5.225999999999999801e+01
9.750000000000000000e+00
2.251999999999999957e+01
1.109999999999999964e+01
2.998999999999999844e+01
9.896999999999999886e+01
-1.839600000000000080e+02
2.371000000000000085e+01
1.127999999999999936e+01
3.890000000000000124e+00
-6.899999999999999467e-01
1.396000000000000085e+01
2.719000000000000128e+01
1.026700000000000017e+02
-8.596999999999999886e+01
-1.262000000000000028e+02
6.060999999999999943e+01
4.175000000000000000e+01
2.526999999999999957e+01
-8.984999999999999432e+01
-1.859000000000000057e+02
2.803000000000000114e+01
1.167399999999999949e+02
-8.687000000000000455e+01
-1.762999999999999901e+01
-1.150999999999999979e+01
-3.790000000000000036e+00
-3.457999999999999829e+01
1.437400000000000091e+02
7.179000000000000625e+01
-1.844900000000000091e+02
2.125300000000000011e+02
4.285999999999999943e+01
-6.734000000000000341e+01
-1.282000000000000028e+01
-2.069999999999999840e+00
-7.556000000000000227e+01
1.291000000000000014e+01
3.846000000000000085e+01
-1.282400000000000091e+02
3.990000000000000213e+00
1.611599999999999966e+02
-5.143999999999999773e+01
-8.250000000000000000e+00
-3.421000000000000085e+01
3.359999999999999876e+00
6.509999999999999787e+00
4.559000000000000341e+01
2.139000000000000057e+01
-4.021999999999999886e+01
-1.302999999999999936e+01
7.040000000000000036e+00
-1.540000000000000036e+00
7.179999999999999716e+00
6.500000000000000000e+00
-7.830000000000000071e+00
-3.300000000000000155e-01
6.179999999999999716e+00
-4.469999999999999751e+00
-1.358999999999999986e+01
1.371000000000000085e+01
2.810000000000000053e+00
3.699999999999999956e-01
1.675000000000000000e+01
2.000000000000000000e+00
-2.073000000000000043e+01
-8.820000000000000284e+00
1.438000000000000078e+01
-2.569999999999999840e+00
-2.732999999999999829e+01
4.669999999999999929e+00
7.620000000000000107e+00
-7.259999999999999787e+00
5.530000000000000249e+00
1.286999999999999922e+01
1.330000000000000071e+00
-6.269999999999999574e+00
-5.899999999999999689e-01
-9.899999999999999911e-01
-1.278999999999999915e+01
8.949999999999999289e+00
9.570000000000000284e+00
-5.429999999999999716e+00
3.870000000000000107e+00
2.439999999999999947e+00
-9.200000000000000400e-01
-2.839999999999999858e+00
7.860000000000000320e+00
3.870000000000000107e+00
-1.499999999999999944e-01
1.167999999999999972e+01
-3.649999999999999911e+00
-9.070000000000000284e+00
-1.939999999999999947e+00
3.129999999999999893e+00
1.629999999999999893e+00
6.990000000000000213e+00
2.399999999999999911e-01
-6.059999999999999609e+00
-2.062000000000000099e+01
1.053999999999999915e+01
1.288000000000000078e+01
1.320000000000000062e+00
7.910000000000000142e+00
1.000000000000000056e-01
-6.790000000000000036e+00
-4.120000000000000107e+00
-2.089999999999999858e+00
-4.950000000000000178e+00
-4.160000000000000142e+00
9.820000000000000284e+00
7.559999999999999609e+00
-2.879999999999999893e+00
-5.929999999999999716e+00
-3.729999999999999982e+00
-3.370000000000000107e+00
-5.879999999999999893e+00
2.055999999999999872e+01
6.099999999999999867e-01
-4.809999999999999609e+00
9.109999999999999432e+00
3.000000000000000000e+00
-6.820000000000000284e+00
-4.830000000000000071e+00
1.760000000000000009e+00
2.390000000000000124e+00
-1.860000000000000098e+00
3.200000000000000178e+00
2.250000000000000000e+00
-9.060000000000000497e+00
9.330000000000000071e+00
1.340000000000000080e+00
-3.250000000000000000e+00
2.359999999999999876e+00
3.930000000000000160e+00
-3.569999999999999840e+00
-5.940000000000000391e+00
3.839999999999999858e+00
1.389999999999999902e+00
-5.589999999999999858e+00
8.810000000000000497e+00
5.500000000000000444e-01
-4.419999999999999929e+00
4.440000000000000391e+00
3.069999999999999840e+00
-5.019999999999999574e+00
-1.357000000000000028e+01
9.710000000000000853e+00
2.649999999999999911e+00
-1.260000000000000009e+00
-1.370000000000000107e+00
-4.099999999999999756e-01
6.309999999999999609e+00
9.728000000000000114e+01
-3.617000000000000171e+01
-3.028000000000000114e+01
-2.721000000000000085e+01
-1.019999999999999929e+01
4.802000000000000313e+01
7.980000000000000426e+00
-6.419999999999999929e+00
6.400000000000000133e-01
-7.240000000000000213e+00
-8.259999999999999787e+00
3.400000000000000244e-01
5.320000000000000284e+00
-1.570000000000000062e+00
1.810000000000000053e+00
4.679999999999999716e+00
-2.970000000000000195e+00
-7.809999999999999609e+00
3.310000000000000053e+00
3.270000000000000018e+00
-3.680000000000000160e+00
9.300000000000000488e-01
3.520000000000000018e+00
-1.169999999999999929e+00
-2.290000000000000036e+00
5.009999999999999787e+00
1.100000000000000006e-01
-4.509999999999999787e+00
3.810000000000000053e+00
-1.070000000000000062e+00
-4.129999999999999893e+00
4.440000000000000391e+00
2.140000000000000124e+00
-3.560000000000000053e+00
-1.840000000000000080e+00
4.940000000000000391e+00
-1.250000000000000000e+00
-2.000000000000000000e+00
9.669999999999999929e+00
-2.160000000000000142e+00
-1.082000000000000028e+01
3.589999999999999858e+00
3.129999999999999893e+00
-2.459999999999999964e+00
8.199999999999999512e-01
4.040000000000000036e+00
-6.899999999999999467e-01
-2.839999999999999858e+00
3.839999999999999858e+00
-4.000000000000000222e-01
-5.160000000000000142e+00
7.009999999999999787e+00
2.000000000000000042e-02
-7.169999999999999929e+00
2.200000000000000011e-01
4.080000000000000071e+00
-2.859999999999999876e+00
-2.669999999999999929e+00
4.490000000000000213e+00
2.419999999999999929e+00
-7.480000000000000426e+00
4.269999999999999574e+00
6.800000000000000488e-01
-2.850000000000000089e+00
5.830000000000000071e+00
3.330000000000000071e+00
-5.910000000000000142e+00
-5.139999999999999680e+00
-5.269999999999999574e+00
-1.841000000000000014e+01
1.425000000000000000e+01
1.057000000000000028e+01
1.500000000000000000e+00
-8.400000000000000355e+00
4.540000000000000036e+00
3.680000000000000160e+00
-2.649999999999999911e+00
3.950000000000000178e+00
1.909999999999999920e+00
-7.870000000000000107e+00
-2.799999999999999822e+00
8.029999999999999361e+00
1.620000000000000107e+00
-6.639999999999999680e+00
3.279999999999999805e+00
1.199999999999999956e+00
-6.269999999999999574e+00
2.189999999999999947e+00
3.370000000000000107e+00
-2.379999999999999893e+00
1.799999999999999933e-01
4.530000000000000249e+00
-4.269999999999999574e+00
-9.220000000000000639e+00
3.209999999999999964e+00
1.409999999999999920e+00
-5.450000000000000178e+00
2.310000000000000053e+00
2.169999999999999929e+00
-5.559999999999999609e+00
-4.419999999999999929e+00
-1.832000000000000028e+01
-7.020999999999999375e+01
1.010499999999999972e+02
1.338199999999999932e+02
3.497999999999999687e+01
-9.520999999999999375e+01
-5.856000000000000227e+01
1.241000000000000014e+01
-3.920000000000000284e+01
8.357999999999999829e+01
-1.076999999999999957e+01
-1.018999999999999950e+01
-6.077000000000000313e+01
5.560999999999999943e+01
1.313000000000000078e+01
1.971000000000000085e+01
6.730000000000000426e+00
5.759999999999999787e+00
2.319999999999999840e+00
1.091000000000000014e+01
4.804999999999999716e+01
4.615999999999999659e+01
-2.507400000000000091e+02
5.642999999999999972e+01
3.520000000000000284e+01
-1.540000000000000036e+00
9.329999999999999716e+01
-4.722999999999999687e+01
6.809999999999999609e+00
-4.775000000000000000e+01
-2.151999999999999957e+01
-4.910000000000000142e+00
-2.100000000000000089e+00
6.490000000000000213e+00
6.540000000000000036e+00
1.717999999999999972e+01
1.025999999999999979e+01
-1.033999999999999986e+01
8.339999999999999858e+00
5.940000000000000391e+00
-8.589999999999999858e+00
-7.700000000000000178e-01
1.433999999999999986e+01
4.139999999999999680e+00
-9.200000000000000400e-01
1.357000000000000028e+01
-1.500000000000000000e+00
3.859999999999999876e+00
3.534000000000000341e+01
5.557999999999999829e+01
-6.471999999999999886e+01
-4.429999999999999716e+01
8.279999999999999361e+00
4.971000000000000085e+01
-4.542000000000000171e+01
1.152999999999999936e+01
6.546999999999999886e+01
-6.010000000000000142e+01
5.000000000000000000e-01
6.253999999999999915e+01
1.394999999999999929e+01
8.743999999999999773e+01
-1.239899999999999949e+02
-2.870000000000000107e+00
7.535999999999999943e+01
-1.170699999999999932e+02
-2.246999999999999886e+01
1.522800000000000011e+02
-7.398999999999999488e+01
-3.321999999999999886e+01
-7.165000000000000568e+01
2.676000000000000156e+01
-3.659000000000000341e+01
9.830000000000000071e+00
-5.280000000000000249e+00
5.759999999999999787e+00
-2.151000000000000156e+01
1.555000000000000071e+01
-1.260000000000000009e+00
-1.819999999999999929e+01
1.368999999999999950e+01
7.919999999999999929e+00
-1.799999999999999933e-01
5.129999999999999893e+00
6.019999999999999574e+00
-2.830000000000000071e+00
-1.358000000000000007e+01
9.890000000000000568e+00
6.089999999999999858e+00
-9.820000000000000284e+00
-1.649999999999999911e+00
1.373000000000000043e+01
-2.040000000000000036e+00
-2.899999999999999800e-01
4.780000000000000249e+00
1.250000000000000000e+00
-2.310000000000000053e+00
6.910000000000000142e+00
-4.500000000000000111e-01
-9.550000000000000711e+00
9.640000000000000568e+00
9.499999999999999556e-01
-8.679999999999999716e+00
4.110000000000000320e+00
6.910000000000000142e+00
-1.939999999999999947e+00
4.429999999999999716e+00
3.410000000000000142e+00
-5.049999999999999822e+00
1.760000000000000009e+00
6.300000000000000044e-01
-1.807999999999999829e+01
2.453999999999999915e+01
1.199999999999999956e-01
1.000000000000000000e+00
8.000000000000000167e-02
3.819999999999999840e+00
2.399999999999999911e+00
-1.866000000000000014e+01
-3.259999999999999787e+00
-2.299999999999999822e+00
-6.639999999999999680e+00
2.129999999999999893e+00
-2.299999999999999822e+00
-6.309999999999999609e+00
3.470000000000000195e+00
4.080000000000000071e+00
-2.459999999999999964e+00
5.679999999999999716e+00
7.690000000000000391e+00
2.253999999999999915e+01
2.389999999999999858e+01
-7.784999999999999432e+01
-6.049999999999999822e+00
1.433799999999999955e+02
-1.336599999999999966e+02
4.724000000000000199e+01
4.481000000000000227e+01
-1.945600000000000023e+02
-1.033599999999999994e+02
6.893999999999999773e+01
8.332999999999999829e+01
-2.383999999999999986e+01
-6.211999999999999744e+01
8.339999999999999858e+00
1.071000000000000085e+01
6.018999999999999773e+01
6.300000000000000044e-01
-4.646000000000000085e+01
-3.436999999999999744e+01
-1.413000000000000078e+01
3.930000000000000160e+00
-2.910000000000000142e+00
7.399999999999999911e-01
1.794000000000000128e+01
5.099999999999999645e+00
9.330000000000000071e+00
7.110000000000000320e+00
-6.246000000000000085e+01
-3.509999999999999787e+00
8.821999999999999886e+01
6.215999999999999659e+01
1.682100000000000080e+02
-6.565000000000000568e+01
-1.441500000000000057e+02
3.753999999999999915e+01
2.485500000000000114e+02
-8.043999999999999773e+01
-2.530800000000000125e+02
-3.631000000000000227e+01
7.503000000000000114e+01
1.198400000000000034e+02
-1.109000000000000057e+02
9.906000000000000227e+01
1.419499999999999886e+02
-1.154800000000000040e+02
-1.471299999999999955e+02
1.225100000000000051e+02
-1.178999999999999915e+01
-4.732999999999999829e+01
-2.339999999999999858e+00
-1.894999999999999929e+01
1.591999999999999993e+01
-2.008999999999999986e+01
2.746000000000000085e+01
8.960000000000000853e+00
4.919999999999999929e+00
-3.279999999999999805e+00
-1.128999999999999915e+01
7.219999999999999751e+00
1.200000000000000000e+01
-1.016999999999999993e+01
-5.099999999999999645e+00
1.271000000000000085e+01
-3.629999999999999893e+00
-3.410000000000000142e+00
1.476999999999999957e+01
-4.549999999999999822e+00
-9.009999999999999787e+00
-1.280000000000000027e+00
-7.549999999999999822e+00
6.250000000000000000e+00
2.353000000000000114e+01
-4.389999999999999680e+00
-8.699999999999999956e-01
-8.900000000000000133e-01
1.085999999999999943e+01
-9.490000000000000213e+00
-1.291000000000000014e+01
-2.500000000000000000e-01
-2.099999999999999922e-01
-1.344999999999999929e+01
5.339999999999999858e+00
2.529999999999999805e+00
-1.273000000000000043e+01
1.291000000000000014e+01
2.712000000000000099e+01
1.056000000000000050e+01
-4.429999999999999716e+00
1.441999999999999993e+01
-1.116800000000000068e+02
-6.593999999999999773e+01
1.939399999999999977e+02
-8.785999999999999943e+01
6.768999999999999773e+01
1.545900000000000034e+02
1.493100000000000023e+02
-6.920999999999999375e+01
4.250000000000000000e+00
-2.290999999999999943e+02
-7.992000000000000171e+01
1.090900000000000034e+02
5.982999999999999829e+01
-2.707000000000000028e+01
3.094000000000000128e+01
7.530000000000000249e+00
-1.967000000000000171e+01
1.197000000000000064e+01
1.186999999999999922e+01
-2.035999999999999943e+01
4.700000000000000178e+00
2.700000000000000178e-01
-9.789999999999999147e+00
9.799999999999999822e-01
6.639999999999999680e+00
-2.740000000000000213e+00
-8.240000000000000213e+00
1.011999999999999922e+01
2.279999999999999805e+00
-2.867999999999999972e+01
-3.850000000000000089e+00
2.209999999999999964e+00
-1.006000000000000050e+01
-2.399999999999999911e-01
5.280000000000000249e+00
4.490000000000000213e+00
-6.440000000000000391e+00
1.678999999999999915e+01
-5.919999999999999929e+00
-9.740000000000000213e+00
1.478999999999999915e+01
4.719999999999999751e+00
-6.940000000000000391e+00
1.580000000000000071e+00
3.140000000000000124e+00
-3.680000000000000160e+00
-1.305000000000000071e+01
5.559999999999999609e+00
1.370000000000000107e+00
-1.041999999999999993e+01
7.169999999999999929e+00
7.769999999999999574e+00
-1.739999999999999991e+00
-5.559999999999999609e+00
2.629999999999999893e+00
5.000000000000000000e-01
-1.559999999999999964e+01
8.279999999999999361e+00
5.700000000000000178e+00
-4.110000000000000320e+00
9.699999999999999734e-01
4.530000000000000249e+00
-4.900000000000000355e+00
1.540000000000000036e+00
9.740000000000000213e+00
5.969999999999999751e+00
-7.889999999999999680e+00
4.950000000000000178e+00
5.000000000000000278e-02
-1.782999999999999829e+01
2.299999999999999822e+00
3.689999999999999947e+00
-3.169999999999999929e+00
-1.979999999999999982e+00
-2.773999999999999844e+01
2.839999999999999858e+01
-1.418999999999999950e+01
-2.835000000000000142e+01
3.415999999999999659e+01
-1.494999999999999929e+01
-1.547000000000000064e+01
8.990000000000000213e+00
1.657000000000000028e+01
-7.269999999999999574e+00
1.383999999999999986e+01
-1.790000000000000036e+00
-1.239000000000000057e+01
1.114000000000000057e+01
1.649999999999999911e+00
-1.299000000000000021e+01
1.281000000000000050e+01
9.589999999999999858e+00
-8.500000000000000000e+00
-1.409999999999999964e+01
1.038000000000000078e+01
6.980000000000000426e+00
-4.490000000000000213e+00
2.621000000000000085e+01
-6.124000000000000199e+01
-2.967099999999999795e+02
2.479900000000000091e+02
7.675000000000000000e+01
2.669999999999999929e+00
-4.527000000000000313e+01
-1.189999999999999947e+00
1.757999999999999829e+01
5.000000000000000278e-02
2.450000000000000178e+00
-1.040000000000000036e+00
-7.919999999999999929e+00
-8.500000000000000000e+00
3.700000000000000178e+00
4.000000000000000083e-02
-1.118999999999999950e+01
5.599999999999999645e+00
8.150000000000000355e+00
7.700000000000000178e-01
-1.291000000000000014e+01
-8.490000000000000213e+00
-1.239999999999999991e+00
-1.061999999999999922e+01
1.391000000000000014e+01
-5.999999999999999778e-01
-1.043999999999999950e+01
6.280000000000000249e+00
1.009999999999999964e+01
-5.259999999999999787e+00
-1.297000000000000064e+01
8.320000000000000284e+00
4.980000000000000426e+00
-1.339000000000000057e+01
3.520000000000000018e+00
1.739999999999999991e+00
-1.694000000000000128e+01
-3.959999999999999964e+00
9.980000000000000426e+00
3.979999999999999982e+00
-8.449999999999999289e+00
9.970000000000000639e+00
1.166000000000000014e+01
-9.580000000000000071e+00
-2.049999999999999822e+00
1.138000000000000078e+01
1.540000000000000036e+00
-1.957000000000000028e+01
9.050000000000000711e+00
8.769999999999999574e+00
-1.121000000000000085e+01
-1.573000000000000043e+01
1.485999999999999943e+01
9.189999999999999503e+00
-1.010999999999999943e+01
7.809999999999999609e+00
8.500000000000000000e+00
-7.559999999999999609e+00
-6.019999999999999574e+00
1.276999999999999957e+01
3.419999999999999929e+00
-2.010999999999999943e+01
1.136999999999999922e+01
-3.300000000000000155e-01
-1.108000000000000007e+01
-2.290000000000000036e+00
1.257000000000000028e+01
5.500000000000000444e-01
-1.361999999999999922e+01
1.687999999999999901e+01
3.620000000000000107e+00
-1.814999999999999858e+01
2.779999999999999805e+00
2.859999999999999876e+00
-1.753999999999999915e+01
-2.160000000000000142e+00
1.474000000000000021e+01
7.809999999999999609e+00
-1.571000000000000085e+01
1.116000000000000014e+01
1.016999999999999993e+01
-1.589000000000000057e+01
8.810000000000000497e+00
9.449999999999999289e+00
-1.448000000000000043e+01
-1.033000000000000007e+01
1.912000000000000099e+01
6.179999999999999716e+00
-1.425000000000000000e+01
1.503999999999999915e+01
6.150000000000000355e+00
-1.292999999999999972e+01
-3.800000000000000044e-01
9.789999999999999147e+00
-6.620000000000000107e+00
-2.796999999999999886e+01
1.582000000000000028e+01
9.609999999999999432e+00
-1.498000000000000043e+01
8.060000000000000497e+00
4.120000000000000107e+00
-6.199999999999999956e-01
8.100000000000000533e-01
1.453999999999999915e+01
-1.408000000000000007e+01
-2.357000000000000028e+01
3.014000000000000057e+01
-5.070000000000000284e+00
-1.951999999999999957e+01
2.446999999999999886e+01
1.379999999999999893e+00
-2.019999999999999929e+01
1.289000000000000057e+01
2.564000000000000057e+01
5.699999999999999512e-01
-6.769999999999999574e+00
-9.380000000000000782e+00
-4.860000000000000320e+00
-2.899999999999999800e-01
1.456000000000000050e+01
-8.359999999999999432e+00
-1.389000000000000057e+01
3.204999999999999716e+01
9.349999999999999645e+00
-1.100000000000000000e+01
8.589999999999999858e+00
6.330000000000000071e+00
-1.377999999999999936e+01
-5.000000000000000000e-01
3.959999999999999964e+00
-6.330000000000000071e+00
-1.264000000000000057e+01
-1.550000000000000044e+00
-7.500000000000000000e-01
-1.065000000000000036e+01
1.088000000000000078e+01
6.299999999999999822e+00
-1.516999999999999993e+01
9.460000000000000853e+00
3.819999999999999840e+00
-1.111999999999999922e+01
2.430000000000000160e+00
6.250000000000000000e+00
-7.339999999999999858e+00
-2.220000000000000195e+00
2.023000000000000043e+01
-1.682999999999999829e+01
-1.399000000000000021e+01
3.589999999999999858e+00
-8.269999999999999574e+00
-3.779999999999999805e+00
9.710000000000000853e+00
1.946000000000000085e+01
-2.750000000000000000e+00
-9.539999999999999147e+00
1.382000000000000028e+01
3.979999999999999982e+00
-2.569999999999999840e+00
1.351999999999999957e+01
3.020000000000000018e+00
-1.698999999999999844e+01
8.859999999999999432e+00
3.614999999999999858e+01
6.209999999999999964e+00
5.089999999999999858e+00
4.146000000000000085e+01
-1.527999999999999936e+01
-9.387000000000000455e+01
-9.848000000000000398e+01
-1.137600000000000051e+02
1.836399999999999864e+02
5.646000000000000085e+01
-7.299999999999999822e+00
-2.085000000000000142e+01
6.509999999999999787e+00
-9.699999999999999734e-01
-9.470000000000000639e+00
-7.459999999999999964e+00
6.530000000000000249e+00
1.820000000000000062e+00
-2.216000000000000014e+01
5.009999999999999787e+00
5.300000000000000266e-01
-1.835999999999999943e+01
9.570000000000000284e+00
1.178999999999999915e+01
-2.300000000000000100e-01
2.464999999999999858e+01
1.070000000000000062e+00
-2.707999999999999829e+01
-1.628999999999999915e+01
1.625000000000000000e+01
-1.229999999999999982e+00
-1.871000000000000085e+01
1.005000000000000071e+01
2.319999999999999840e+00
-1.664999999999999858e+01
9.759999999999999787e+00
-1.790000000000000036e+00
-4.986999999999999744e+01
7.443000000000000682e+01
3.927000000000000313e+01
-8.665999999999999659e+01
6.000000000000000000e+00
-2.839999999999999858e+00
1.308999999999999986e+01
-5.129999999999999893e+00
2.728000000000000114e+01
1.514000000000000057e+01
-2.076999999999999957e+01
1.166999999999999993e+01
8.410000000000000142e+00
-7.480000000000000426e+00
-3.250000000000000000e+00
1.260999999999999943e+01
1.530000000000000027e+00
-1.689999999999999858e+01
1.448000000000000043e+01
1.591999999999999993e+01
2.548000000000000043e+01
1.203400000000000034e+02
-2.301500000000000057e+02
-1.491000000000000014e+01
1.234699999999999989e+02
1.202999999999999972e+02
-2.339000000000000057e+01
7.099999999999999645e+00
-9.200000000000000400e-01
-1.101599999999999966e+02
-8.693000000000000682e+01
-1.035999999999999943e+02
5.004599999999999795e+02
1.429699999999999989e+02
-1.324499999999999886e+02
-1.372400000000000091e+02
1.357100000000000080e+02
-1.518300000000000125e+02
8.415999999999999659e+01
-9.939999999999999503e+00
1.603999999999999915e+01
-9.990000000000000213e+00
-9.018000000000000682e+01
3.579999999999999716e+01
3.879999999999999716e+01
6.660999999999999943e+01
-1.239200000000000017e+02
1.158700000000000045e+02
1.726500000000000057e+02
-1.246599999999999966e+02
-1.942100000000000080e+02
1.394799999999999898e+02
-6.209999999999999964e+00
-2.094999999999999929e+01
-8.240999999999999659e+01
-1.321299999999999955e+02
-2.085999999999999943e+01
1.291100000000000136e+02
7.543999999999999773e+01
7.120000000000000284e+01
1.180699999999999932e+02
-9.001000000000000512e+01
-2.931000000000000227e+02
2.228799999999999955e+02
-2.813299999999999841e+02
-9.431000000000000227e+01
2.375399999999999920e+02
1.078299999999999983e+02
1.903400000000000034e+02
-4.097200000000000273e+02
-1.643700000000000045e+02
2.060300000000000011e+02
5.764000000000000057e+01
2.779999999999999805e+00
1.207000000000000028e+01
-8.130000000000000782e+00
-3.990000000000000213e+00
1.655000000000000071e+01
-3.390000000000000124e+00
-1.469999999999999929e+01
1.758999999999999986e+01
7.330000000000000071e+00
-1.819000000000000128e+01
1.091999999999999993e+01
1.034999999999999964e+01
-7.150000000000000355e+00
-1.166000000000000014e+01
1.433000000000000007e+01
3.049999999999999822e+00
-1.383000000000000007e+01
8.759999999999999787e+00
4.629999999999999893e+00
-8.859999999999999432e+00
-1.060000000000000053e+00
8.939999999999999503e+00
8.000000000000000167e-02
-1.780999999999999872e+01
7.860000000000000320e+00
-2.770000000000000018e+00
-6.110000000000000320e+00
-4.490000000000000213e+00
2.649999999999999911e+00
2.069999999999999840e+00
-1.323000000000000043e+01
1.014000000000000057e+01
4.280000000000000249e+00
-1.078999999999999915e+01
1.760000000000000009e+00
9.289999999999999147e+00
-2.250000000000000000e+00
-1.955999999999999872e+01
5.879999999999999893e+00
8.210000000000000853e+00
-6.290000000000000036e+00
3.009999999999999787e+00
7.120000000000000107e+00
-2.569999999999999840e+00
-1.633999999999999986e+01
1.324000000000000021e+01
4.679999999999999716e+00
-1.092999999999999972e+01
3.339999999999999858e+00
1.086999999999999922e+01
-8.119999999999999218e+00
-1.232000000000000028e+01
1.923999999999999844e+01
6.009999999999999787e+00
-1.206000000000000050e+01
7.120000000000000107e+00
1.072000000000000064e+01
-7.559999999999999609e+00
-3.839999999999999858e+00
1.288000000000000078e+01
-1.399999999999999911e+00
-1.846999999999999886e+01
9.990000000000000213e+00
3.379999999999999893e+00
-6.839999999999999858e+00
3.830000000000000071e+00
8.019999999999999574e+00
-1.760000000000000009e+00
-1.441999999999999993e+01
7.580000000000000071e+00
2.700000000000000178e+00
-1.113000000000000078e+01
6.280000000000000249e+00
7.089999999999999858e+00
-5.030000000000000249e+00
-1.991000000000000014e+01
1.444999999999999929e+01
1.017999999999999972e+01
-1.737000000000000099e+01
5.650000000000000355e+00
5.250000000000000000e+00
-6.750000000000000000e+00
-9.419999999999999929e+00
2.046000000000000085e+01
1.979999999999999982e+00
-1.901000000000000156e+01
1.531000000000000050e+01
8.050000000000000711e+00
-1.480000000000000071e+01
7.169999999999999929e+00
1.300000000000000000e+01
-1.429999999999999938e+00
-8.699999999999999289e+00
1.117999999999999972e+01
-2.500000000000000000e-01
-1.701000000000000156e+01
1.282000000000000028e+01
3.259999999999999787e+00
-1.134999999999999964e+01
4.440000000000000391e+00
6.459999999999999964e+00
-3.069999999999999840e+00
-5.410000000000000142e+00
1.123000000000000043e+01
1.719999999999999973e+00
-1.605999999999999872e+01
1.066999999999999993e+01
3.569999999999999840e+00
-1.163000000000000078e+01
6.190000000000000391e+00
9.359999999999999432e+00
-6.129999999999999893e+00
-1.202999999999999936e+01
9.150000000000000355e+00
1.570000000000000062e+00
-1.410999999999999943e+01
8.830000000000000071e+00
8.830000000000000071e+00
-5.259999999999999787e+00
-1.469999999999999973e+00
7.250000000000000000e+00
-3.060000000000000053e+00
-1.258999999999999986e+01
1.197000000000000064e+01
4.839999999999999858e+00
-1.942000000000000171e+01
9.240000000000000213e+00
6.370000000000000107e+00
-8.230000000000000426e+00
-4.320000000000000284e+00
1.092999999999999972e+01
3.830000000000000071e+00
-1.215000000000000036e+01
1.538000000000000078e+01
3.240000000000000213e+00
-1.505000000000000071e+01
7.700000000000000178e+00
1.050000000000000000e+01
-1.042999999999999972e+01
-1.074000000000000021e+01
4.719999999999999751e+00
1.320000000000000062e+00
-1.575999999999999979e+01
1.341000000000000014e+01
4.580000000000000071e+00
-1.557000000000000028e+01
2.448000000000000043e+01
6.006000000000000227e+01
-9.643999999999999773e+01
7.981999999999999318e+01
2.371999999999999886e+01
5.674000000000000199e+01
-3.970000000000000195e+00
1.425000000000000000e+01
3.663000000000000256e+01
-2.051999999999999957e+01
-7.750000000000000000e+00
-3.790000000000000036e+00
-3.290999999999999659e+01
-3.304999999999999716e+01
1.053799999999999955e+02
5.195000000000000284e+01
-1.746999999999999886e+01
2.589999999999999858e+00
5.469999999999999751e+00
-6.714000000000000057e+01
-2.948999999999999844e+01
-1.100000000000000089e+00
-2.666000000000000014e+01
2.719000000000000128e+01
-1.166999999999999993e+01
-6.629999999999999893e+00
-2.267999999999999972e+01
1.429300000000000068e+02
-1.905000000000000071e+01
-1.228599999999999994e+02
5.689000000000000057e+01
3.364000000000000057e+01
-7.379000000000000625e+01
2.508899999999999864e+02
2.462000000000000099e+01
-6.518000000000000682e+01
3.071000000000000085e+01
3.968999999999999773e+01
8.089999999999999858e+00
1.662999999999999901e+01
-1.197000000000000064e+01
-2.946000000000000085e+01
-3.089999999999999858e+00
-1.757999999999999829e+01
8.029999999999999361e+00
1.833999999999999986e+01
1.315000000000000036e+01
-2.876999999999999957e+01
-9.539999999999999147e+00
4.172999999999999687e+01
-5.411999999999999744e+01
3.899000000000000199e+01
8.910000000000000142e+00
2.020000000000000018e+00
1.199999999999999956e+00
-8.339999999999999858e+00
-2.770000000000000018e+00
3.580000000000000071e+00
-2.029999999999999805e+00
1.413000000000000078e+01
3.959999999999999964e+00
-1.192999999999999972e+01
6.610000000000000320e+00
-2.149999999999999911e+00
-1.143999999999999950e+01
1.061999999999999922e+01
2.270000000000000018e+00
-3.000000000000000000e+00
5.030000000000000249e+00
-1.810000000000000053e+00
-7.950000000000000178e+00
1.310000000000000053e+00
1.330000000000000071e+00
-3.959999999999999964e+00
-1.152999999999999936e+01
4.679999999999999716e+00
8.100000000000000533e-01
-8.970000000000000639e+00
9.060000000000000497e+00
1.350000000000000089e+00
-4.870000000000000107e+00
-5.240000000000000213e+00
7.240000000000000213e+00
1.719999999999999973e+00
-1.363000000000000078e+01
6.809999999999999609e+00
5.969999999999999751e+00
-6.080000000000000071e+00
8.599999999999999867e-01
7.650000000000000355e+00
-9.499999999999999556e-01
-1.769999999999999929e+01
1.091999999999999993e+01
4.839999999999999858e+00
-7.790000000000000036e+00
7.120000000000000107e+00
8.919999999999999929e+00
2.330000000000000071e+00
-1.389000000000000057e+01
8.349999999999999645e+00
2.209999999999999964e+00
-1.099000000000000021e+01
8.699999999999999289e+00
6.040000000000000036e+00
-2.430000000000000160e+00
-2.899999999999999911e+00
1.032000000000000028e+01
-1.300000000000000044e+00
-2.180999999999999872e+01
1.250999999999999979e+01
7.080000000000000071e+00
-1.253999999999999915e+01
-1.116999999999999993e+01
1.058000000000000007e+01
1.799999999999999933e-01
-2.060999999999999943e+01
1.452999999999999936e+01
6.719999999999999751e+00
-1.342999999999999972e+01
6.349999999999999645e+00
1.531000000000000050e+01
-6.199999999999999956e-01
-1.973000000000000043e+01
1.796000000000000085e+01
7.599999999999999645e+00
-1.739999999999999858e+01
9.589999999999999858e+00
1.483000000000000007e+01
-2.000000000000000042e-02
-2.664999999999999858e+01
1.308999999999999986e+01
8.509999999999999787e+00
-1.626999999999999957e+01
9.000000000000000000e+00
1.198000000000000043e+01
-5.099999999999999645e+00
-2.430000000000000071e+01
1.603999999999999915e+01
7.150000000000000355e+00
-1.628999999999999915e+01
4.240000000000000213e+00
1.258000000000000007e+01
-5.160000000000000142e+00
-1.053999999999999915e+01
1.035999999999999943e+01
2.439999999999999947e+00
-2.482999999999999829e+01
1.567999999999999972e+01
1.173000000000000043e+01
-9.560000000000000497e+00
-6.919999999999999929e+00
1.039000000000000057e+01
2.109999999999999876e+00
-2.639999999999999858e+01
1.291000000000000014e+01
5.500000000000000000e+00
-1.550000000000000000e+01
9.779999999999999361e+00
1.116999999999999993e+01
-8.810000000000000497e+00
-7.299999999999999822e+00
1.318999999999999950e+01
3.099999999999999978e-01
-2.378999999999999915e+01
1.236999999999999922e+01
1.174000000000000021e+01
-2.058999999999999986e+01
8.220000000000000639e+00
9.029999999999999361e+00
-7.299999999999999822e+00
4.379999999999999893e+00
1.036999999999999922e+01
-4.389999999999999680e+00
-5.339999999999999858e+00
1.019999999999999929e+01
2.000000000000000111e-01
-2.010000000000000142e+01
8.210000000000000853e+00
4.440000000000000391e+00
-6.730000000000000426e+00
2.839999999999999858e+00
4.030000000000000249e+00
-4.419999999999999929e+00
-8.279999999999999361e+00
5.559999999999999609e+00
2.299999999999999822e+00
-1.955999999999999872e+01
9.699999999999999289e+00
5.259999999999999787e+00
-1.071000000000000085e+01
1.419999999999999929e+00
8.429999999999999716e+00
1.209999999999999964e+00
-1.705000000000000071e+01
7.559999999999999609e+00
3.259999999999999787e+00
-9.099999999999999645e+00
1.036999999999999922e+01
5.639999999999999680e+00
-6.219999999999999751e+00
-4.799999999999999822e-01
8.439999999999999503e+00
-3.379999999999999893e+00
-2.262000000000000099e+01
1.059999999999999964e+01
6.129999999999999893e+00
-6.179999999999999716e+00
6.559999999999999609e+00
5.250000000000000000e+00
-7.049999999999999822e+00
-8.199999999999999512e-01
7.839999999999999858e+00
-1.810000000000000053e+00
-1.844000000000000128e+01
1.243999999999999950e+01
3.890000000000000124e+00
-1.757000000000000028e+01
1.044999999999999929e+01
9.519999999999999574e+00
-6.599999999999999645e+00
-1.459999999999999964e+00
1.114000000000000057e+01
-8.499999999999999778e-01
-1.483000000000000007e+01
1.209999999999999964e+01
2.120000000000000107e+00
-1.782000000000000028e+01
1.298000000000000043e+01
6.179999999999999716e+00
-1.408000000000000007e+01
-1.698000000000000043e+01
-3.536999999999999744e+01
2.007199999999999989e+02
-1.022099999999999937e+02
-3.490000000000000213e+00
-4.854999999999999716e+01
8.590000000000000568e+01
7.580000000000000071e+00
-3.845000000000000284e+01
-1.099000000000000021e+01
3.578000000000000114e+01
7.204999999999999716e+01
-2.616800000000000068e+02
2.360000000000000142e+01
1.338499999999999943e+02
6.915999999999999659e+01
-1.631299999999999955e+02
1.623100000000000023e+02
2.468600000000000136e+02
-7.837000000000000455e+01
-2.009000000000000057e+02
5.000999999999999801e+01
1.513600000000000136e+02
-9.467000000000000171e+01
-1.094099999999999966e+02
-3.428000000000000114e+01
3.985000000000000142e+01
2.421000000000000085e+01
-2.299999999999999822e+00
1.335999999999999943e+01
1.409999999999999964e+01
-2.351000000000000156e+01
1.817999999999999972e+01
6.889999999999999680e+00
-1.662999999999999901e+01
6.549999999999999822e+00
1.418999999999999950e+01
-1.031000000000000050e+01
-1.132000000000000028e+01
1.503999999999999915e+01
1.676000000000000156e+01
-1.666000000000000014e+01
1.584999999999999964e+01
-1.199999999999999956e+00
-2.126000000000000156e+01
1.366999999999999993e+01
2.290000000000000036e+00
-1.892000000000000171e+01
8.839999999999999858e+00
1.000999999999999979e+01
-6.839999999999999858e+00
-4.669999999999999929e+00
1.061999999999999922e+01
1.530000000000000027e+00
-2.416000000000000014e+01
1.703999999999999915e+01
4.540000000000000036e+00
-1.689999999999999858e+01
1.591000000000000014e+01
1.035999999999999943e+01
-1.000999999999999979e+01
5.500000000000000000e+00
1.483999999999999986e+01
-6.299999999999999822e+00
-1.987000000000000099e+01
1.921000000000000085e+01
8.220000000000000639e+00
-2.114000000000000057e+01
2.557999999999999829e+01
2.351999999999999957e+01
-1.409000000000000057e+02
1.333700000000000045e+02
1.300200000000000102e+02
2.944900000000000091e+02
-1.312400000000000091e+02
-3.676899999999999977e+02
-4.902000000000000313e+01
4.279999999999999716e+01
3.410999999999999943e+01
5.139999999999999680e+00
-2.299999999999999822e+00
3.677000000000000313e+01
2.682000000000000028e+01
-2.207999999999999829e+01
-9.150000000000000355e+00
3.529999999999999805e+00
-1.705000000000000071e+01
7.790000000000000036e+00
6.635999999999999943e+01
-2.475000000000000000e+01
-3.918999999999999773e+01
-1.485999999999999943e+01
2.023000000000000043e+01
2.000000000000000042e-02
2.326000000000000156e+01
8.009999999999999787e+00
-2.500000000000000000e-01
5.849999999999999645e+00
-2.379999999999999893e+00
-1.142999999999999972e+01
-2.380000000000000071e+01
9.070000000000000284e+00
2.669999999999999929e+00
-1.573000000000000043e+01
1.939999999999999858e+01
4.929999999999999716e+00
-1.101999999999999957e+01
-1.869000000000000128e+01
1.084999999999999964e+01
3.709999999999999964e+00
-1.710000000000000142e+01
-6.600000000000000311e-01
1.311999999999999922e+01
-1.010999999999999943e+01
-1.031000000000000050e+01
1.092999999999999972e+01
-5.330000000000000071e+00
-2.555000000000000071e+01
2.119999999999999929e+01
8.990000000000000213e+00
-1.850000000000000000e+01
3.620000000000000107e+00
1.411999999999999922e+01
-5.559999999999999609e+00
-1.923999999999999844e+01
6.309999999999999609e+00
1.744999999999999929e+01
-4.081000000000000227e+01
6.700000000000000400e-01
1.830000000000000071e+01
-3.570000000000000284e+01
3.306000000000000227e+01
2.080000000000000071e+01
-1.735000000000000142e+01
1.424000000000000021e+01
2.176999999999999957e+01
1.308000000000000007e+01
1.069999999999999929e+01
1.659999999999999920e+00
-1.955000000000000071e+01
4.769999999999999574e+00
-1.060000000000000053e+00
-1.028999999999999915e+01
8.919999999999999929e+00
-1.544999999999999929e+01
-6.371000000000000085e+01
-6.998999999999999488e+01
9.684000000000000341e+01
-6.171999999999999886e+01
-3.080000000000000071e+00
3.713000000000000256e+01
2.498000000000000043e+01
1.792999999999999972e+01
-2.135000000000000142e+01
-5.727000000000000313e+01
3.082999999999999829e+01
4.353999999999999915e+01
-1.107000000000000028e+01
-3.300000000000000000e+01
-2.459999999999999964e+00
1.043999999999999950e+01
-2.664999999999999858e+01
-1.520000000000000018e+00
-1.352999999999999936e+01
1.862000000000000099e+01
1.399000000000000021e+01
8.009999999999999787e+00
-1.273000000000000043e+01
-2.851000000000000156e+01
-5.469999999999999751e+00
2.375000000000000000e+01
1.628000000000000114e+01
-1.330000000000000071e+01
-1.458999999999999986e+01
-2.130999999999999872e+01
-1.930000000000000071e+01
3.489000000000000057e+01
2.087999999999999901e+01
-9.080000000000000071e+00
-1.375000000000000000e+01
1.085999999999999943e+01
-2.080000000000000071e+00
-1.308999999999999986e+01
3.970000000000000195e+00
-3.299999999999999822e+00
-1.876999999999999957e+01
9.269999999999999574e+00
8.279999999999999361e+00
-1.539000000000000057e+01
-8.000000000000000167e-02
3.410000000000000142e+00
1.293999999999999950e+01
-3.129999999999999893e+00
1.311999999999999922e+01
-4.899999999999999911e-01
-2.058999999999999986e+01
1.708999999999999986e+01
9.970000000000000639e+00
-1.551999999999999957e+01
5.000000000000000000e-01
1.403999999999999915e+01
-9.599999999999999645e-01
-2.008999999999999986e+01
1.787000000000000099e+01
7.620000000000000107e+00
-8.789999999999999147e+00
-8.189999999999999503e+00
6.990000000000000213e+00
4.070000000000000284e+00
-2.153999999999999915e+01
1.350999999999999979e+01
6.299999999999999822e+00
-1.400999999999999979e+01
-2.950000000000000178e+00
9.560000000000000497e+00
-3.499999999999999778e-01
-1.610999999999999943e+01
1.214000000000000057e+01
2.330000000000000071e+00
-1.710999999999999943e+01
-7.650000000000000355e+00
2.859999999999999876e+00
-8.980000000000000426e+00
-2.585999999999999943e+01
1.239000000000000057e+01
1.272000000000000064e+01
2.140000000000000124e+00
2.478000000000000114e+01
1.166000000000000014e+01
3.699999999999999956e-01
-8.349999999999999645e+00
3.379999999999999893e+00
-9.119999999999999218e+00
-1.588000000000000078e+01
1.235999999999999943e+01
8.599999999999999867e-01
-2.523000000000000043e+01
1.102999999999999936e+01
1.064000000000000057e+01
-1.271000000000000085e+01
1.199999999999999956e+00
1.349000000000000021e+01
-3.359999999999999876e+00
-2.087000000000000099e+01
1.216000000000000014e+01
4.490000000000000213e+00
-2.235999999999999943e+01
1.400999999999999979e+01
1.472000000000000064e+01
-1.247000000000000064e+01
-8.750000000000000000e+00
1.366999999999999993e+01
-7.120000000000000107e+00
-8.029999999999999361e+00
3.153000000000000114e+01
8.320000000000000284e+00
-2.196000000000000085e+01
7.269999999999999574e+00
6.139999999999999680e+00
-1.275000000000000000e+01
1.790000000000000036e+00
1.505000000000000071e+01
-1.770000000000000018e+00
-2.196999999999999886e+01
1.498000000000000043e+01
7.860000000000000320e+00
-1.923000000000000043e+01
1.830000000000000071e+01
1.047000000000000064e+01
-1.265000000000000036e+01
-3.140000000000000124e+00
-1.830000000000000071e+00
-4.599999999999999645e+00
-1.280000000000000071e+01
2.212000000000000099e+01
1.199999999999999956e-01
-1.853999999999999915e+01
6.450000000000000178e+00
8.550000000000000711e+00
-4.679999999999999716e+00
-1.100999999999999979e+01
1.202999999999999936e+01
1.010000000000000009e+00
-2.335000000000000142e+01
1.251999999999999957e+01
5.500000000000000000e+00
-1.540000000000000036e+01
1.017999999999999972e+01
1.309999999999999964e+01
-1.101999999999999957e+01
-3.770000000000000018e+00
1.442999999999999972e+01
2.399999999999999911e+00
-1.887000000000000099e+01
9.570000000000000284e+00
6.299999999999999822e+00
-1.878999999999999915e+01
9.789999999999999147e+00
8.669999999999999929e+00
-7.740000000000000213e+00
-3.350000000000000089e+00
9.650000000000000355e+00
2.799999999999999822e+00
-1.898000000000000043e+01
7.750000000000000000e+00
-8.900000000000000133e-01
-1.266999999999999993e+01
9.410000000000000142e+00
1.228999999999999915e+01
-5.000000000000000000e+00
-1.548000000000000043e+01
1.150000000000000000e+01
2.129999999999999893e+00
-1.712999999999999901e+01
1.390000000000000036e+01
1.234999999999999964e+01
-7.330000000000000071e+00
-8.919999999999999929e+00
1.080000000000000071e+01
-2.169999999999999929e+00
-2.205999999999999872e+01
1.363000000000000078e+01
7.139999999999999680e+00
-1.710999999999999943e+01
1.146000000000000085e+01
1.214000000000000057e+01
-5.839999999999999858e+00
-2.046999999999999886e+01
1.566999999999999993e+01
-2.600000000000000089e-01
-1.630000000000000071e+01
1.621000000000000085e+01
1.090000000000000036e+01
-9.990000000000000213e+00
-1.211999999999999922e+01
1.508999999999999986e+01
3.859999999999999876e+00
-2.278999999999999915e+01
1.514000000000000057e+01
1.299000000000000021e+01
-9.189999999999999503e+00
-1.789999999999999858e+01
5.200000000000000178e+00
-1.199999999999999956e+00
-2.271000000000000085e+01
1.438000000000000078e+01
5.669999999999999929e+00
-1.266999999999999993e+01
1.576999999999999957e+01
1.612000000000000099e+01
-4.900000000000000355e+00
-1.594999999999999929e+01
1.172000000000000064e+01
3.879999999999999893e+00
-1.853000000000000114e+01
1.049000000000000021e+01
1.108999999999999986e+01
-9.550000000000000711e+00
-5.790000000000000036e+00
1.146000000000000085e+01
-1.070000000000000062e+00
-6.219999999999999751e+00
1.673000000000000043e+01
6.000000000000000000e+00
-2.125000000000000000e+01
1.083000000000000007e+01
5.809999999999999609e+00
-3.073999999999999844e+01
1.694000000000000128e+01
5.650000000000000355e+00
-3.950000000000000178e+00
2.262999999999999901e+01
1.641000000000000014e+01
-9.130000000000000782e+00
-5.089999999999999858e+00
8.648000000000000398e+01
1.538600000000000136e+02
-3.634000000000000341e+01
-9.951000000000000512e+01
-1.632700000000000102e+02
-1.738199999999999932e+02
4.357999999999999829e+01
9.337000000000000455e+01
6.469999999999999751e+00
-5.375999999999999801e+01
1.360000000000000000e+02
6.022999999999999687e+01
1.190100000000000051e+02
-3.838000000000000256e+01
3.707999999999999829e+01
3.098999999999999844e+01
1.130400000000000063e+02
-1.969699999999999989e+02
1.737700000000000102e+02
1.367800000000000011e+02
1.255600000000000023e+02
-1.104500000000000028e+02
-1.243799999999999955e+02
-2.569000000000000128e+01
1.310000000000000053e+00
-8.189999999999999503e+00
-3.157000000000000028e+01
7.962999999999999545e+01
7.712999999999999545e+01
-1.156200000000000045e+02
-7.231000000000000227e+01
2.610000000000000142e+01
2.971000000000000085e+01
-3.596999999999999886e+01
2.049999999999999822e+00
-1.196000000000000085e+01
-1.830000000000000071e+00
5.280000000000000249e+00
-8.009999999999999787e+00
2.171000000000000085e+01
1.228999999999999915e+01
1.300000000000000000e+01
-1.810999999999999943e+01
-2.851999999999999957e+01
3.520000000000000018e+00
-7.360000000000000320e+00
1.612000000000000099e+01
9.050000000000000711e+00
-1.550000000000000000e+01
1.024000000000000021e+01
9.039999999999999147e+00
-1.659999999999999920e+00
1.056000000000000050e+01
4.799999999999999822e+00
-7.519999999999999574e+00
-9.199999999999999289e+00
6.440000000000000391e+00
2.379999999999999893e+00
-1.408000000000000007e+01
7.679999999999999716e+00
1.290000000000000036e+00
-1.055000000000000071e+01
-3.800000000000000044e-01
8.740000000000000213e+00
-4.600000000000000200e-01
-1.036999999999999922e+01
9.500000000000000000e+00
4.199999999999999845e-01
-1.983999999999999986e+01
1.430000000000000071e+01
9.470000000000000639e+00
-1.093999999999999950e+01
-9.599999999999999645e-01
7.290000000000000036e+00
-3.080000000000000071e+00
-8.890000000000000568e+00
1.152999999999999936e+01
4.250000000000000000e+00
-2.150000000000000000e+01
8.369999999999999218e+00
9.160000000000000142e+00
-5.910000000000000142e+00
8.839999999999999858e+00
6.150000000000000355e+00
-9.669999999999999929e+00
-1.619000000000000128e+01
1.003999999999999915e+01
4.549999999999999822e+00
-1.525999999999999979e+01
1.184999999999999964e+01
1.791000000000000014e+01
-9.810000000000000497e+00
3.200000000000000178e+00
7.429999999999999716e+00
-4.490000000000000213e+00
-9.359999999999999432e+00
1.242999999999999972e+01
2.839999999999999858e+00
-2.726000000000000156e+01
-1.179999999999999938e+00
-1.489999999999999991e+00
-7.399999999999999911e-01
-2.970000000000000195e+00
2.321999999999999886e+01
-2.099999999999999922e-01
8.750000000000000000e+00
8.650000000000000355e+00
-1.376999999999999957e+01
-5.049999999999999822e+00
7.950000000000000178e+00
-1.449000000000000021e+01
3.419999999999999929e+00
8.179999999999999716e+00
8.439999999999999503e+00
-8.150000000000000355e+00
1.056000000000000050e+01
3.819999999999999840e+00
-6.660000000000000142e+00
1.850000000000000089e+00
7.490000000000000213e+00
-5.169999999999999929e+00
-1.250000000000000000e+01
6.940000000000000391e+00
4.799999999999999822e-01
-1.421000000000000085e+01
1.118999999999999950e+01
1.084999999999999964e+01
-5.379999999999999893e+00
2.569999999999999840e+00
9.460000000000000853e+00
-2.279999999999999805e+00
-1.646000000000000085e+01
8.619999999999999218e+00
2.819999999999999840e+00
-1.630000000000000071e+01
2.560000000000000053e+00
4.769999999999999574e+00
-2.299999999999999822e+00
-1.969999999999999973e+00
9.119999999999999218e+00
7.600000000000000089e-01
-1.621000000000000085e+01
5.769999999999999574e+00
3.169999999999999929e+00
-1.056000000000000050e+01
6.899999999999999467e-01
5.240000000000000213e+00
-4.389999999999999680e+00
-1.673000000000000043e+01
8.970000000000000639e+00
6.750000000000000000e+00
-7.620000000000000107e+00
1.165000000000000036e+01
7.530000000000000249e+00
-8.029999999999999361e+00
-2.490000000000000213e+00
9.669999999999999929e+00
-1.799999999999999933e-01
-1.789000000000000057e+01
8.029999999999999361e+00
2.250000000000000000e+00
-9.660000000000000142e+00
1.027999999999999936e+01
1.090000000000000036e+01
-5.169999999999999929e+00
-4.600000000000000200e-01
7.839999999999999858e+00
-3.459999999999999964e+00
-2.678999999999999915e+01
4.410000000000000142e+00
-4.919999999999999929e+00
-1.357000000000000028e+01
1.141999999999999993e+01
1.108999999999999986e+01
-3.300000000000000155e-01
3.959999999999999964e+00
9.660000000000000142e+00
-2.790000000000000036e+00
-6.150000000000000355e+00
1.099000000000000021e+01
2.950000000000000178e+00
-1.910999999999999943e+01
-1.800000000000000044e+00
-3.509999999999999787e+00
4.120000000000000107e+00
-6.239000000000000057e+01
6.999999999999999556e-01
-1.312299999999999898e+02
-3.517000000000000171e+01
1.399499999999999886e+02
7.998999999999999488e+01
1.326200000000000045e+02
-1.786999999999999886e+02
1.228100000000000023e+02
-8.999999999999999667e-02
1.108000000000000007e+01
-5.454999999999999716e+01
2.078000000000000114e+01
-2.360000000000000142e+01
-2.237999999999999901e+01
1.982000000000000028e+01
3.381000000000000227e+01
4.928999999999999915e+01
-2.700000000000000000e+01
-1.281000000000000050e+01
-5.339999999999999858e+00
2.899999999999999911e+00
-3.399999999999999911e+00
-9.609999999999999432e+00
8.740000000000000213e+00
-1.814999999999999858e+01
5.679999999999999716e+00
2.390000000000000124e+00
-1.298000000000000043e+01
5.309999999999999609e+00
-1.000000000000000000e+00
-1.041999999999999993e+01
4.349999999999999645e+00
8.990000000000000213e+00
1.574000000000000021e+01
-3.660000000000000142e+01
3.599999999999999867e-01
1.276999999999999957e+01
-1.334999999999999964e+01
4.000000000000000222e-01
-8.810000000000000497e+00
1.386999999999999922e+01
-8.019999999999999574e+00
-8.869999999999999218e+00
-4.699999999999999734e-01
1.399000000000000021e+01
3.064000000000000057e+01
-2.651000000000000156e+01
-3.786999999999999744e+01
1.625000000000000000e+01
4.928000000000000114e+01
-2.533999999999999986e+01
-3.700999999999999801e+01
5.259999999999999787e+00
-1.539000000000000057e+01
-2.441000000000000014e+01
6.631999999999999318e+01
6.496999999999999886e+01
-5.467000000000000171e+01
2.335999999999999943e+01
1.199999999999999956e-01
-4.882999999999999829e+01
6.950000000000000178e+00
3.779999999999999805e+00
-3.374000000000000199e+01
2.085000000000000142e+01
1.746999999999999886e+01
-1.607000000000000028e+01
1.391999999999999993e+01
9.470000000000000639e+00
-7.870000000000000107e+00
4.139999999999999680e+00
1.092999999999999972e+01
-3.599999999999999867e-01
-1.573000000000000043e+01
9.029999999999999361e+00
-2.569999999999999840e+00
-3.409000000000000341e+01
1.248000000000000043e+01
9.220000000000000639e+00
-1.680999999999999872e+01
6.899999999999999467e-01
-7.450000000000000178e+00
-1.091800000000000068e+02
-1.694900000000000091e+02
2.264399999999999977e+02
8.931999999999999318e+01
-1.274000000000000021e+01
5.388000000000000256e+01
1.637000000000000099e+01
-7.870000000000000107e+00
1.342999999999999972e+01
9.619999999999999218e+00
-6.190000000000000391e+00
-3.500000000000000000e+00
1.676999999999999957e+01
2.979999999999999982e+00
-1.967000000000000171e+01
1.848000000000000043e+01
4.299999999999999822e+00
-2.019000000000000128e+01
8.650000000000000355e+00
8.189999999999999503e+00
-6.059999999999999609e+00
2.800000000000000266e-01
7.429999999999999716e+00
-1.700000000000000122e-01
-2.417999999999999972e+01
1.601999999999999957e+01
4.330000000000000071e+00
-1.041999999999999993e+01
-1.049000000000000021e+01
6.559999999999999609e+00
2.399999999999999911e-01
-1.678000000000000114e+01
6.230000000000000426e+00
3.240000000000000213e+00
-7.160000000000000142e+00
-3.470000000000000195e+00
7.509999999999999787e+00
3.569999999999999840e+00
-2.305999999999999872e+01
1.050000000000000044e+00
8.609999999999999432e+00
-4.730000000000000426e+00
-1.040000000000000036e+00
1.113000000000000078e+01
3.180000000000000160e+00
-2.160000000000000142e+01
8.710000000000000853e+00
-6.300000000000000044e-01
-2.071999999999999886e+01
9.380000000000000782e+00
2.029999999999999805e+00
-1.149999999999999911e+00
-7.879999999999999893e+00
1.101999999999999957e+01
5.049999999999999822e+00
-2.328000000000000114e+01
7.230000000000000426e+00
7.410000000000000142e+00
-2.016000000000000014e+01
7.929999999999999716e+00
1.088000000000000078e+01
1.929999999999999938e+00
-1.181000000000000050e+01
3.669999999999999929e+00
-9.449999999999999289e+00
-8.937000000000000455e+01
7.104999999999999716e+01
2.951999999999999957e+01
2.037999999999999901e+01
-8.660000000000000142e+00
-9.599999999999999645e+00
1.444999999999999929e+01
-9.720000000000000639e+00
1.596000000000000085e+01
-3.270000000000000018e+00
-2.385000000000000142e+01
-2.589999999999999858e+00
9.439999999999999503e+00
2.200000000000000178e+00
-1.140000000000000036e+01
1.555000000000000071e+01
4.000000000000000222e-01
2.607999999999999829e+01
3.239000000000000057e+01
-1.406100000000000136e+02
2.874399999999999977e+02
-1.590900000000000034e+02
-1.100699999999999932e+02
-6.318999999999999773e+01
8.625000000000000000e+01
-1.789999999999999858e+01
3.395000000000000284e+01
4.778000000000000114e+01
-8.998999999999999488e+01
2.700000000000000000e+01
-4.627000000000000313e+01
-4.199000000000000199e+01
1.165499999999999972e+02
-9.580000000000000071e+00
2.164699999999999989e+02
1.788100000000000023e+02
-1.252000000000000028e+02
-1.795000000000000000e+02
-8.956999999999999318e+01
-5.146000000000000085e+01
-1.346500000000000057e+02
8.389000000000000057e+01
1.930999999999999872e+01
6.200000000000000178e+00
1.068799999999999955e+02
5.925000000000000000e+01
-5.581000000000000227e+01
7.901999999999999602e+01
1.780000000000000071e+01
1.131299999999999955e+02
1.978000000000000114e+01
-4.813000000000000256e+01
3.785000000000000142e+01
-2.700000000000000178e+00
7.709999999999999432e+01
-1.111899999999999977e+02
-5.895000000000000284e+01
-2.266000000000000014e+01
-1.933999999999999986e+01
1.964999999999999858e+01
2.390000000000000124e+00
-1.577999999999999936e+01
2.217000000000000171e+01
1.632999999999999829e+01
3.479999999999999982e+00
1.136999999999999922e+01
1.064000000000000057e+01
-5.980000000000000426e+00
-3.030000000000000071e+01
1.288000000000000078e+01
-1.290000000000000036e+00
-2.458999999999999986e+01
9.640000000000000568e+00
-1.020000000000000018e+00
-1.008999999999999986e+01
-5.228000000000000114e+01
-7.065999999999999659e+01
5.835000000000000142e+01
2.723999999999999844e+01
9.668999999999999773e+01
-1.696500000000000057e+02
-5.632999999999999829e+01
8.800000000000000044e-01
-3.279999999999999805e+00
8.029000000000000625e+01
5.329999999999999716e+01
2.685999999999999943e+01
-1.700000000000000122e-01
-1.676999999999999957e+01
3.629999999999999893e+00
2.383999999999999986e+01
-2.000000000000000111e-01
-1.905000000000000071e+01
1.435999999999999943e+01
1.649999999999999911e+00
-2.660000000000000142e+01
-4.900999999999999801e+01
-1.360999999999999943e+02
2.298499999999999943e+02
2.951999999999999957e+01
3.619599999999999795e+02
-3.805899999999999750e+02
-6.100000000000000000e+01
7.259000000000000341e+01
-2.523700000000000045e+02
-1.620300000000000011e+02
1.092900000000000063e+02
5.645000000000000284e+01
4.071999999999999886e+01
-1.879999999999999893e+00
-1.486999999999999922e+01
-5.532000000000000028e+01
-1.432000000000000028e+01
3.899000000000000199e+01
3.543999999999999773e+01
-2.689999999999999947e+00
-6.381000000000000227e+01
-1.515000000000000036e+01
1.403999999999999915e+01
-1.080000000000000071e+01
1.812000000000000099e+01
1.544999999999999929e+01
-1.530000000000000071e+01
3.699999999999999956e-01
1.488000000000000078e+01
-1.100000000000000089e+00
-1.521000000000000085e+01
4.809999999999999609e+00
2.589999999999999858e+00
-1.094999999999999929e+01
7.980000000000000426e+00
-2.560000000000000053e+00
-9.369999999999999218e+00
4.530000000000000249e+00
1.290000000000000036e+00
-5.620000000000000107e+00
-1.228999999999999915e+01
7.219999999999999751e+00
2.790000000000000036e+00
-8.910000000000000142e+00
8.099999999999999645e+00
2.430000000000000160e+00
-7.700000000000000178e+00
-7.370000000000000107e+00
9.759999999999999787e+00
9.000000000000000222e-01
-1.474000000000000021e+01
1.026999999999999957e+01
8.119999999999999218e+00
-7.120000000000000107e+00
5.360000000000000320e+00
1.015000000000000036e+01
-6.049999999999999822e+00
-1.023000000000000043e+01
6.190000000000000391e+00
5.900000000000000355e+00
-1.227999999999999936e+01
9.210000000000000853e+00
8.669999999999999929e+00
-4.490000000000000213e+00
1.370000000000000107e+00
6.179999999999999716e+00
-5.000000000000000278e-02
-1.077999999999999936e+01
5.000000000000000000e+00
2.020000000000000018e+00
-7.519999999999999574e+00
3.430000000000000160e+00
7.780000000000000249e+00
-4.269999999999999574e+00
-1.302999999999999936e+01
5.650000000000000355e+00
4.099999999999999645e+00
-4.290000000000000036e+00
-9.100000000000000311e-01
6.639999999999999680e+00
9.000000000000000222e-01
-1.061999999999999922e+01
6.349999999999999645e+00
8.820000000000000284e+00
4.000000000000000083e-02
-1.481000000000000050e+01
9.130000000000000782e+00
6.120000000000000107e+00
-5.269999999999999574e+00
-2.399999999999999911e+00
6.400000000000000355e+00
4.500000000000000111e-01
-7.709999999999999964e+00
7.150000000000000355e+00
1.149999999999999911e+00
1.129999999999999893e+00
-1.176999999999999957e+01
1.699999999999999956e+00
4.900000000000000355e+00
-1.260000000000000009e+00
1.239999999999999991e+00
3.229999999999999982e+00
-2.040000000000000036e+00
-8.869999999999999218e+00
3.000000000000000000e+00
5.600000000000000533e-01
-4.570000000000000284e+00
4.899999999999999911e-01
1.639999999999999902e+00
7.299999999999999822e-01
-5.799999999999999822e+00
3.890000000000000124e+00
-2.779999999999999805e+00
-1.532000000000000028e+01
1.419999999999999929e+00
1.651000000000000156e+01
9.699999999999999734e-01
-1.066999999999999993e+01
