1592926372.00
64.000000
-0.00
-0.00
-0.00
-0.00
-0.00
-0.00
-0.00
-0.00
-0.00
-0.00
0.00
0.01
0.01
-0.00
-0.03
-0.05
-0.05
0.00
0.13
0.36
0.66
1.01
1.37
1.72
2.06
2.40
2.79
3.24
3.80
4.42
5.06
5.66
6.20
6.68
7.15
7.68
8.31
9.14
10.09
11.04
11.88
12.56
13.14
13.76
14.65
15.96
17.91
20.32
22.90
25.38
27.58
29.57
31.68
34.32
37.81
42.54
48.15
54.10
59.83
64.97
69.58
74.14
79.34
85.71
93.76
103.00
112.62
121.73
129.77
136.75
143.30
150.75
157.77
166.64
177.95
191.79
206.97
220.57
228.25
225.36
208.53
176.87
132.76
80.05
23.07
-34.94
-92.43
-149.15
-205.22
-260.37
-313.75
-363.89
-409.85
-450.92
-486.47
-515.66
-537.11
-549.12
-549.96
-538.56
-514.63
-479.32
-434.67
-383.28
-327.78
-270.50
-213.23
-157.28
-103.67
-53.20
-6.77
34.80
70.84
100.99
125.25
144.02
157.94
167.78
174.32
178.17
179.78
179.43
177.29
173.41
167.89
160.91
152.86
144.25
135.70
127.69
120.42
113.65
106.82
99.31
90.77
81.42
71.95
63.34
56.35
51.14
47.11
43.11
37.99
31.20
23.17
15.07
8.33
3.82
1.52
0.53
-0.46
-2.44
-5.71
-10.09
-15.66
-22.79
-31.33
-39.60
-43.85
-39.15
-22.01
7.13
43.37
78.44
104.26
116.52
116.18
107.84
95.84
81.11
60.50
31.24
-5.97
-44.80
-74.93
-86.75
-76.40
-47.34
-8.20
31.68
66.69
95.73
119.89
138.84
148.12
142.43
118.76
79.61
33.28
-9.33
-39.74
-54.84
-57.29
-53.10
-47.81
-44.32
-42.68
-41.51
-39.51
-36.59
-33.55
-31.40
-30.63
-30.80
-30.92
-30.03
-27.76
-24.40
-20.84
-18.09
-16.82
-17.04
-18.02
-18.70
-18.25
-16.38
-13.54
-10.65
-8.73
-8.37
-9.50
-11.38
-12.96
-13.40
-12.43
-10.52
-8.64
-7.84
-8.71
-11.16
-14.33
-17.05
-18.31
-17.75
-15.94
-14.04
-13.37
-14.75
-18.13
-22.58
-26.62
-29.08
-29.43
-28.15
-26.34
-25.16
-25.53
-28.05
-33.11
-40.57
-49.14
-55.83
-56.48
-46.99
-25.71
5.12
39.61
70.28
91.18
100.10
99.21
92.39
83.61
75.03
66.87
58.38
49.11
39.58
30.87
23.80
18.21
13.31
8.17
1.87
-5.07
-11.76
-17.21
-20.80
-22.35
-22.18
-20.56
-17.61
-13.01
-6.78
0.74
8.81
16.36
22.37
26.36
28.73
30.52
32.91
36.26
39.88
42.07
40.95
35.58
26.45
15.69
5.46
-1.55
-4.25
-2.99
1.19
6.73
11.30
11.44
3.20
-15.96
-44.65
-76.72
-102.76
-114.10
-107.11
-85.13
-56.69
-30.88
-13.19
-3.41
2.40
8.43
15.93
23.12
27.19
27.02
24.76
24.26
29.33
41.85
60.74
82.45
101.74
113.28
112.27
97.53
71.15
38.45
6.36
-19.02
-34.48
-40.49
-40.20
-37.37
-34.40
-32.05
-29.79
-26.92
-23.31
-19.48
-16.04
-13.38
-11.60
-10.66
-10.65
-11.46
-12.69
-13.81
-14.24
-14.00
-13.60
-13.75
-14.77
-16.30
-17.14
-15.77
-11.12
-3.39
5.56
12.63
14.66
10.13
0.10
-11.90
-21.34
-24.80
-21.77
-14.67
-7.30
-2.59
-1.02
-0.88
-0.06
1.60
1.49
-4.19
-17.32
-35.39
-51.74
-58.75
-51.90
-32.89
-9.16
9.64
16.48
10.06
-5.18
-22.52
-36.40
-44.68
-48.02
-47.50
-42.56
-31.43
-13.18
10.07
32.75
48.68
55.02
54.62
54.82
62.95
81.07
102.83
117.27
114.24
90.66
52.32
10.55
-24.18
-46.74
-57.60
-59.56
-54.05
-40.31
-17.77
10.44
36.77
51.89
49.50
30.82
4.51
-17.77
-27.58
-23.31
-10.20
4.56
15.59
21.38
23.53
23.75
21.86
15.92
4.43
-11.94
-29.71
-44.51
-53.48
-56.47
-55.84
-54.18
-52.25
-48.45
-40.19
-26.33
-8.27
8.65
19.49
21.70
16.66
8.50
1.83
-0.70
0.68
3.45
4.77
3.61
0.99
-0.52
1.14
6.24
13.03
18.68
20.69
18.21
12.64
6.74
3.35
4.01
8.35
14.47
19.93
22.97
23.36
22.52
22.36
24.13
27.49
30.68
31.56
28.85
22.95
15.94
10.66
9.21
12.03
17.88
24.74
30.93
35.62
38.53
39.68
39.01
36.40
31.95
26.19
19.94
13.79
9.34
6.88
5.82
5.11
3.82
1.56
-1.44
-4.58
-7.21
-8.86
-9.60
-9.69
-9.43
-9.02
-8.45
-7.57
-6.16
-4.00
-0.94
2.80
6.79
10.53
13.56
15.78
17.54
19.61
22.55
26.17
29.09
29.39
25.52
17.22
5.82
-6.48
-17.77
-27.31
-35.53
-43.11
-49.94
-54.81
-56.17
-53.22
-46.78
-39.20
-33.33
-31.23
-33.32
-38.31
-44.10
-48.86
-51.64
-52.40
-51.75
-50.54
-49.49
-48.92
-48.61
-47.98
-46.94
-45.67
-44.41
-43.36
-42.72
-42.76
-43.57
-44.91
-46.13
-47.57
-49.41
-51.19
-51.63
-49.28
-43.27
-33.36
-19.92
-3.78
12.15
25.56
36.48
47.59
62.32
82.12
104.84
124.71
134.36
125.23
93.03
40.12
-25.18
-92.70
-154.59
-207.09
-249.69
-268.24
-253.26
-206.08
-139.75
-70.06
-7.87
42.04
79.06
104.85
122.42
132.77
136.86
136.10
133.08
130.07
127.91
126.33
124.66
122.61
118.53
110.63
98.67
84.16
68.84
53.73
39.20
25.14
11.60
-2.32
-13.85
-23.63
-31.56
-37.20
-40.42
-41.28
-40.36
-38.10
-35.41
-33.02
-31.62
-30.98
-30.52
-29.87
-28.60
-26.78
-24.46
-21.75
-18.66
-15.38
-11.60
-6.87
-2.35
3.17
9.92
17.76
26.36
35.29
43.88
51.55
57.94
62.81
66.35
68.53
69.56
69.83
69.89
70.23
71.20
73.22
76.69
82.12
89.60
99.17
110.78
124.29
139.51
155.81
172.68
189.62
206.21
221.74
235.41
246.29
253.11
257.16
258.34
256.51
251.60
243.70
232.50
218.04
200.77
181.62
162.05
142.50
123.32
104.80
87.10
69.93
53.14
36.90
21.73
8.63
-2.33
-11.19
-18.09
-22.93
-26.87
-30.76
-34.66
-37.84
-38.56
-36.86
-33.26
-28.52
-23.27
-21.21
-24.91
-34.48
-47.68
-59.26
-68.09
-74.47
-79.11
-82.59
-91.75
-111.14
-140.55
-175.06
-203.79
-224.58
-238.48
-247.75
-253.90
-268.62
-299.97
-348.32
-406.51
-457.72
-498.73
-531.20
-559.01
-583.67
-620.41
-679.45
-760.93
-855.21
-940.17
-1011.64
-1071.95
-1126.86
-1093.42
-930.30
-651.33
-319.73
-65.91
104.62
207.92
257.75
281.60
296.79
298.16
282.05
252.34
220.61
209.27
219.95
271.57
323.06
374.89
414.69
434.30
433.16
418.06
405.40
395.31
383.87
365.40
344.20
316.62
281.71
242.15
203.46
175.32
153.52
130.46
97.82
56.57
4.29
-59.45
-133.46
-215.31
-275.51
-296.80
-277.66
-234.16
-183.81
-141.39
-112.38
-94.68
-81.27
-62.37
-34.78
0.89
40.31
79.25
112.02
134.40
145.34
147.31
144.95
139.34
129.87
115.54
97.44
78.05
60.84
49.17
45.17
49.35
58.43
67.37
73.99
78.08
81.08
85.10
92.03
102.64
116.42
130.31
140.38
143.28
136.96
121.15
97.58
69.29
38.68
9.23
-16.99
-39.73
-59.70
-77.75
-93.96
-107.57
-115.51
-114.19
-100.71
-73.62
-33.41
17.30
73.57
126.48
166.47
185.67
180.10
151.50
108.35
63.45
30.11
17.47
27.17
53.75
87.25
119.22
142.25
152.93
151.15
138.73
117.81
90.03
57.11
21.44
-14.13
-48.94
-80.19
-106.84
-129.57
-149.66
-167.55
-181.99
-190.36
-189.28
-176.50
-152.44
-119.94
-83.00
-45.25
-8.91
23.69
52.54
78.13
103.45
126.25
142.46
148.68
143.78
129.59
110.50
92.71
82.06
82.33
92.50
107.62
120.04
121.61
106.19
71.78
22.30
-38.28
-100.32
-154.14
-192.54
-212.66
-216.14
-207.41
-191.03
-167.98
-136.44
-93.66
-40.81
16.20
67.50
102.52
114.01
101.72
74.74
47.82
35.82
46.86
80.53
129.09
181.25
226.22
247.10
233.29
185.35
115.19
37.61
-37.00
-104.20
-162.66
-210.92
-246.71
-266.52
-269.29
-256.14
-231.31
-200.43
-167.65
-134.16
-98.50
-57.94
-12.43
36.00
83.40
124.53
154.87
172.36
177.89
174.34
165.13
153.67
142.49
132.65
123.67
114.65
105.35
96.42
88.85
83.15
79.20
76.41
74.06
71.24
67.62
63.62
60.07
57.86
57.72
60.25
65.77
73.33
79.93
80.91
71.64
49.91
17.69
-19.00
-52.37
-75.85
-86.78
-86.89
-80.58
-72.21
-64.17
-56.65
-48.75
-40.03
-31.04
-23.00
-16.89
-12.75
-9.67
-6.52
-2.49
2.19
6.43
8.75
7.94
3.39
-4.77
-15.77
-28.56
-42.19
-55.42
-67.80
-78.83
-88.00
-95.10
-100.21
-103.78
-106.43
-108.87
-111.43
-114.03
-116.15
-117.25
-117.18
-116.35
-115.82
-116.04
-117.50
-120.45
-125.00
-131.12
-136.83
-138.96
-133.24
-115.70
-84.95
-43.78
1.41
42.54
72.95
89.78
94.10
89.61
80.36
68.83
55.76
41.29
26.16
12.17
1.91
-2.77
-1.48
4.82
14.22
24.71
35.28
45.61
55.86
66.31
76.55
85.42
91.60
93.54
90.48
82.78
71.45
58.00
44.25
31.26
19.24
8.04
-3.18
-14.94
-27.12
-39.27
-50.77
-60.13
-66.67
-70.82
-73.46
-76.39
-80.77
-87.03
-95.21
-105.13
-114.42
-121.70
-129.38
-136.21
-143.50
-151.84
-160.54
-168.16
-172.83
-169.27
-153.41
-125.60
-87.81
-43.46
5.02
56.44
110.31
166.29
228.29
298.03
373.24
448.54
517.01
573.09
613.42
636.45
615.97
542.44
425.36
288.41
155.42
40.25
-52.80
-124.71
-178.73
-218.52
-242.50
-250.43
-244.46
-230.31
-213.92
-199.24
-187.42
-178.10
-170.08
-157.88
-137.76
-109.26
-74.88
-37.75
-3.25
25.82
47.96
56.84
51.11
32.15
3.55
-30.49
-66.45
-101.87
-134.96
-164.92
-191.24
-211.98
-226.04
-233.68
-235.97
-235.32
-233.81
-232.55
-232.18
-232.50
-232.13
-229.76
-224.70
-216.88
-206.64
-194.14
-178.82
-162.59
-146.23
-129.66
-112.66
-95.00
-76.67
-58.08
-39.97
-23.29
-9.12
2.15
10.85
17.89
24.77
33.16
44.13
57.74
72.93
87.88
101.19
112.32
121.95
131.85
144.33
160.72
180.53
201.37
219.86
233.43
241.25
244.76
247.09
252.55
264.20
283.07
308.63
339.38
373.37
407.46
436.74
455.48
460.61
453.06
438.81
427.10
426.22
438.66
458.89
475.27
475.97
456.09
418.05
368.71
314.35
257.13
195.27
126.76
53.79
-26.91
-106.88
-173.00
-216.18
-237.28
-246.24
-255.23
-271.68
-295.46
-316.65
-326.82
-321.17
-299.49
-265.04
-222.16
-174.87
-126.93
-87.09
-63.81
-62.97
-85.48
-125.69
-172.68
-214.24
-241.46
-251.58
-247.64
-234.92
-217.67
-197.73
-175.43
-151.24
-126.83
-104.83
-87.61
-76.02
-68.39
-61.56
-52.63
-40.85
-28.06
-17.58
-12.22
-12.75
-17.52
-23.19
-26.64
-26.34
-22.75
-17.58
-12.52
-8.41
-5.20
-2.55
-0.28
1.26
1.75
1.32
0.69
0.84
2.30
4.68
6.71
7.11
5.38
2.30
-0.36
-0.90
1.30
5.14
8.30
8.44
4.43
-2.95
-11.21
-17.35
-19.15
-16.21
-10.05
-3.47
0.71
0.90
-2.55
-7.70
-12.05
-13.56
-11.56
-6.66
-0.38
5.56
9.87
11.88
11.82
10.86
10.94
14.26
22.37
35.03
49.65
61.92
67.24
62.51
47.41
24.54
-1.69
-26.18
-44.68
-55.71
-59.96
-59.09
-54.73
-47.97
-39.59
-30.39
-21.49
-14.15
-9.45
-7.56
-7.64
-8.19
-7.76
-5.59
-1.77
2.77
6.86
9.53
10.54
10.39
10.04
10.40
11.99
14.77
18.15
21.50
24.21
26.11
27.39
28.52
29.90
31.67
33.63
35.05
35.53
34.60
32.02
27.80
22.21
15.62
8.46
1.58
-4.98
-10.96
-16.18
-20.44
-23.65
-25.78
-26.88
-27.10
-26.64
-25.78
-24.68
-23.48
-22.26
-21.11
-20.05
-19.09
-18.24
-17.45
-16.80
-16.24
-16.04
-15.94
-15.93
-16.00
-16.16
-16.46
-16.91
-17.57
-18.36
-19.23
-20.09
-20.94
-21.81
-22.68
-23.66
-24.79
-25.98
-27.10
-27.99
-28.47
-28.34
-27.78
-26.54
-24.57
-21.91
-18.54
-14.36
-9.27
-3.17
3.97
11.87
20.17
28.28
35.56
41.76
46.93
51.34
55.10
58.32
60.73
61.76
60.59
56.70
50.19
41.85
32.91
24.42
17.08
10.72
4.39
-3.31
-13.45
-26.23
-40.64
-53.65
-64.30
-71.87
-76.64
-79.78
-82.97
-87.66
-94.74
-104.44
-116.20
-128.23
-137.06
-138.37
-128.51
-106.42
-74.89
-40.08
-9.18
12.59
23.69
26.60
25.59
24.16
23.48
22.93
21.50
19.60
19.19
23.05
33.28
50.29
72.97
99.13
125.57
147.81
161.47
162.80
150.39
126.45
96.60
67.87
46.05
33.56
29.16
29.53
31.33
32.82
34.05
35.72
38.03
40.39
41.84
41.77
40.32
38.14
35.77
33.32
30.30
25.85
19.34
10.53
-0.40
-13.00
-26.91
-41.84
-57.62
-73.73
-90.57
-108.31
-126.34
-142.62
-153.54
-154.91
-143.61
-120.21
-88.33
-54.82
-26.76
-8.51
0.10
3.26
6.60
13.62
23.56
31.78
32.38
22.07
2.12
-22.14
-44.23
-59.54
-66.62
-66.38
-60.16
-48.29
-30.39
-7.14
18.08
39.36
50.16
46.86
30.49
5.99
-20.32
-43.22
-60.01
-70.51
-75.75
-76.78
-74.39
-68.59
-59.62
-47.92
-33.95
-18.35
-1.67
15.62
32.97
49.13
63.55
75.50
84.32
89.64
91.54
90.45
87.26
82.94
78.30
73.94
69.93
66.09
62.19
58.53
54.81
51.27
48.12
45.50
43.44
41.67
39.91
38.00
36.05
34.21
32.90
32.24
32.02
31.84
31.10
29.44
26.90
24.27
21.90
20.39
19.86
19.88
19.69
18.55
16.18
12.99
10.00
8.31
8.81
11.37
14.88
17.68
18.42
16.41
12.08
6.73
1.89
-0.80
-0.22
4.38
13.15
24.99
37.00
44.78
43.81
30.83
7.91
-19.36
-43.69
-59.21
-63.83
-59.58
-50.87
-41.77
-34.28
-27.97
-21.69
-14.80
-7.91
-2.33
0.98
2.15
2.51
3.69
7.12
12.82
19.80
26.47
31.31
33.49
32.94
30.52
27.24
23.87
20.42
16.42
11.16
4.14
-4.19
-13.35
-22.30
-29.88
-35.33
-38.48
-39.61
-39.35
-38.32
-37.00
-35.62
-34.42
-33.03
-31.32
-29.37
-27.31
-25.36
-23.69
-22.32
-21.26
-20.40
-19.61
-18.88
-18.23
-17.69
-17.27
-17.02
-16.92
-17.01
-17.24
-17.60
-18.09
-18.75
-19.57
-20.56
-21.72
-23.02
-24.45
-25.97
-27.58
-29.30
-31.20
-33.33
-35.69
-38.27
-40.99
-43.82
-46.67
-49.53
-52.40
-55.26
-57.94
-60.21
-61.69
-61.86
-60.58
-57.07
-50.81
-41.65
-29.69
-15.40
0.60
17.53
34.52
51.06
65.72
77.44
85.18
88.65
87.72
82.73
74.45
64.04
52.71
41.39
30.47
19.77
8.95
-2.46
-14.52
-26.78
-38.38
-48.45
-56.41
-62.26
-66.61
-70.04
-72.92
-74.96
-75.08
-71.79
-64.01
-51.48
-34.57
-15.95
1.93
16.62
26.21
29.25
25.14
14.86
1.71
-9.82
-15.07
-10.95
1.64
18.21
32.53
39.50
37.47
28.66
17.62
8.82
5.19
6.78
12.01
19.24
27.59
36.84
46.69
55.96
62.80
65.84
63.55
55.60
42.85
26.90
9.43
-8.61
-27.23
-49.16
-73.61
-99.86
-126.81
-152.98
-176.65
-196.19
-210.51
-219.68
-224.11
-223.54
-218.66
-210.29
-199.14
-185.91
-171.47
-156.91
-143.57
-132.80
-124.54
-118.84
-115.31
-113.14
-111.14
-107.80
-101.23
-88.92
-74.35
-58.43
-41.90
-25.49
-10.04
3.62
14.76
22.95
28.04
30.22
30.86
31.52
33.48
37.48
43.74
52.06
62.09
73.39
85.37
98.09
112.51
128.97
146.91
164.87
181.16
194.47
204.21
210.42
214.11
218.87
227.34
240.18
256.06
272.53
287.26
298.82
306.60
310.82
315.95
325.31
339.62
357.05
374.45
389.34
400.79
409.27
416.03
427.47
447.71
476.55
509.74
540.46
562.33
571.41
566.32
515.84
407.46
249.55
68.94
-103.47
-247.78
-357.77
-436.06
-488.41
-520.28
-530.53
-518.47
-485.76
-436.14
-374.61
-307.02
-239.30
-178.14
-130.88
-99.99
-86.08
-92.99
-115.69
-145.26
-172.69
-192.33
-203.55
-209.39
-211.30
-209.93
-205.13
-196.03
-183.48
-169.71
-157.18
-147.87
-142.63
-139.81
-137.43
-134.42
-130.78
-128.12
-127.63
-128.18
-125.87
-115.54
-93.03
-58.39
-16.59
24.80
58.10
79.02
87.83
88.24
84.71
80.32
76.07
71.58
66.92
62.71
59.93
59.24
60.33
61.97
62.72
61.42
57.83
52.85
47.71
43.32
39.89
36.74
32.72
26.64
18.54
8.11
-3.54
-14.79
-24.13
-30.61
-34.10
-35.13
-34.64
-33.48
-32.48
-31.94
-31.98
-32.60
-33.80
-35.60
-37.99
-41.04
-43.92
-45.92
-46.10
-43.79
-38.52
-30.43
-20.16
-8.74
2.60
13.23
22.02
28.32
31.76
32.21
29.78
24.69
17.39
8.55
-0.82
-9.81
-17.49
-23.14
-26.94
-28.89
-29.55
-29.53
-29.36
-29.06
-28.34
-26.43
-22.56
-16.43
-8.07
1.99
13.08
24.37
35.35
46.18
56.99
68.14
80.28
94.04
109.06
123.33
133.10
134.13
122.15
97.86
64.90
28.78
-5.02
-32.82
-53.31
-66.58
-73.14
-73.83
-69.85
-63.77
-58.82
-57.42
-59.96
-63.98
-65.71
-62.28
-53.54
-42.01
-31.52
-24.79
-22.11
-21.39
-19.99
-16.50
-11.50
-7.21
-5.88
-8.34
-12.94
-16.37
-15.44
-9.01
0.91
10.11
14.45
12.33
5.70
-1.00
-3.39
0.10
7.79
15.67
20.22
20.35
17.84
15.71
15.87
17.90
19.48
18.37
14.03
8.40
4.95
6.59
13.52
22.65
29.37
29.94
23.58
12.88
2.56
-2.92
-2.03
3.33
8.86
10.47
6.57
-1.31
-9.50
-14.45
-15.10
-13.91
-14.24
-19.48
-30.31
-43.74
-53.76
-53.86
-40.78
-17.18
8.42
25.58
26.81
11.31
-14.89
-41.76
-59.99
-65.18
-56.49
-38.75
-19.78
-5.30
5.30
16.99
34.27
57.34
82.12
103.21
117.92
128.03
138.23
152.75
171.37
188.28
194.51
183.95
153.61
106.79
51.94
-1.26
-45.47
-78.24
-101.44
-118.77
-133.50
-146.56
-156.67
-161.93
-161.84
-157.23
-150.07
-142.64
-132.95
-120.70
-106.03
-89.74
-70.11
-48.23
-26.65
-8.08
5.88
15.49
21.85
26.69
31.53
36.90
42.42
47.40
51.34
54.35
56.97
59.60
62.56
66.02
69.37
71.89
72.78
71.43
67.61
61.33
52.64
41.69
28.82
13.18
-4.37
-22.79
-40.90
-57.59
-71.93
-83.31
-91.69
-94.32
-92.96
-89.20
-84.16
-78.67
-73.36
-68.68
-64.68
-61.39
-58.48
-55.58
-51.59
-45.22
-35.54
-22.35
-7.28
9.72
27.78
45.91
62.89
77.98
90.83
100.82
106.96
107.76
102.37
90.32
72.27
49.49
23.46
-3.69
-30.11
-54.68
-76.85
-96.25
-113.13
-128.01
-139.94
-151.36
-163.06
-173.37
-177.95
-171.46
-150.19
-114.88
-70.82
-26.85
8.43
31.04
42.04
46.47
50.38
58.17
71.37
90.18
113.60
140.51
169.61
197.63
218.91
226.76
216.57
186.42
143.18
96.94
57.16
29.65
14.92
9.47
8.53
8.77
9.16
10.27
12.32
14.45
15.42
14.34
11.51
8.13
5.73
5.25
6.28
6.73
3.90
-4.27
-18.29
-36.88
-57.84
-78.34
-96.20
-110.60
-122.31
-132.56
-142.55
-153.03
-163.12
-172.80
-180.38
-182.61
-175.51
-155.97
-123.53
-81.36
-35.72
6.00
39.18
62.55
78.17
89.71
100.23
110.73
120.24
127.03
130.04
129.27
125.58
119.70
111.65
100.85
86.72
69.18
49.39
29.49
11.84
-1.66
-9.97
-13.29
-12.70
-9.81
-5.90
-1.75
2.63
7.20
11.84
16.32
19.93
21.80
21.18
17.79
11.89
4.19
-4.40
-13.42
-21.76
-28.97
-34.94
-39.78
-43.58
-46.42
-48.42
-49.62
-50.19
-50.28
-50.29
-50.53
-51.13
-52.10
-53.29
-54.48
-55.38
-55.65
-54.97
-53.07
-49.72
-44.72
-37.98
-29.53
-19.62
-8.42
3.33
14.76
24.93
33.09
38.85
42.17
43.33
42.80
41.08
38.55
35.39
31.66
27.52
23.41
20.03
18.26
18.77
21.76
26.79
32.78
38.50
42.86
45.43
46.65
47.48
48.93
51.52
54.96
58.32
60.35
60.12
57.55
53.61
50.08
49.00
52.15
60.32
72.54
85.58
94.13
92.04
74.84
41.51
-4.32
-54.83
-100.25
-131.88
-144.82
-139.41
-120.73
-96.85
-76.20
-65.47
-68.08
-82.63
-103.25
-121.39
-128.43
-118.10
-88.38
-41.77
15.16
73.31
122.74
154.57
163.28
148.39
115.12
72.96
32.32
0.93
-18.19
-26.26
-26.27
-20.87
-11.81
-0.92
8.45
11.70
5.55
-8.88
-25.01
-34.01
-29.85
-13.42
7.89
25.19
34.16
38.38
46.86
67.42
100.22
136.82
164.70
175.23
168.60
153.02
138.94
131.64
127.94
118.86
95.89
57.14
8.83
-37.71
-72.01
-89.81
-94.70
-95.22
-99.71
-111.76
-128.86
-144.26
-150.92
-145.72
-131.20
-114.24
-102.25
-98.78
-101.60
-103.56
-96.49
-75.90
-44.14
-9.59
17.26
29.26
25.82
13.11
0.65
-4.05
0.57
10.31
18.01
18.18
9.85
-3.15
-14.54
-19.81
-18.92
-15.97
-16.38
-23.02
-34.28
-44.27
-45.91
-35.08
-13.79
10.07
25.99
26.47
10.92
-13.21
-33.76
-40.46
-30.51
-9.97
9.82
19.04
14.65
2.02
-8.75
-9.54
0.40
14.52
23.08
19.81
5.94
-10.44
-18.98
-13.63
3.95
25.71
42.17
47.93
43.87
36.04
31.36
33.34
40.17
46.57
47.17
40.08
27.59
14.97
7.62
7.76
12.97
17.47
15.20
3.65
-14.59
-32.20
-40.58
-35.01
-18.11
0.96
10.76
3.98
-18.48
-47.28
-68.99
-73.41
-58.73
-31.72
-3.58
16.35
24.70
24.60
22.43
23.38
28.23
33.76
35.88
33.42
29.85
31.62
43.75
66.03
92.25
112.51
117.96
105.15
77.40
43.99
15.41
-2.24
-9.57
-12.27
-17.05
-27.00
-39.51
-47.67
-43.58
-21.53
14.70
51.48
71.81
65.52
35.69
-4.23
-40.42
-64.43
-75.36
-78.42
-80.36
-83.10
-85.97
-86.40
-79.95
-66.21
-47.96
-29.79
-16.33
-9.99
-9.94
-13.04
-15.57
-15.40
-13.12
-10.52
-9.39
-12.61
-19.64
-27.83
-33.93
-35.07
-30.19
-20.72
-9.09
2.15
13.84
24.98
34.60
42.08
47.55
51.10
52.26
50.77
46.85
41.17
34.59
28.26
22.02
17.16
14.57
14.26
16.08
19.87
25.46
32.35
39.88
47.44
54.70
63.64
73.63
83.67
93.04
101.41
108.55
114.37
119.29
124.22
128.45
132.41
136.54
141.06
146.12
151.46
156.39
160.71
164.54
168.03
170.91
172.46
171.83
167.56
161.09
152.49
142.25
131.45
121.20
112.14
104.37
97.72
91.96
84.60
73.36
58.09
40.61
23.11
7.06
-7.02
-19.28
-29.91
-43.56
-63.52
-89.02
-115.75
-138.79
-155.44
-165.60
-170.98
-173.90
-183.96
-207.94
-246.11
-292.60
-340.12
-384.31
-424.55
-462.52
-500.32
-549.12
-615.99
-699.44
-790.42
-878.63
-958.10
-1028.05
-1090.77
-1085.94
-982.38
-791.68
-562.61
-345.72
-166.76
-26.47
87.23
187.94
283.99
366.43
423.68
450.14
450.16
434.29
413.52
395.39
383.24
376.87
366.66
345.43
312.92
275.56
241.33
215.30
198.22
188.57
184.33
179.57
170.80
158.58
146.87
139.96
140.33
147.58
160.05
175.89
191.36
203.61
211.64
216.00
215.63
211.99
206.18
199.18
191.98
184.80
178.12
173.04
170.72
170.97
171.49
167.39
153.46
126.90
89.38
46.88
7.55
-21.75
-38.18
-43.14
-41.07
-36.50
-31.97
-27.80
-23.37
-18.64
-14.88
-14.04
-17.33
-24.69
-34.70
-45.43
-54.83
-62.05
-67.28
-71.44
-75.55
-79.79
-83.54
-85.52
-84.41
-79.50
-71.09
-60.48
-49.48
-40.14
-33.36
-28.93
-25.77
-22.33
-17.44
-10.77
-2.74
5.61
12.62
17.69
21.34
24.87
29.49
35.76
43.05
49.69
53.47
51.44
42.71
28.35
10.87
-6.90
-22.77
-35.84
-46.51
-55.99
-67.22
-81.99
-101.21
-125.00
-152.16
-179.93
-203.81
-218.56
-211.17
-181.32
-136.17
-87.18
-45.28
-16.78
-2.37
1.68
0.50
-2.07
-6.21
-12.75
-21.79
-32.02
-40.81
-45.99
-46.69
-43.41
-37.48
-31.47
-26.23
-20.92
-13.78
-2.41
14.05
34.94
58.43
82.09
103.00
119.59
131.85
137.83
139.53
138.69
136.37
132.90
128.19
121.76
113.51
104.21
94.75
86.40
79.54
74.08
69.61
65.54
61.24
56.19
50.49
44.36
38.30
32.31
26.11
19.41
11.96
4.71
-3.16
-11.54
-20.10
-28.19
-35.49
-41.83
-46.96
-50.77
-53.16
-54.21
-53.78
-51.93
-48.82
-45.13
-41.88
-39.75
-39.26
-40.39
-42.62
-44.70
-45.31
-43.43
-38.86
-32.35
-24.60
-16.58
-8.89
-1.48
6.41
15.67
26.74
39.28
52.16
64.92
77.15
89.19
102.16
117.69
137.60
163.93
199.40
241.75
290.41
343.19
395.07
438.34
464.31
466.21
441.69
394.07
331.02
262.58
196.97
138.73
88.90
46.09
8.31
-26.45
-59.94
-94.12
-130.74
-171.54
-216.33
-261.28
-298.86
-320.08
-318.96
-295.35
-255.38
-208.61
-164.38
-128.64
-102.94
-86.43
-78.71
-82.23
-100.05
-133.16
-179.16
-233.28
-290.32
-345.79
-395.43
-434.52
-459.29
-465.54
-449.62
-410.36
-350.10
-273.73
-186.68
-93.67
0.23
85.19
150.80
189.65
199.84
184.91
152.01
109.24
62.95
14.85
-41.67
-113.84
-203.49
-304.60
-405.01
-491.34
-553.14
-585.12
-561.25
-475.12
-347.33
-214.24
-103.29
-20.74
39.62
84.06
119.15
145.09
158.75
160.53
156.60
156.84
168.40
193.19
227.22
263.84
295.77
319.20
334.56
346.24
360.40
385.66
426.35
480.60
541.32
595.96
633.82
647.43
635.22
576.53
470.34
334.12
193.39
80.40
-11.03
-88.60
-152.51
-197.03
-212.57
-190.28
-132.93
-55.67
19.84
71.58
89.98
75.46
36.11
-17.79
-73.03
-120.90
-158.72
-184.28
-199.21
-204.22
-202.09
-196.37
-196.08
-203.77
-220.34
-244.65
-273.15
-301.89
-318.96
-316.49
-285.09
-229.47
-163.60
-104.88
-64.26
-42.85
-35.40
-33.74
-32.86
-30.48
-28.43
-26.82
-25.34
-22.16
-17.19
-10.87
-3.05
5.35
14.49
22.93
31.54
41.00
51.58
63.27
77.04
95.53
116.36
140.09
166.83
199.55
239.92
286.49
333.61
373.38
398.10
402.00
386.63
343.08
277.20
204.52
139.57
85.40
35.16
-13.60
-66.12
-119.32
-166.65
-200.26
-217.50
-218.87
-207.93
-187.75
-159.50
-124.86
-86.28
-50.21
-25.46
-18.96
-30.86
-54.45
-79.23
-95.54
-99.40
-89.10
-66.03
-32.95
5.31
41.49
66.91
75.83
68.38
50.21
30.71
17.64
14.30
18.67
25.13
27.83
23.88
14.10
1.30
-11.27
-21.95
-30.60
-37.51
-42.44
-44.37
-41.37
-31.82
-15.54
5.73
28.32
47.68
60.42
65.40
63.86
58.91
54.14
52.43
55.23
62.16
70.64
77.08
77.39
68.08
47.45
16.32
-21.61
-60.52
-94.01
-118.00
-131.03
-134.54
-131.98
-127.70
-126.47
-132.87
-149.98
-177.25
-209.93
-238.21
-250.88
-240.70
-208.75
-164.49
-120.91
-86.96
-57.05
-23.01
20.97
70.59
112.11
131.87
125.98
102.85
77.54
62.32
59.34
62.65
64.33
61.05
56.12
55.61
62.73
75.04
85.78
87.47
76.85
56.39
32.68
13.44
3.85
4.85
13.60
25.18
34.49
38.69
36.91
29.41
16.80
-0.03
-19.22
-36.60
-46.33
-43.43
-26.29
2.04
35.00
64.14
83.37
89.66
82.27
61.79
30.03
-8.87
-47.81
-77.84
-91.27
-85.12
-62.95
-33.22
-5.52
13.45
21.52
20.37
13.12
2.41
-9.95
-22.50
-33.15
-39.45
-39.70
-34.11
-25.09
-16.19
-10.22
-7.89
-7.96
-8.17
-6.78
-3.46
0.82
4.51
6.41
6.15
4.22
1.40
-1.78
-5.17
-8.78
-12.49
-15.88
-18.34
-19.67
-20.41
-21.80
-24.93
-29.89
-35.31
-39.12
-39.68
-36.78
-31.66
-26.17
-21.67
-18.38
-15.74
-13.03
-10.28
-8.03
-6.45
-4.75
-1.23
5.94
17.83
32.36
47.06
59.48
68.33
73.95
78.06
82.94
90.40
100.91
113.26
125.18
133.99
137.49
134.84
127.21
117.56
109.71
106.85
109.90
117.78
128.20
139.17
150.01
161.47
174.80
190.00
204.33
211.58
205.00
179.91
135.74
76.27
8.73
-58.10
-116.45
-161.76
-195.38
-221.31
-243.06
-261.86
-276.90
-285.99
-286.25
-274.63
-248.60
-209.91
-161.50
-106.89
-51.18
-2.04
31.85
44.49
35.07
7.51
-36.14
-93.54
-161.25
-234.37
-306.90
-371.42
-419.28
-442.65
-415.50
-331.66
-210.82
-86.58
16.23
90.18
138.62
166.63
176.81
171.82
150.28
115.58
78.08
50.72
41.56
49.58
66.46
82.14
89.66
85.01
72.54
63.23
68.18
91.68
128.67
167.63
196.13
206.05
194.54
166.23
130.59
97.36
72.38
56.88
49.79
50.18
57.98
71.98
89.57
106.69
119.01
123.43
119.32
108.38
93.07
75.08
54.84
33.17
12.48
-3.20
-10.12
-6.69
5.64
23.00
40.44
53.04
56.80
49.35
30.50
2.60
-30.08
-63.09
-93.57
-120.75
-144.78
-164.86
-177.95
-179.95
-168.45
-145.06
-115.41
-86.61
-63.67
-47.37
-35.04
-23.23
-10.73
0.60
7.46
8.04
3.66
-1.71
-3.97
-1.56
3.73
8.10
8.71
5.71
2.12
1.50
4.78
9.45
10.92
6.08
-4.01
-14.24
-18.71
-15.01
-6.48
-0.72
-5.05
-22.01
-47.68
-74.12
-94.27
-105.96
-112.70
-120.66
-134.41
-153.79
-173.75
-186.81
-186.53
-169.88
-137.52
-92.50
-38.65
20.06
79.25
133.62
177.06
203.84
210.04
195.15
162.74
119.69
74.37
34.18
3.54
-16.55
-27.73
-32.84
-34.26
-33.14
-29.70
-24.77
-21.01
-22.21
-30.70
-44.85
-58.35
-63.19
-53.70
-30.52
-1.19
23.13
34.29
31.86
22.67
16.01
17.15
25.44
35.69
42.00
40.38
30.62
15.13
-4.23
-27.96
-58.67
-97.04
-139.58
-179.10
-208.74
-223.48
-220.95
-201.85
-163.97
-112.60
-59.38
-17.14
12.65
33.15
47.36
59.39
73.37
91.89
114.13
137.60
159.78
178.95
193.36
201.91
204.61
201.77
194.00
182.00
168.01
155.57
147.85
145.11
145.23
145.41
143.40
138.60
131.87
125.62
122.85
125.75
134.29
146.29
157.81
163.58
157.92
136.27
97.47
45.02
-13.37
-68.15
-110.79
-136.31
-144.65
-139.96
-128.29
-114.74
-101.48
-87.65
-70.91
-49.42
-23.41
4.43
29.68
47.62
54.55
48.64
30.09
0.94
-35.33
-74.23
-110.79
-140.35
-159.32
-165.98
-160.82
-146.42
-126.74
-106.12
-88.17
-75.03
-67.05
-63.06
-61.01
-58.83
-55.15
-49.64
-42.93
-36.17
-30.47
-26.58
-24.66
-24.37
-25.10
-26.20
-27.20
-27.93
-28.45
-28.96
-29.51
-29.97
-29.93
-28.87
-26.35
-22.22
-16.65
-10.11
-3.20
3.53
9.62
14.78
18.80
21.59
23.18
23.78
23.76
23.59
23.67
24.17
24.99
25.79
26.20
26.04
25.35
24.36
23.38
22.54
21.75
20.78
19.39
17.50
15.23
12.85
10.58
8.51
6.50
4.31
1.74
-1.23
-4.42
-7.53
-10.24
-12.37
-13.91
-14.98
-15.74
-16.32
-16.70
-16.80
-16.49
-15.74
-14.60
-13.14
-11.40
-9.24
-6.44
-2.73
1.96
7.42
13.12
18.45
22.86
26.04
27.97
28.79
28.69
27.74
25.97
23.41
20.26
16.96
14.06
12.12
11.40
11.82
12.98
14.34
15.48
16.22
16.62
16.83
16.91
16.77
16.21
15.12
13.53
11.68
9.88
8.35
7.14
6.14
5.10
3.77
1.96
-0.41
-3.30
-6.60
-10.10
-13.61
-16.93
-19.90
-22.44
-24.48
-26.01
-27.04
-27.63
-27.84
-27.73
-27.29
-26.38
-24.74
-22.09
-18.28
-13.46
-8.09
-2.90
1.37
4.17
5.31
4.96
3.53
1.41
-1.18
-4.25
-7.88
-12.09
-16.70
-21.29
-25.43
-28.88
-31.71
-34.26
-36.87
-39.68
-42.47
-44.77
-46.12
-46.29
-45.47
-44.11
-42.69
-41.42
-40.10
-38.28
-35.43
-31.22
-25.66
-18.92
-11.21
-2.59
6.96
17.38
28.30
39.01
48.55
56.00
60.80
62.89
62.66
60.82
58.10
55.16
52.51
50.46
49.13
48.36
47.77
46.83
45.08
42.28
38.57
34.33
30.09
26.29
23.23
21.08
19.91
19.77
20.59
22.08
23.71
24.85
24.90
23.53
20.74
16.86
12.34
7.66
3.23
-0.60
-3.58
-5.60
-6.74
-7.28
-7.60
-8.05
-8.83
-9.90
-11.11
-12.33
-13.53
-14.78
-16.19
-17.71
-19.12
-19.94
-19.67
-17.91
-14.57
-9.88
-4.40
1.21
6.38
10.73
14.16
16.81
18.90
20.62
22.04
23.05
23.44
23.02
21.71
19.58
16.79
13.49
9.75
5.57
1.00
-3.69
-8.04
-11.43
-13.42
-13.87
-13.07
-11.65
-10.29
-9.48
-9.38
-9.89
-10.81
-12.01
-13.51
-15.45
-17.91
-20.83
-23.97
-26.98
-29.57
-31.64
-33.37
-35.07
-37.01
-39.25
-41.61
-43.71
-45.14
-45.56
-44.78
-42.76
-39.55
-35.27
-30.10
-24.31
-18.24
-12.24
-6.65
-1.73
2.34
5.53
7.85
9.40
10.27
10.49
10.08
9.01
7.35
5.33
3.29
1.64
0.76
0.79
1.66
3.07
4.61
5.90
6.72
7.03
6.92
6.54
6.01
5.38
4.58
3.57
2.34
0.97
-0.40
-1.65
-2.77
-3.83
-4.95
-6.23
-7.63
-9.07
-10.42
-11.71
-13.09
-14.78
-16.91
-19.32
-21.57
-23.02
-23.04
-21.26
-17.66
-12.57
-6.46
0.16
6.88
13.45
19.64
25.26
30.05
33.75
36.20
37.38
37.51
36.95
36.08
35.18
34.33
33.41
32.25
30.76
28.97
27.11
25.38
23.92
22.68
21.43
19.93
18.02
15.74
13.35
11.13
9.30
7.83
6.52
5.04
3.20
1.00
-1.34
-3.51
-5.22
-6.39
-7.07
-7.42
-7.55
-7.52
-7.32
-6.97
-6.58
-6.31
-6.31
-6.59
-6.99
-7.25
-7.12
-6.52
-5.63
-4.76
-4.22
-4.12
-4.29
-4.35
-3.89
-2.71
-0.95
0.99
2.61
3.59
3.92
3.90
3.93
4.36
5.26
6.49
7.68
8.49
8.62
7.96
6.56
4.56
2.15
-0.53
-3.41
-6.43
-9.59
-12.85
-16.15
-19.42
-22.65
-25.89
-29.25
-32.81
-36.56
-40.38
-44.04
-47.34
-50.11
-52.26
-53.68
-54.15
-53.28
-50.54
-45.51
-38.05
-28.49
-17.58
-6.37
4.15
13.21
20.37
25.48
28.54
29.59
28.72
26.08
21.96
16.85
11.32
5.91
0.98
-3.35
-7.22
-10.93
-14.73
-18.78
-23.05
-27.48
-32.04
-36.88
-42.38
-49.00
-57.19
-67.12
-78.60
-91.04
-103.38
-114.21
-121.88
-124.76
-121.66
-112.19
-97.05
-77.86
-56.92
-36.53
-18.55
-4.08
6.63
13.91
18.48
21.17
22.82
24.24
26.28
29.74
35.38
43.74
55.06
69.07
85.03
101.76
117.66
130.77
138.88
139.83
132.19
116.07
93.64
68.90
46.53
30.37
22.16
21.24
25.30
31.67
38.39
44.61
50.11
54.74
57.93
58.88
57.00
52.29
45.38
37.24
28.86
21.10
14.69
10.32
8.56
9.67
13.35
18.72
24.38
28.67
30.04
27.37
20.39
9.75
-3.05
-16.05
-27.24
-35.18
-39.21
-39.47
-36.64
-31.61
-25.29
-18.45
-11.66
-5.35
0.26
5.17
9.51
13.43
16.99
20.08
22.49
23.98
24.45
23.98
22.88
21.64
20.78
20.69
21.54
23.28
25.73
28.72
32.13
35.79
39.37
42.18
43.29
41.66
36.46
27.35
14.61
-0.91
-17.96
-35.15
-51.18
-65.01
-75.92
-83.51
-87.65
-88.41
-86.05
-80.98
-73.84
-65.42
-56.59
-48.17
-40.72
-34.50
-29.42
-25.16
-21.25
-17.21
-12.79
-7.99
-3.23
0.85
3.60
4.65
4.19
2.89
1.61
1.09
1.62
3.03
4.90
6.85
8.83
11.12
14.07
17.94
22.60
27.61
32.32
36.12
38.59
39.55
39.03
37.16
34.08
29.92
24.86
19.21
13.51
8.49
4.92
3.45
4.41
7.79
13.29
20.46
28.82
37.85
46.87
54.96
61.06
64.22
64.04
60.88
55.84
50.34
45.59
42.18
39.99
38.47
37.01
35.34
33.52
31.85
30.60
29.91
29.72
29.82
29.94
29.74
28.84
26.90
23.68
19.17
13.62
7.53
1.58
-3.59
-7.53
-10.06
-11.31
-11.65
-11.51
-11.24
-11.03
-10.93
-10.84
-10.63
-10.15
-9.30
-8.05
-6.49
-4.87
-3.56
-2.99
-3.45
-4.96
-7.28
-9.93
-12.41
-14.37
-15.75
-16.71
-17.58
-18.65
-20.04
-21.67
-23.26
-24.52
-25.35
-25.69
-25.49
-24.68
-23.14
-20.74
-17.46
-13.40
-8.86
-4.31
-0.13
3.55
6.67
9.21
11.00
11.63
10.70
7.88
2.89
-4.07
-12.29
-20.86
-28.92
-35.78
-41.01
-44.08
-44.65
-43.27
-40.45
-36.42
-31.49
-25.90
-19.82
-13.33
-5.85
3.02
12.16
20.60
28.06
34.21
38.67
41.12
41.36
40.47
39.67
38.25
36.07
33.97
32.36
31.06
29.40
26.49
22.92
19.34
14.15
7.02
0.00
-4.25
-2.92
6.25
15.44
18.04
23.47
33.61
41.09
41.70
33.03
14.66
-12.08
-44.55
-78.01
-107.93
-133.20
-153.17
-166.82
-174.31
-176.52
-174.55
-169.33
-160.41
-147.24
-131.29
-113.55
-93.69
-71.24
-45.65
-16.67
15.11
48.58
81.29
108.98
128.25
138.07
139.28
134.17
125.46
115.29
105.03
95.04
84.55
73.03
60.65
47.72
34.52
21.06
7.24
-6.84
-20.78
-34.05
-45.77
-54.86
-60.42
-61.88
-59.06
-52.09
-41.40
-27.70
-12.08
3.91
18.37
29.41
35.74
37.16
34.79
30.72
27.26
26.12
27.70
31.00
33.97
34.25
29.90
20.14
5.76
-10.94
-26.83
-38.94
-45.31
-45.35
-39.77
-30.11
-18.18
-5.74
5.73
15.05
21.46
24.73
25.09
22.77
17.39
7.83
-7.24
-28.25
-53.77
-80.18
-102.64
-116.73
-120.28
-114.08
-100.99
-84.02
-64.73
-42.96
-17.54
12.34
45.79
79.61
108.57
127.50
133.42
127.14
113.11
98.65
92.21
100.62
126.15
164.17
204.69
236.00
249.17
239.97
209.28
162.22
106.38
50.18
0.69
-35.97
-55.63
-57.32
-45.34
-29.54
-22.71
-32.44
-55.28
-82.05
-104.88
-124.27
-142.52
-160.98
-178.72
-192.58
-199.50
-193.38
-174.53
-147.99
-120.78
-97.51
-78.05
-57.38
-29.20
8.70
51.38
87.24
104.11
95.16
62.63
16.04
-31.85
-66.27
-79.06
-73.60
-60.64
-48.78
-40.61
-34.07
-26.04
-15.32
-3.02
7.98
14.98
16.93
15.29
12.62
11.35
12.98
17.47
23.57
29.06
31.99
31.76
29.42
26.65
24.87
25.05
27.13
30.35
33.16
34.06
32.27
28.00
21.93
14.36
6.51
-0.83
-7.28
-13.11
-19.02
-25.78
-33.85
-42.05
-50.62
-58.62
-64.92
-68.75
-70.00
-69.44
-68.25
-67.60
-68.38
-71.40
-76.88
-84.54
-92.91
-98.89
-98.35
-87.63
-65.57
-34.73
-1.06
28.63
49.23
59.23
60.74
57.72
53.66
50.13
46.86
42.90
38.04
33.12
29.43
27.80
27.90
28.54
28.24
25.94
21.64
16.34
11.33
7.76
6.03
5.68
5.76
5.18
3.25
0.00
-3.93
-7.66
-10.35
-11.66
-11.75
-11.12
-10.37
-9.87
-9.62
-9.30
-8.46
-6.67
-3.96
-0.54
3.14
6.55
9.36
11.42
12.82
13.78
14.52
15.22
15.86
16.31
16.40
15.94
14.89
13.36
11.64
10.15
9.15
8.79
8.98
9.37
9.60
9.50
9.21
9.16
9.83
11.46
13.93
16.64
18.73
19.55
18.98
17.65
16.54
16.48
17.70
19.73
21.64
22.72
23.05
23.44
24.68
26.48
27.10
24.00
15.65
2.57
-12.90
-27.92
-40.99
-52.92
-65.85
-81.25
-98.01
-111.96
-117.99
-112.91
-97.30
-75.18
-51.63
-29.72
-8.91
12.10
35.57
61.63
86.77
105.11
111.56
104.99
89.46
72.15
59.37
53.61
52.56
51.74
48.41
44.10
43.93
53.23
73.26
99.14
121.61
130.90
121.34
93.84
55.22
15.20
-17.12
-35.86
-39.46
-29.92
-11.71
9.76
29.46
43.78
51.07
51.80
47.65
40.09
29.59
15.92
-0.77
-19.25
-37.27
-52.41
-62.46
-66.49
-65.62
-62.94
-61.98
-65.19
-73.50
-86.43
-102.53
-118.58
-130.58
-135.84
-134.42
-128.31
-120.22
-112.47
-106.53
-102.49
-97.17
-84.78
-59.46
-18.12
38.62
106.40
177.03
239.68
275.73
268.57
217.60
142.00
67.07
9.01
-29.05
-52.36
-67.94
-80.02
-87.70
-87.48
-78.07
-63.13
-49.18
-41.83
-43.12
-51.31
-62.34
-70.74
-72.20
-65.91
-55.10
-44.61
-38.40
-38.40
-44.47
-54.88
-65.76
-71.80
-67.96
-51.61
-23.22
13.39
51.80
84.84
107.15
117.11
117.04
112.25
106.06
101.00
98.28
98.20
100.55
104.56
108.54
109.72
104.72
90.71
67.45
37.91
7.83
-15.85
-27.27
-23.75
-7.46
15.56
37.36
51.31
54.54
49.21
41.79
39.56
46.87
62.22
79.86
93.44
100.07
101.41
101.66
104.88
112.30
122.29
131.51
138.95
147.24
160.80
183.82
214.98
248.30
275.63
290.23
286.51
264.74
230.69
192.30
155.59
122.91
94.24
68.50
44.59
16.04
-20.16
-61.20
-101.16
-135.90
-164.85
-189.39
-211.29
-231.87
-260.86
-303.06
-354.47
-406.17
-451.83
-489.99
-521.82
-548.89
-572.20
-603.86
-649.74
-704.44
-756.29
-796.99
-824.67
-841.18
-849.29
-776.79
-600.66
-361.90
-129.77
53.69
182.50
267.85
323.70
361.23
388.03
396.87
384.42
357.31
327.99
305.42
292.11
286.80
287.05
290.70
287.08
270.59
244.75
218.28
197.66
184.56
177.92
175.80
176.50
173.09
161.90
145.05
127.94
114.58
105.94
101.30
99.38
98.98
96.42
89.68
79.61
68.78
59.07
50.64
43.45
37.01
30.93
24.00
15.64
6.37
-2.71
-10.00
-15.74
-19.99
-22.95
-24.80
-25.75
-25.95
-25.54
-24.68
-23.49
-22.22
-20.84
-19.43
-18.00
-16.60
-15.25
-13.94
-12.71
-11.49
-10.42
-9.38
-8.38
-7.40
-6.44
-5.53
-4.65
-3.81
-3.01
-2.29
-1.62
-1.22
-0.84
-0.51
-0.19
0.08
0.33
0.56
0.73
0.87
0.99
1.11
1.22
1.29
1.36
1.40
1.42
1.41
1.37
1.32
1.28
1.23
1.17
1.11
1.04
0.97
0.89
0.80
0.72
0.64
0.56
0.46
0.36
0.23
0.09
-0.06
-0.25
-0.47
-0.71
-0.99
-1.29
-1.62
-1.98
-2.35
-2.75
-3.17
-3.66
-4.23
-4.92
-5.74
-6.63
-7.59
-8.55
-9.49
-10.43
-11.39
-12.44
-13.65
-15.03
-16.50
-18.04
-19.58
-21.06
-22.47
-23.88
-25.36
-26.93
-28.61
-30.22
-31.62
-32.60
-33.01
-32.80
-32.08
-31.03
-29.80
-28.80
-27.50
-25.52
-22.53
-18.42
-13.53
-8.58
-4.54
-2.25
-2.20
-4.24
-7.84
-12.21
-16.74
-21.30
-26.26
-32.20
-39.56
-48.21
-57.18
-65.05
-70.55
-72.82
-72.00
-69.06
-65.42
-62.61
-62.11
-65.07
-71.83
-81.46
-91.33
-97.38
-95.36
-82.70
-59.97
-31.31
-2.96
19.36
32.24
35.53
31.60
23.68
14.21
4.13
-6.61
-18.29
-30.04
-40.75
-49.48
-56.08
-61.24
-66.18
-72.22
-79.94
-89.26
-98.69
-106.86
-112.85
-116.37
-117.70
-117.31
-115.11
-109.86
-104.41
-98.77
-92.40
-84.75
-75.56
-64.88
-52.97
-40.09
-26.44
-12.14
3.52
20.90
40.03
60.50
81.64
102.50
122.04
139.23
153.04
163.14
169.09
170.50
167.10
158.81
145.84
128.73
108.28
85.50
61.85
38.62
16.96
-2.22
-18.20
-30.50
-38.88
-43.28
-43.93
-41.10
-35.44
-27.83
-19.40
-11.37
-4.99
-1.40
-1.63
-6.56
-16.79
-32.68
-54.22
-80.97
-111.92
-145.44
-179.44
-211.53
-239.36
-260.99
-275.25
-281.85
-281.35
-274.81
-263.44
-248.37
-230.47
-210.47
-189.11
-167.35
-146.42
-127.53
-111.42
-97.91
-85.72
-72.72
-56.40
-35.08
-8.69
21.10
51.60
80.31
106.16
130.08
154.46
182.24
214.99
251.74
289.30
323.66
352.16
374.91
394.47
414.24
437.12
463.65
491.90
518.01
537.02
543.31
531.56
498.53
445.48
381.70
321.86
281.70
271.91
293.74
338.09
388.97
429.39
447.37
442.17
419.64
388.10
354.43
322.42
293.10
265.51
238.08
210.92
192.70
194.13
223.27
280.23
355.70
433.22
494.22
523.97
516.56
483.63
443.02
411.02
396.02
398.05
412.39
433.07
455.12
431.65
336.86
171.85
-33.91
-241.58
-423.49
-569.62
-681.73
-765.15
-824.32
-855.06
-854.87
-827.10
-781.98
-732.53
-689.51
-658.14
-638.10
-625.49
-610.03
-583.92
-544.83
-496.52
-445.84
-398.35
-356.68
-320.57
-287.99
-253.27
-212.40
-164.72
-115.20
-69.13
-30.69
-1.89
17.35
28.43
34.91
39.82
44.70
49.45
53.24
55.19
54.90
52.59
48.74
44.54
40.89
38.18
36.16
34.50
32.78
30.80
28.51
25.98
23.30
20.56
17.81
15.09
12.56
10.22
8.16
6.37
4.83
3.52
2.40
1.41
0.52
-0.26
-1.00
-1.65
-2.25
-2.83
-3.46
-4.25
-5.28
-6.64
-7.68
-8.97
-10.57
-12.41
-14.43
-16.57
-18.76
-20.94
-23.05
-24.99
-26.73
-28.08
-28.89
-29.13
-28.84
-28.14
-27.24
-26.28
-25.36
-24.51
-23.54
-22.29
-20.66
-18.70
-16.67
-14.85
-13.43
-12.43
-11.70
-10.81
-9.35
-7.10
-4.17
-1.03
1.69
3.62
4.65
5.06
5.55
6.86
9.40
13.10
17.33
21.27
24.45
26.70
28.27
29.84
32.22
36.17
42.46
51.41
62.55
74.49
84.40
88.86
85.23
72.79
53.31
30.79
9.74
-8.35
-21.76
-30.40
-35.47
-38.14
-38.86
-37.23
-32.25
-23.65
-12.13
0.99
14.05
25.63
35.42
44.16
50.66
54.31
54.78
52.65
48.61
43.27
36.87
30.37
25.02
21.63
20.36
19.73
18.67
16.17
12.27
6.13
-2.66
-14.37
-28.83
-45.25
-63.29
-81.32
-98.62
-114.66
-130.93
-149.10
-170.98
-198.24
-227.32
-256.90
-285.62
-314.29
-333.54
-337.07
-321.85
-288.41
-238.80
-176.54
-113.64
-52.37
3.44
50.25
85.55
110.55
125.09
131.30
131.60
127.19
119.78
109.87
98.67
86.99
76.06
66.95
60.87
58.15
57.73
58.88
59.96
59.96
58.11
54.67
50.48
47.02
45.50
46.31
49.92
55.87
63.51
71.84
79.84
86.72
92.41
97.34
102.22
108.12
115.44
124.01
132.97
141.05
146.84
149.42
148.41
144.03
137.10
128.63
119.76
111.67
105.35
101.35
99.53
98.82
97.45
93.55
86.03
75.19
62.70
50.86
41.57
35.51
32.16
30.35
29.13
28.29
28.22
29.40
31.87
35.06
38.06
40.12
41.04
41.32
41.96
44.15
49.00
57.30
69.36
84.81
102.27
119.06
131.45
135.70
129.71
114.40
94.13
75.28
63.40
60.53
63.94
67.05
62.37
44.95
14.40
-24.94
-65.74
-100.19
-122.31
-129.36
-122.29
-105.13
-83.37
-62.05
-43.91
-28.60
-13.48
4.48
26.47
50.56
72.20
86.13
88.86
80.24
63.49
43.48
24.53
8.35
-6.36
-23.09
-45.80
-77.08
-116.87
-162.32
-208.39
-249.17
-279.39
-295.92
-299.05
-292.85
-284.20
-280.48
-286.86
-304.34
-329.33
-355.27
-375.04
-383.09
-376.50
-355.16
-321.18
-278.22
-230.62
-182.32
-135.47
-89.54
-41.69
11.32
70.05
129.93
181.48
213.78
219.92
201.38
168.23
134.94
113.39
107.46
112.01
117.10
114.40
101.88
84.01
67.34
55.41
45.95
32.36
8.13
-28.94
-75.39
-124.21
-169.24
-209.00
-246.51
-286.55
-332.08
-381.87
-430.28
-469.22
-491.13
-491.60
-471.70
-436.15
-391.07
-341.80
-291.91
-242.99
-194.90
-146.47
-96.28
-44.90
7.20
60.48
116.08
174.12
232.04
284.39
324.12
344.90
341.49
313.95
268.27
214.24
161.18
114.63
75.63
42.05
24.92
30.12
54.96
89.02
121.64
147.06
163.91
173.12
176.58
176.68
173.55
167.36
158.99
149.95
141.33
133.33
125.66
118.36
112.02
105.78
99.05
91.93
85.14
79.28
74.34
70.08
66.38
63.52
60.84
57.87
54.64
51.65
49.35
47.81
46.84
46.33
46.26
46.12
45.55
44.43
42.86
40.94
38.63
35.79
32.35
28.02
22.83
16.95
10.59
4.12
-2.10
-7.82
-12.88
-17.23
-19.99
-21.81
-22.86
-23.28
-23.20
-22.72
-21.93
-20.92
-19.76
-18.53
-17.35
-16.16
-14.98
-13.84
-12.72
-11.64
-10.60
-9.61
-8.64
-7.80
-6.99
-6.21
-5.48
-4.79
-4.16
-3.56
-3.02
-2.53
-2.40
-2.37
-2.39
-2.47
-2.61
-2.81
-3.08
-3.41
-3.80
-4.30
-4.83
-5.41
-6.04
-6.76
-7.53
-8.40
-9.33
-10.33
-11.42
-12.57
-13.73
-14.96
-16.29
-17.72
-19.25
-20.85
-22.52
-24.22
-25.88
-27.35
-28.61
-29.49
-29.85
-29.56
-28.49
-26.53
-23.62
-20.09
-15.69
-10.54
-4.82
1.22
7.30
13.16
18.61
23.44
27.55
31.00
33.76
35.89
37.48
38.62
39.41
39.91
40.16
40.21
40.07
39.66
38.97
38.01
36.79
35.40
33.88
32.30
30.77
29.43
28.26
27.28
26.58
26.27
26.42
27.06
28.21
29.83
31.92
34.15
36.28
38.16
39.63
40.67
41.42
42.20
43.49
45.88
49.65
55.08
62.39
71.67
82.86
95.69
109.74
124.55
139.68
154.16
167.24
178.24
186.63
191.94
193.70
191.25
183.49
172.75
160.01
146.14
131.98
118.27
105.62
94.45
84.66
76.17
69.13
63.28
58.34
53.80
48.97
43.14
35.87
26.63
15.40
2.89
-10.09
-22.58
-33.72
-42.93
-49.88
-54.35
-57.13
-58.71
-58.81
-56.78
-52.22
-45.37
-37.21
-29.18
-22.77
-21.78
-28.52
-42.48
-61.14
-81.67
-102.55
-123.73
-145.90
-169.82
-200.82
-241.50
-289.10
-336.87
-378.07
-409.07
-429.51
-440.98
-445.54
-453.14
-469.63
-492.81
-514.74
-527.86
-529.76
-523.10
-513.27
-506.32
-518.58
-561.31
-634.47
-728.30
-828.94
-924.05
-1003.79
-1060.94
-1024.20
-864.80
-612.38
-336.73
-98.98
76.73
195.02
271.75
322.38
357.53
372.52
361.73
332.99
300.34
277.51
271.11
280.96
303.08
332.75
358.29
373.56
382.69
389.33
399.16
413.58
429.71
442.64
447.65
436.51
405.18
356.54
298.12
239.10
185.78
141.11
105.64
78.78
57.02
37.88
21.24
8.18
0.46
-2.12
-1.56
-0.90
-2.33
-7.55
-16.24
-26.16
-34.26
-37.13
-33.06
-22.08
-5.67
14.75
37.88
62.33
86.13
106.63
122.08
131.01
132.86
127.00
114.77
98.54
81.27
65.96
55.76
55.57
68.06
91.49
117.40
137.47
145.75
141.53
129.28
117.47
119.77
145.93
197.82
264.74
336.02
400.79
449.22
471.59
461.42
425.03
374.25
322.63
274.96
240.34
225.54
233.73
262.58
308.29
376.61
470.92
586.33
699.62
793.94
858.86
893.55
902.53
841.56
694.15
477.42
289.11
149.74
53.79
-25.60
-96.75
-162.25
-222.24
-268.36
-296.11
-308.00
-321.00
-341.82
-370.05
-399.46
-425.17
-443.86
-447.46
-431.76
-398.50
-361.18
-326.11
-294.99
-265.69
-237.38
-210.17
-180.81
-147.78
-112.43
-82.76
-61.66
-48.84
-41.50
-37.77
-36.61
-35.56
-33.18
-29.52
-27.98
-29.66
-34.33
-40.95
-49.28
-59.59
-71.48
-84.53
-98.23
-112.69
-127.20
-141.30
-155.51
-171.48
-191.07
-214.89
-241.55
-267.82
-290.22
-306.96
-319.35
-331.35
-347.96
-372.42
-404.30
-439.21
-469.56
-486.77
-483.85
-457.29
-407.80
-340.70
-264.88
-191.49
-132.18
-95.01
-81.27
-84.82
-94.07
-96.05
-82.07
-50.80
-8.96
30.09
53.36
54.65
37.09
11.60
-7.36
-8.84
11.30
48.76
90.13
120.19
128.82
114.66
84.98
52.03
25.44
9.45
1.70
-7.85
-28.44
-62.35
-104.40
-144.99
-175.20
-193.43
-203.81
-194.04
-160.59
-110.57
-55.92
-4.17
39.32
85.20
137.77
194.19
247.93
288.79
308.95
309.05
289.80
256.17
216.95
179.46
148.65
126.85
112.80
105.72
109.63
124.95
148.69
174.47
193.16
198.26
188.41
165.56
122.65
64.21
-1.15
-63.60
-115.76
-155.34
-183.25
-201.89
-214.69
-224.43
-231.83
-236.37
-237.11
-233.76
-227.29
-218.95
-209.76
-200.54
-191.32
-179.50
-165.22
-148.42
-129.38
-108.89
-87.85
-67.16
-47.69
-30.22
-14.42
-0.30
12.24
23.21
32.65
40.63
47.25
52.51
56.34
58.96
60.28
60.08
58.01
53.74
47.00
37.72
25.98
12.11
-3.19
-19.15
-34.80
-49.20
-61.51
-71.00
-76.74
-78.19
-75.46
-69.28
-60.74
-50.92
-40.75
-31.03
-22.41
-14.91
-8.55
-3.52
-0.21
0.97
-0.10
-3.32
-8.34
-14.73
-20.86
-25.46
-28.05
-29.00
-29.03
-28.60
-27.74
-26.18
-23.62
-16.72
-3.21
16.75
40.53
64.44
85.53
102.15
113.73
120.26
128.50
143.43
165.78
191.69
215.89
235.08
249.01
259.77
270.42
294.30
341.14
412.77
502.50
599.98
696.71
788.15
872.70
950.10
1033.60
1132.19
1245.17
1361.64
1466.98
1550.09
1606.18
1635.36
1556.57
1329.57
968.43
539.03
119.01
-240.18
-521.04
-728.33
-875.91
-978.88
-1036.93
-1050.35
-1026.02
-978.56
-924.46
-875.59
-837.09
-809.12
-789.41
-764.70
-724.53
-666.57
-597.02
-525.62
-460.02
-403.70
-356.86
-318.17
-282.60
-244.67
-202.99
-160.92
-123.74
-95.21
-76.40
-66.33
-63.07
-61.52
-57.19
-48.60
-37.21
-25.80
-16.63
-10.66
-7.74
-7.21
-7.24
-5.84
-2.39
2.48
7.52
11.60
14.16
15.21
15.15
14.40
13.80
13.74
14.19
14.80
14.99
14.40
13.00
12.04
11.32
11.30
12.21
13.94
16.04
17.93
19.38
20.49
21.59
22.83
24.61
27.38
32.00
39.21
48.41
57.82
64.04
62.82
50.72
27.03
-5.99
-43.27
-78.81
-107.82
-126.49
-133.10
-128.40
-115.67
-99.86
-86.84
-81.07
-85.03
-99.41
-121.42
-145.95
-166.91
-178.40
-175.50
-155.98
-120.04
-67.48
-8.61
44.64
84.05
107.67
118.79
125.12
130.68
137.97
147.87
160.15
176.05
197.50
225.66
259.82
297.62
330.99
353.95
362.85
356.46
336.90
307.76
272.33
232.70
190.06
145.24
100.50
58.32
20.02
-13.92
-44.07
-71.76
-98.42
-125.19
-152.93
-181.22
-208.72
-233.39
-252.14
-261.72
-260.23
-248.18
-228.64
-206.29
-185.20
-167.93
-155.93
-149.44
-148.23
-151.76
-158.77
-166.39
-169.89
-163.37
-142.45
-107.80
-64.80
-21.59
13.97
37.01
46.96
46.97
42.21
37.34
32.48
26.16
17.44
7.32
-2.19
-9.34
-12.86
-11.41
-3.43
8.26
20.06
28.45
30.54
23.45
4.78
-25.92
-66.18
-111.51
-162.71
-221.30
-287.07
-356.43
-423.78
-483.88
-533.09
-570.02
-563.24
-496.65
-378.03
-237.10
-104.99
1.92
82.08
141.19
185.95
221.13
244.05
251.85
245.27
229.67
212.12
197.95
189.57
187.05
189.17
190.15
185.38
173.68
157.89
142.28
130.03
122.33
118.91
118.80
118.34
114.63
106.93
97.00
87.42
80.01
75.40
73.36
73.31
73.37
72.12
69.07
65.04
61.16
58.12
56.04
54.61
53.46
51.69
48.66
43.84
37.66
30.60
23.08
15.34
7.55
-0.13
-7.60
-14.03
-19.70
-24.46
-28.21
-30.84
-32.37
-32.86
-32.46
-31.41
-29.98
-28.46
-26.91
-25.38
-23.82
-22.20
-20.51
-18.73
-17.05
-15.61
-14.58
-13.87
-13.33
-12.70
-11.75
-10.70
-9.44
-8.30
-7.67
-7.81
-8.61
-9.71
-10.58
-10.83
-10.37
-9.43
-8.64
-8.58
-9.53
-11.37
-13.53
-15.38
-16.42
-16.79
-16.80
-16.89
-17.37
-18.29
-19.53
-21.47
-25.11
-30.74
-37.36
-42.00
-40.87
-31.44
-14.39
5.69
22.54
31.04
29.70
20.97
9.31
-1.66
-11.10
-20.22
-31.02
-43.55
-55.97
-65.77
-71.78
-75.28
-79.07
-85.40
-91.85
-95.27
-90.18
-73.20
-45.60
-13.36
15.77
35.33
42.62
39.76
31.28
22.10
15.06
10.59
7.76
5.92
5.40
7.49
13.34
22.91
35.39
49.13
62.26
73.66
83.03
90.58
96.68
101.25
103.50
102.45
97.05
86.75
71.95
53.84
33.78
13.92
-4.30
-20.28
-33.98
-45.74
-55.90
-64.57
-71.57
-76.56
-79.27
-79.64
-77.88
-74.25
-69.15
-62.96
-55.85
-47.82
-38.97
-29.43
-19.58
-9.88
-0.81
7.18
13.78
18.82
22.22
24.08
24.58
23.90
22.32
20.18
17.82
15.54
13.61
12.23
11.54
11.66
12.65
14.44
16.83
19.47
21.91
23.60
24.03
22.91
20.12
15.61
9.60
2.33
-5.95
-15.03
-24.78
-35.07
-45.49
-55.59
-64.86
-72.83
-79.23
-84.07
-87.72
-90.79
-93.96
-97.31
-100.64
-103.48
-105.16
-105.18
-103.55
-100.79
-97.76
-95.25
-92.95
-89.91
-84.70
-75.69
-61.89
-43.33
-20.85
4.66
29.64
52.93
74.84
96.50
119.48
144.61
171.58
199.38
226.98
253.35
278.08
299.92
316.40
325.35
325.43
317.03
302.48
284.82
265.86
246.45
225.88
203.41
181.03
162.22
150.19
145.65
145.59
143.73
134.83
116.57
84.75
41.67
-6.77
-54.81
-100.29
-142.21
-185.77
-232.19
-276.14
-307.93
-315.80
-292.54
-239.13
-164.38
-82.23
-8.38
44.58
68.89
63.05
33.40
-8.30
-48.48
-76.39
-88.53
-90.50
-93.71
-110.19
-146.61
-199.87
-258.83
-308.77
-337.04
-337.03
-309.17
-259.00
-195.44
-129.34
-71.58
-31.77
-16.03
-24.44
-50.79
-83.99
-111.24
-122.41
-113.12
-85.55
-47.43
-9.03
20.22
34.21
31.83
17.06
-2.63
-18.65
-24.14
-15.85
5.77
38.12
78.05
122.69
168.64
210.71
241.75
254.53
245.19
216.35
177.57
142.21
122.27
123.60
143.72
173.73
202.60
221.42
225.52
214.06
188.26
150.12
102.54
50.52
1.77
-34.42
-50.31
-42.89
-15.95
20.72
54.90
76.14
78.80
62.74
31.61
-9.05
-52.99
-93.20
-122.10
-132.91
-122.36
-92.46
-50.12
-4.19
38.62
76.15
109.87
141.14
167.91
184.32
183.65
162.86
124.84
77.43
29.45
-13.14
-48.96
-79.85
-108.24
-134.81
-156.88
-170.60
-173.42
-165.78
-150.97
-133.32
-116.40
-101.91
-89.81
-78.97
-68.37
-57.65
-47.33
-38.39
-31.66
-27.40
-25.11
-23.73
-21.99
-19.09
-14.97
-10.19
-5.55
-1.73
1.02
2.92
4.50
6.34
8.81
11.85
15.11
18.20
20.86
23.06
24.96
26.80
28.78
30.89
32.93
34.58
35.58
35.73
34.98
33.35
30.92
27.70
23.84
19.43
14.61
9.59
4.62
-0.02
-4.09
-7.35
-9.61
-10.72
-10.73
-9.69
-7.71
-4.89
-1.38
2.73
7.36
12.44
18.03
23.88
29.83
35.82
41.82
47.86
53.96
60.18
66.62
73.50
80.53
87.62
94.71
101.84
109.03
116.28
123.62
131.10
138.86
146.43
153.53
159.95
165.44
169.61
171.87
171.22
166.12
159.05
150.64
141.31
131.42
121.28
111.15
101.17
91.45
82.05
73.13
64.37
55.72
47.35
39.44
32.12
25.27
18.60
11.71
4.39
-3.76
-12.59
-21.60
-30.18
-38.06
-45.45
-53.06
-61.84
-72.47
-85.43
-100.31
-116.06
-131.53
-146.05
-159.84
-174.00
-190.02
-209.19
-232.06
-257.88
-285.21
-312.39
-338.46
-363.44
-388.24
-414.36
-443.63
-478.05
-519.06
-566.74
-618.67
-669.22
-710.13
-732.57
-730.33
-702.26
-652.88
-589.98
-521.82
-454.53
-391.08
-331.88
-276.24
-223.82
-174.93
-129.87
-87.49
-45.42
-1.30
46.07
96.31
147.99
199.08
247.87
293.45
336.60
378.72
420.43
460.71
497.21
527.08
547.71
557.35
550.61
523.91
479.09
423.70
366.53
313.54
267.11
227.18
192.74
162.71
137.08
116.22
99.99
87.25
76.44
66.22
55.74
44.65
32.96
21.56
11.45
3.08
-3.92
-10.36
-16.78
-23.54
-30.70
-38.17
-45.41
-51.87
-57.37
-62.20
-66.87
-71.53
-76.26
-80.89
-85.06
-88.13
-89.38
-88.25
-84.44
-78.07
-68.63
-56.00
-40.31
-21.93
-1.44
20.40
42.65
64.24
82.92
98.07
109.35
116.71
120.36
120.74
118.37
113.92
108.00
101.19
94.16
87.23
80.55
74.21
68.22
62.52
57.10
51.94
46.99
42.43
38.25
34.41
30.88
27.62
24.56
21.69
19.03
16.52
14.29
12.34
10.65
9.19
8.30
7.63
7.10
6.69
6.33
6.08
5.91
5.76
5.51
5.08
4.33
3.24
2.11
0.68
-1.05
-3.05
-5.28
-7.73
-10.38
-13.19
-16.09
-18.93
-21.59
-23.86
-25.61
-26.74
-27.27
-27.23
-26.73
-25.80
-24.42
-22.61
-20.33
-17.70
-14.95
-12.46
-10.61
-9.61
-9.45
-9.77
-10.09
-9.89
-8.80
-6.78
-4.14
-1.31
1.28
3.52
5.63
8.04
11.21
15.30
20.02
24.68
28.55
31.09
32.26
32.50
32.61
33.51
36.09
41.09
48.73
58.31
68.00
75.01
76.48
70.58
57.49
39.47
19.98
2.43
-10.83
-18.92
-21.86
-19.88
-13.28
-2.39
11.72
27.05
41.11
51.75
58.08
60.89
62.23
64.60
70.15
79.91
93.64
109.79
125.97
139.55
148.36
151.30
148.52
141.67
133.63
127.74
126.44
130.33
137.81
145.39
148.57
143.18
127.38
102.83
74.29
47.79
28.02
16.34
10.57
6.26
-1.54
-15.60
-35.70
-60.10
-87.86
-119.59
-155.98
-195.25
-231.23
-256.26
-261.57
-240.65
-192.54
-123.29
-44.20
32.16
95.50
139.56
157.92
148.95
117.08
71.23
20.95
-26.81
-68.58
-104.09
-135.31
-171.48
-218.46
-274.84
-333.43
-386.83
-431.32
-466.85
-495.42
-519.86
-551.71
-599.08
-662.06
-733.48
-803.80
-864.33
-906.79
-923.89
-857.98
-688.46
-445.26
-191.10
22.30
176.14
276.47
339.13
378.47
403.27
409.08
392.99
361.21
326.08
299.29
286.41
287.27
297.45
310.96
316.90
310.04
294.06
279.15
275.61
284.93
305.44
332.86
362.65
388.13
406.36
418.14
425.24
426.83
418.77
397.39
360.79
309.68
245.82
173.45
98.46
28.21
-28.68
-63.28
-67.67
-40.33
10.14
67.01
111.88
130.31
117.27
78.01
21.74
-33.92
-71.30
-84.37
-78.44
-62.35
-43.57
-24.94
-6.16
13.46
32.15
48.88
59.80
63.11
60.69
53.51
42.25
27.28
8.57
-15.15
-42.04
-74.96
-115.15
-159.04
-204.39
-247.96
-286.04
-315.37
-335.29
-347.45
-358.36
-372.32
-366.47
-327.12
-254.90
-164.49
-73.94
-7.83
35.35
58.91
65.69
60.12
44.18
16.72
-22.37
-70.31
-116.32
-150.43
-170.17
-193.43
-223.39
-261.39
-296.73
-320.72
-326.88
-314.98
-287.25
-248.09
-201.40
-146.31
-84.13
-17.33
52.09
122.62
190.45
253.47
310.29
358.65
398.42
428.20
432.72
403.75
369.01
346.06
334.90
336.34
348.20
367.24
387.13
399.95
399.95
369.47
300.43
204.07
105.11
24.33
-29.97
-61.42
-78.62
-87.52
-90.23
-87.18
-77.81
-63.32
-48.01
-36.53
-31.64
-33.28
-38.83
-44.11
-46.40
-44.58
-40.35
-37.43
-39.52
-48.55
-64.20
-83.91
-104.40
-123.00
-132.61
-133.31
-128.54
-122.59
-118.63
-117.97
-119.82
-122.15
-122.47
-119.13
-112.68
-104.67
-97.15
-91.75
-89.27
-89.92
-93.57
-99.52
-106.18
-111.23
-110.50
-99.65
-76.41
-42.41
-3.32
33.21
60.60
76.01
80.41
77.85
72.65
67.35
62.31
56.76
50.32
43.72
38.43
35.37
34.48
34.57
33.98
31.27
26.12
19.33
12.43
6.90
3.48
1.97
1.40
0.50
-1.71
-5.46
-10.18
-14.78
-18.15
-19.59
-19.08
-17.14
-14.63
-12.24
-10.35
-8.83
-7.10
-4.43
-0.27
5.45
12.27
19.27
25.44
29.92
32.42
33.33
33.56
34.08
35.43
37.49
39.38
39.91
37.98
33.36
26.95
20.56
16.17
15.06
17.23
21.20
24.80
25.89
23.54
18.44
12.56
8.21
7.04
9.61
15.40
23.15
30.55
34.59
32.17
21.51
3.73
-16.28
-30.80
-32.86
-17.94
11.37
46.07
74.60
88.02
83.34
63.88
36.60
8.54
-15.36
-33.07
-44.20
-48.89
-47.40
-40.48
-29.37
-15.78
-1.73
10.92
20.49
25.80
26.29
22.19
14.69
5.93
-1.56
-5.88
-6.33
-3.78
-0.04
3.12
5.03
5.97
7.07
9.46
13.34
17.73
20.68
20.31
15.86
8.35
0.41
-4.74
-4.60
1.61
12.87
26.76
40.48
51.72
59.05
62.01
60.61
55.04
45.48
32.48
17.36
2.09
-11.56
-22.33
-29.21
-30.94
-25.86
-12.61
8.72
35.92
64.91
90.66
109.10
118.83
121.13
118.57
113.34
106.42
98.14
89.15
80.55
73.04
67.61
65.12
65.58
67.89
69.96
69.22
66.39
61.09
50.77
34.57
14.21
-6.90
-25.86
-41.88
-55.92
-70.36
-88.04
-114.60
-152.47
-199.18
-249.11
-296.51
-338.02
-372.50
-400.52
-423.34
-447.53
-477.77
-514.52
-554.69
-592.98
-623.52
-639.58
-635.02
-574.55
-450.46
-287.58
-127.63
-2.33
79.53
122.97
145.98
161.46
176.69
190.49
201.80
210.90
220.01
232.02
247.38
257.58
254.18
233.70
196.82
148.80
102.71
61.54
26.80
-0.45
-19.00
-28.67
-27.59
-13.87
12.44
48.84
90.47
133.61
175.93
216.20
255.40
294.96
338.70
388.25
442.00
494.70
540.88
574.87
590.56
584.44
528.02
412.92
257.24
96.92
-37.96
-135.61
-197.37
-237.96
-264.36
-277.02
-269.59
-238.76
-187.27
-124.34
-59.85
-0.24
46.66
76.06
86.68
85.06
78.62
70.76
60.25
44.73
23.94
-0.44
-23.02
-38.29
-40.97
-29.52
-9.93
7.58
12.98
0.54
-30.48
-74.00
-120.93
-161.45
-188.79
-202.02
-206.24
-209.89
-216.10
-227.13
-240.78
-251.41
-251.24
-232.77
-192.19
-131.75
-59.12
14.95
78.69
122.47
140.27
127.06
85.39
28.47
-25.25
-61.63
-76.13
-72.66
-58.51
-40.85
-24.78
-13.05
-4.29
2.96
10.72
22.38
41.64
70.88
108.10
145.80
175.86
193.09
195.78
185.02
163.25
133.36
98.83
64.19
34.60
14.83
6.58
6.47
8.31
6.27
-2.56
-17.22
-33.88
-47.88
-55.42
-54.89
-47.03
-33.87
-17.72
-0.59
16.00
30.96
43.60
54.80
64.89
73.97
82.01
88.92
94.73
99.73
104.37
109.03
113.83
118.34
121.75
123.04
120.84
113.39
98.46
73.79
37.88
-8.86
-63.63
-121.35
-176.12
-223.14
-259.97
-286.60
-304.21
-313.60
-314.21
-304.60
-283.86
-253.20
-216.43
-178.98
-145.81
-119.92
-101.73
-90.11
-83.91
-82.73
-86.53
-94.36
-103.49
-109.86
-110.08
-103.24
-91.63
-79.28
-69.58
-63.12
-57.39
-48.49
-33.66
-13.31
9.05
28.85
43.11
52.19
59.73
71.17
91.70
124.45
168.91
221.40
276.00
326.18
366.22
392.13
402.25
397.11
378.73
348.70
308.69
260.89
208.81
157.08
110.16
70.96
39.74
14.25
-10.80
-39.92
-74.42
-110.81
-142.56
-163.51
-170.62
-165.08
-151.11
-136.18
-126.91
-127.49
-138.32
-157.66
-183.98
-216.68
-255.68
-286.18
-293.89
-271.91
-226.54
-170.31
-114.05
-64.12
-23.18
8.04
31.17
45.37
52.72
53.73
49.29
40.32
26.95
9.06
-13.66
-39.46
-66.58
-89.24
-103.09
-104.30
-90.98
-64.05
-22.54
26.42
72.42
106.49
125.44
129.70
122.36
107.16
87.49
66.76
47.10
30.89
19.75
15.20
15.49
18.61
22.79
26.69
30.47
34.50
40.57
50.85
66.76
87.51
111.05
134.90
152.70
160.76
157.18
142.77
120.42
93.97
66.81
41.74
20.67
4.33
-7.04
-14.53
-19.70
-23.93
-28.03
-32.26
-36.23
-39.55
-42.28
-44.47
-46.63
-49.04
-51.49
-53.31
-53.71
-52.15
-48.76
-44.41
-40.06
-36.56
-34.09
-32.15
-29.86
-26.69
-22.88
-19.47
-17.63
-17.64
-18.73
-19.33
-17.99
-14.30
-9.22
-4.46
-1.52
-0.72
-1.02
-0.64
1.89
6.96
13.65
20.22
24.98
27.04
26.56
24.53
22.23
20.55
19.63
18.86
17.26
14.16
9.64
4.69
0.76
-1.00
-0.41
1.59
3.42
3.82
2.53
0.42
-1.10
-1.01
0.61
2.54
3.08
1.11
-3.26
-8.72
-13.36
-15.71
-15.45
-13.47
-11.34
-10.37
-11.03
-12.77
-14.50
-15.33
-15.05
-14.31
-14.08
-14.99
-16.89
-18.91
-19.97
-19.51
-17.93
-16.37
-16.03
-17.26
-19.21
-20.14
-18.26
-12.84
-4.67
4.16
11.29
15.29
16.20
15.30
14.32
14.38
15.49
16.71
16.91
15.56
13.07
10.55
9.16
9.38
10.84
12.46
13.16
12.47
10.79
9.13
8.48
9.22
10.76
11.89
11.37
8.78
4.75
0.77
-1.64
-1.75
-0.03
2.04
2.82
1.33
-2.17
-6.39
-9.67
-10.87
-9.92
-7.78
-5.88
-5.30
-6.26
-8.07
-9.55
-9.81
-8.60
-6.41
-4.06
-2.07
-0.37
1.58
4.39
8.16
12.29
15.69
17.32
16.74
14.26
10.76
7.25
4.40
2.30
0.61
-1.09
-2.88
-4.47
-5.29
-4.85
-3.14
-0.78
1.20
1.83
0.76
-1.52
-3.96
-5.40
-5.24
-3.77
-1.92
-0.77
-0.90
-2.12
-3.66
-4.63
-4.51
-3.42
-1.98
-0.93
-0.68
-1.15
-1.82
-2.12
-1.76
-0.92
-0.19
-0.20
-1.12
-2.52
-3.48
-3.09
-1.04
2.09
5.09
6.70
6.45
4.91
3.36
3.12
4.66
7.33
9.70
10.37
8.71
5.08
0.57
-3.58
-6.55
-8.29
-9.50
-11.16
-13.83
-17.46
-21.38
-24.71
-26.82
-27.65
-27.80
-28.16
-29.41
-31.26
-32.83
-33.25
-32.40
-31.13
-30.85
-32.71
-36.79
-41.74
-44.58
-42.61
-35.20
-24.44
-14.04
-7.26
-5.13
-6.06
-6.66
-2.18
10.15
29.18
50.12
67.28
77.23
80.09
78.86
77.50
81.20
92.62
110.19
128.50
141.65
146.00
141.28
129.65
114.77
103.73
103.67
119.38
151.64
197.85
252.62
307.97
353.70
361.67
312.64
209.72
80.68
-40.33
-131.44
-187.95
-216.27
-226.34
-225.73
-216.25
-198.17
-173.91
-149.79
-130.63
-117.24
-105.40
-88.54
-60.66
-18.05
37.55
98.86
155.19
196.67
217.45
216.72
191.75
146.34
89.36
32.05
-14.90
-44.66
-55.63
-51.45
-39.25
-26.89
-19.39
-17.61
-19.24
-21.01
-21.20
-20.31
-20.30
-22.78
-27.63
-32.21
-33.12
-28.16
-17.64
-4.44
7.58
15.46
18.46
17.95
16.76
17.06
19.43
22.96
26.16
28.08
29.02
30.42
33.57
38.48
42.88
42.82
34.33
15.35
-13.29
-47.77
-82.55
-112.48
-134.51
-148.41
-156.11
-160.03
-161.71
-161.47
-158.33
-150.98
-138.92
-123.43
-107.25
-93.53
-84.47
-80.56
-81.79
-86.85
-93.27
-98.06
-98.59
-93.18
-81.36
-64.07
-43.79
-26.12
-15.43
-12.47
-14.29
-16.80
-17.45
-16.50
-16.50
-20.68
-34.12
-57.60
-86.00
-110.76
-125.00
-126.83
-119.39
-109.20
-104.48
-117.44
-155.72
-217.85
-292.83
-364.47
-416.63
-437.65
-423.88
-354.19
-232.45
-89.05
35.32
116.89
157.89
175.06
184.40
193.44
201.42
200.15
185.45
161.55
138.66
125.63
124.66
131.14
137.73
138.95
130.34
113.03
93.08
77.84
71.70
75.05
86.35
104.11
127.01
150.24
167.75
174.03
166.04
144.03
111.76
75.49
41.95
16.11
-1.48
-12.37
-18.21
-19.61
-16.68
-9.34
2.12
16.96
34.24
51.81
67.87
81.29
91.57
98.53
102.02
101.72
96.43
87.22
74.84
60.44
45.64
32.45
22.86
18.36
19.17
23.60
28.48
29.58
23.85
10.79
-7.06
-25.12
-38.80
-45.66
-46.17
-42.90
-39.25
-37.28
-37.08
-37.35
-36.71
-34.67
-31.91
-29.65
-28.61
-28.90
-30.02
-31.36
-32.62
-34.14
-36.47
-39.90
-44.03
-47.86
-49.90
-48.91
-44.37
-36.70
-27.13
-17.19
-8.15
-0.68
5.13
9.54
12.78
14.87
15.67
15.02
13.06
10.27
7.44
5.35
4.46
4.77
5.79
6.93
7.68
7.89
7.62
7.18
6.84
6.74
6.86
7.13
7.59
8.35
9.46
10.86
12.32
13.45
13.95
13.58
12.47
11.10
10.07
9.90
10.75
12.32
13.99
15.13
15.28
14.52
13.48
12.99
13.65
15.47
17.76
19.40
19.27
16.43
10.60
2.18
-8.08
-19.25
-30.39
-40.64
-49.08
-53.14
-50.95
-41.50
-24.99
-2.95
22.02
46.99
69.32
87.27
100.12
107.52
109.38
105.50
95.66
80.15
60.32
38.94
19.83
7.02
3.31
9.59
24.44
44.34
64.30
78.72
82.29
70.97
43.05
-0.04
-53.24
-108.51
-156.55
-189.43
-202.88
-197.59
-178.67
-153.66
-129.97
-112.57
-103.15
-100.54
-102.04
-104.75
-106.44
-105.75
-102.14
-95.68
-87.02
-77.37
-68.25
-61.20
-57.22
-56.54
-58.38
-61.12
-62.60
-60.61
-53.50
-40.71
-23.17
-3.16
16.35
32.61
44.09
50.89
54.45
56.73
59.24
62.39
65.52
67.43
67.13
64.45
60.03
55.06
50.56
46.88
43.66
40.10
35.58
30.15
24.50
19.71
16.65
15.47
15.58
15.91
15.55
14.18
12.20
10.48
9.73
10.14
11.18
11.94
11.69
10.28
8.24
6.48
5.77
6.28
7.54
8.62
8.77
7.76
5.90
3.81
1.95
0.30
-1.60
-4.27
-7.81
-11.71
-15.03
-16.87
-16.90
-15.60
-13.99
-13.14
-13.60
-15.08
-16.65
-17.17
-15.89
-12.80
-8.62
-4.47
-1.23
0.81
2.11
3.54
5.84
9.12
12.76
15.68
17.00
16.57
15.05
13.59
13.14
13.88
15.24
16.27
16.25
15.13
13.53
12.28
11.87
12.17
12.49
12.04
10.43
7.96
5.45
3.86
3.75
4.97
6.75
8.08
8.24
7.13
5.27
3.49
2.43
2.21
2.45
2.50
1.95
0.89
-0.11
-0.32
0.73
2.95
5.65
7.90
8.99
8.86
8.11
7.81
8.86
11.56
15.42
19.38
22.42
24.08
24.70
25.19
26.37
28.49
31.04
32.99
33.43
32.03
29.23
25.91
22.84
20.24
17.65
14.27
9.63
3.96
-1.76
-6.22
-8.47
-8.46
-7.11
-5.88
-5.96
-7.74
-10.68
-13.75
-16.08
-17.52
-18.69
-20.51
-23.58
-27.71
-31.97
-35.11
-36.19
-35.03
-32.21
-28.73
-25.45
-22.75
-20.59
-18.65
-16.70
-14.76
-12.98
-11.52
-10.32
-9.18
-7.93
-6.65
-5.78
-5.93
-7.50
-10.44
-14.19
-17.88
-20.72
-22.11
-21.59
-18.62
-12.53
-2.88
10.15
25.43
41.08
55.15
66.32
74.14
78.69
79.94
77.33
69.98
57.44
40.43
20.98
1.83
-14.62
-27.15
-35.99
-42.30
-47.71
-53.99
-62.56
-74.36
-89.66
-107.74
-126.69
-143.70
-155.62
-160.19
-156.98
-147.28
-133.28
-117.13
-100.07
-82.14
-62.63
-40.55
-15.56
11.27
38.22
63.53
85.54
103.11
115.99
125.07
132.88
142.08
152.88
163.72
171.82
173.68
167.28
153.97
138.49
128.10
127.52
133.39
138.76
137.40
126.39
108.67
92.18
86.21
99.41
134.52
183.33
234.98
280.02
309.73
317.01
297.21
249.69
182.61
110.24
44.64
-1.30
-17.28
-3.42
29.63
65.25
70.52
26.21
-34.60
-86.16
-121.67
-135.13
-128.27
-109.24
-88.61
-74.66
-68.21
-66.00
-68.95
-76.61
-85.72
-94.05
-100.18
-103.29
-102.55
-95.75
-81.65
-65.17
-51.05
-40.50
-33.20
-27.01
-18.54
-3.60
21.95
59.64
103.74
137.94
146.57
121.45
68.12
1.90
-60.67
-108.63
-140.51
-163.87
-187.69
-217.96
-256.75
-301.89
-348.42
-382.79
-393.96
-374.82
-324.51
-247.74
-152.45
-48.50
53.29
141.58
205.69
236.85
232.08
196.29
141.64
83.86
36.26
4.62
-13.96
-27.43
-43.58
-64.88
-87.73
-105.68
-113.75
-111.31
-101.83
-90.15
-79.48
-70.33
-60.77
-48.78
-34.14
-18.81
-6.00
1.78
3.92
1.99
-1.47
-3.94
-4.04
-1.99
0.79
2.49
2.07
-0.12
-2.35
-2.36
1.67
10.30
22.39
35.74
48.11
58.40
67.02
75.38
84.68
94.74
103.73
108.79
107.60
99.80
87.56
74.85
65.79
62.81
65.55
71.05
74.93
73.36
64.67
50.17
33.61
19.98
13.67
16.87
28.80
45.50
60.60
66.63
56.85
27.67
-19.27
-76.46
-131.98
-172.58
-187.71
-172.41
-128.42
-62.96
13.90
92.07
163.34
221.88
264.18
288.67
295.79
288.00
269.42
244.97
218.82
193.17
167.89
141.24
110.77
74.84
33.60
-10.83
-54.54
-92.46
-119.02
-129.27
-120.66
-95.08
-59.69
-25.97
-6.57
-11.31
-44.00
-101.48
-175.35
-255.24
-331.61
-396.82
-445.24
-473.10
-479.02
-465.08
-437.28
-404.26
-374.59
-353.38
-339.71
-327.34
-307.66
-273.74
-223.37
-159.67
-89.40
-20.59
39.78
87.79
122.68
146.48
162.75
175.64
189.62
209.46
239.32
277.18
315.85
344.01
350.55
328.83
279.20
209.71
134.90
71.55
32.79
23.97
40.25
70.75
103.14
127.01
136.61
131.80
116.59
96.51
77.00
62.14
54.49
54.38
61.58
73.07
84.25
90.09
87.14
74.47
53.30
26.34
-2.36
-30.39
-55.31
-74.95
-88.61
-97.44
-104.30
-110.12
-116.37
-123.53
-131.01
-137.23
-140.23
-138.64
-132.09
-121.28
-107.58
-92.87
-78.66
-65.98
-55.10
-45.73
-37.19
-28.59
-18.99
-7.61
5.68
20.25
34.46
46.01
52.36
51.76
44.08
30.97
15.41
0.59
-10.92
-17.88
-20.35
-19.36
-16.28
-12.17
-7.59
-2.57
2.95
8.84
14.34
17.98
17.92
12.67
1.83
-13.59
-31.27
-48.32
-61.63
-68.10
-64.71
-48.93
-19.69
21.30
68.71
113.98
147.44
161.60
153.95
128.07
92.09
55.28
24.45
1.83
-14.57
-28.64
-43.36
-59.03
-73.50
-83.76
-87.95
-86.35
-81.18
-75.07
-69.81
-65.46
-60.89
-54.73
-45.79
-33.66
-18.33
-0.19
19.90
39.98
57.17
68.10
69.94
61.60
44.34
21.95
-0.05
-15.87
-21.14
-14.43
2.25
24.17
45.58
61.68
70.04
70.75
65.59
56.65
45.39
32.80
19.73
7.58
-2.04
-7.91
-9.98
-9.60
-8.63
-8.91
-11.50
-16.79
-24.59
-34.53
-46.06
-58.22
-69.53
-78.10
-82.04
-80.01
-71.61
-57.61
-39.74
-20.34
-1.80
13.86
25.30
31.93
33.96
32.35
28.61
24.56
21.93
21.83
24.41
28.83
33.51
36.86
37.88
36.50
33.44
29.80
26.41
23.67
21.53
19.79
18.39
17.53
17.58
18.86
21.41
24.91
28.78
32.48
35.67
38.38
40.75
42.77
43.95
43.34
39.91
33.20
23.72
12.89
2.58
-5.64
-11.09
-14.04
-15.35
-15.88
-16.12
-16.29
-16.61
-17.62
-20.14
-24.93
-32.15
-41.07
-50.05
-57.12
-60.65
-59.92
-55.27
-47.89
-39.24
-30.51
-22.36
-14.90
-7.96
-1.26
5.36
11.97
18.54
24.96
31.11
36.83
41.99
46.46
50.10
52.77
54.25
54.44
53.43
51.56
49.37
47.31
45.50
43.57
40.88
36.86
31.42
25.00
18.47
12.63
7.91
4.14
0.80
-2.58
-6.07
-9.12
-10.79
-10.20
-7.08
-2.04
3.49
7.89
10.06
9.87
8.21
6.41
5.63
6.33
8.38
11.49
15.64
21.02
27.57
34.42
39.85
41.90
39.32
32.48
23.27
14.38
8.33
6.71
10.06
18.21
30.64
46.50
64.46
82.42
97.61
106.98
107.92
98.93
80.10
53.38
22.34
-8.53
-34.87
-53.61
-63.69
-66.04
-62.89
-56.71
-49.60
-43.13
-38.60
-37.25
-40.00
-46.83
-56.40
-66.02
-72.62
-74.11
-70.33
-63.30
-56.50
-53.56
-57.01
-67.34
-82.74
-99.57
-113.33
-120.24
-119.03
-111.96
-104.31
-102.16
-109.35
-125.17
-144.36
-159.26
-163.10
-152.54
-128.23
-93.58
-53.08
-11.17
28.13
61.24
85.63
100.58
107.28
107.63
102.29
89.67
67.10
34.02
-5.10
-40.51
-60.72
-57.98
-32.52
7.12
48.45
81.18
101.87
114.18
125.13
139.68
157.16
171.61
175.37
163.78
138.21
105.52
74.54
51.70
38.11
29.88
21.19
8.14
-8.81
-25.12
-34.86
-34.07
-22.75
-4.59
14.99
31.28
41.77
46.25
45.84
41.90
35.38
26.80
16.60
5.42
-5.88
-16.43
-25.54
-32.92
-38.63
-43.04
-46.75
-50.37
-54.17
-57.74
-59.85
-58.58
-51.94
-38.70
-19.31
3.91
27.15
46.35
58.66
63.46
62.46
58.70
54.94
51.95
47.95
39.78
24.98
3.65
-20.85
-43.26
-58.80
-65.28
-64.25
-59.72
-55.53
-53.26
-51.95
-49.46
-44.25
-36.55
-27.67
-19.70
-13.85
-9.35
-3.54
6.61
22.99
45.44
71.44
97.48
118.95
131.63
133.19
124.09
106.74
84.19
58.71
27.76
-7.61
-43.54
-75.14
-98.58
-111.37
-112.93
-104.66
-90.01
-73.49
-58.48
-47.18
-40.30
-38.13
-38.43
-38.82
-36.95
-30.69
-19.08
-1.87
19.29
41.19
60.20
74.24
83.43
90.32
97.67
106.52
116.44
124.93
128.69
125.64
116.39
103.63
90.40
78.21
64.46
46.74
25.15
2.93
-15.67
-28.55
-38.07
-50.49
-72.61
-110.22
-161.45
-216.90
-264.10
-294.08
-305.38
-303.98
-299.54
-283.04
-251.17
-206.24
-154.75
-102.81
-54.79
-14.31
16.11
36.16
48.34
54.32
56.77
58.48
61.43
66.05
71.65
77.56
83.70
90.60
96.17
99.65
100.69
99.27
95.15
87.75
76.56
61.50
43.01
22.23
0.05
-21.95
-41.76
-57.95
-69.97
-78.27
-83.67
-87.10
-89.93
-93.32
-98.11
-104.39
-111.16
-115.68
-113.81
-101.46
-76.77
-42.10
-3.71
30.61
54.68
66.30
67.55
63.03
57.36
53.44
51.35
50.24
49.56
49.68
51.27
54.50
58.45
61.42
61.82
58.77
52.87
45.82
39.83
36.50
36.41
38.82
42.16
44.77
45.53
44.56
43.24
43.80
48.32
57.79
70.98
84.52
93.64
93.90
83.26
63.14
38.22
14.62
-2.18
-9.81
-9.40
-5.15
-2.12
-4.10
-11.97
-23.43
-34.13
-39.57
-37.62
-28.96
-16.69
-5.03
2.67
4.46
-0.87
-14.12
-35.03
-61.83
-89.48
-111.14
-121.31
-119.02
-109.56
-103.10
-109.56
-130.40
-159.23
-181.19
-181.90
-157.30
-114.88
-67.47
-25.89
5.12
29.36
50.38
69.53
85.40
95.23
97.66
94.27
86.24
77.39
71.22
68.79
69.62
71.95
73.51
72.93
70.03
65.58
61.28
59.10
60.45
66.64
78.39
95.71
118.36
146.17
178.70
215.13
253.05
287.72
312.86
322.12
311.02
278.86
229.34
169.25
106.30
46.35
-7.85
-56.01
-98.92
-137.27
-171.34
-202.02
-231.94
-265.17
-305.49
-353.53
-404.54
-448.82
-475.05
-474.77
-445.91
-393.29
-325.78
-251.96
-176.87
-101.50
-25.31
50.44
120.88
178.46
216.06
230.57
224.41
204.22
177.69
150.26
123.73
97.05
68.60
38.38
8.71
-16.84
-35.20
-45.19
-47.78
-45.24
-40.04
-34.08
-28.56
-24.26
-21.85
-21.88
-24.39
-28.66
-33.10
-35.79
-35.21
-30.86
-23.47
-14.63
-6.09
1.01
6.59
11.45
16.66
22.95
30.15
37.32
43.10
46.30
46.33
43.35
38.15
31.81
25.50
20.31
17.13
16.53
18.63
22.96
28.52
33.89
37.66
38.85
37.16
33.02
27.40
21.46
16.15
11.96
8.87
6.62
4.94
3.74
3.12
3.15
3.55
3.70
2.82
0.43
-3.35
-7.76
-11.80
-14.68
-16.25
-17.00
-17.68
-18.77
-20.07
-20.78
-19.92
-16.98
-12.28
-7.04
-2.89
-1.25
-2.73
-6.95
-12.74
-18.63
-23.32
-25.94
-26.03
-23.53
-18.85
-13.08
-8.04
-5.87
-8.30
-15.70
-26.59
-37.88
-45.93
-47.83
-42.52
-31.00
-15.86
-0.35
12.64
21.14
24.54
23.46
19.54
14.86
11.34
10.20
11.69
15.20
19.63
23.77
26.57
27.37
25.94
22.61
18.26
14.24
12.04
12.74
16.55
22.58
29.06
33.90
35.49
33.19
27.53
19.80
11.42
3.23
-4.74
-13.25
-23.15
-34.83
-47.84
-60.93
-72.57
-81.46
-86.93
-88.90
-87.66
-83.43
-76.21
-65.82
-52.15
-35.54
-16.96
1.98
19.37
33.56
43.77
50.42
55.04
59.70
66.13
74.89
85.16
95.17
103.06
107.63
108.73
106.86
102.53
95.88
87.07
76.94
67.32
60.35
57.26
57.50
58.97
59.34
57.56
54.62
52.77
53.92
58.16
63.48
66.56
64.15
54.19
36.22
11.24
-18.77
-51.28
-83.66
-113.70
-140.14
-162.64
-181.11
-194.91
-202.45
-201.76
-191.48
-171.97
-145.55
-116.00
-87.36
-62.79
-43.90
-30.64
-21.65
-14.86
-8.21
-0.35
9.07
19.56
30.25
40.43
49.95
59.05
68.09
77.16
85.96
93.94
100.35
104.36
105.15
102.19
95.57
86.43
76.87
69.48
66.49
68.95
76.31
86.42
95.81
100.34
95.96
79.82
51.45
13.60
-27.94
-65.81
-93.39
-106.98
-106.74
-95.91
-79.11
-60.53
-43.23
-29.36
-20.91
-19.80
-27.22
-42.50
-62.52
-82.22
-96.23
-100.84
-95.08
-80.52
-60.43
-38.69
-19.05
-4.86
1.12
-3.06
-18.05
-42.44
-72.33
-101.53
-122.83
-129.89
-119.12
-90.80
-48.76
0.67
50.23
92.83
122.16
133.19
123.06
92.38
46.36
-5.24
-50.19
-77.51
-81.27
-62.61
-28.74
10.27
45.42
71.50
87.55
95.46
97.71
95.68
89.18
77.12
58.80
35.13
9.18
-14.12
-29.40
-32.61
-22.81
-2.91
21.02
41.75
53.43
53.55
43.43
27.22
10.03
-3.89
-11.90
-12.91
-6.57
7.34
29.06
58.44
94.58
135.70
179.35
222.87
263.61
298.88
325.70
340.84
341.38
325.53
293.56
248.26
194.58
138.61
86.26
42.17
8.94
-13.11
-26.02
-33.74
-41.36
-53.64
-73.49
-100.84
-132.48
-163.29
-188.09
-203.65
-209.65
-208.32
-202.95
-196.33
-189.68
-182.80
-175.10
-166.86
-159.74
-156.24
-158.40
-166.40
-177.98
-189.00
-194.88
-192.22
-179.83
-158.76
-131.76
-102.37
-74.03
-49.33
-29.55
-14.36
-1.96
10.02
23.10
36.73
47.94
52.12
44.90
24.11
-8.78
-48.31
-86.18
-113.52
-123.59
-114.06
-87.56
-50.70
-11.67
22.46
47.56
62.80
69.66
70.52
67.69
63.17
58.87
56.60
57.52
61.26
65.57
67.03
62.45
50.30
31.45
8.80
-13.90
-33.38
-47.82
-57.18
-62.76
-66.49
-70.12
-74.57
-79.69
-84.20
-86.09
-83.32
-74.48
-59.47
-39.70
-17.78
3.33
21.43
35.99
48.41
61.34
77.43
98.10
122.77
149.03
173.52
192.94
204.74
207.23
199.48
181.22
153.20
117.46
77.48
37.69
2.54
-24.53
-41.78
-49.27
-48.57
-42.32
-33.88
-26.93
-25.14
-31.42
-47.31
-72.29
-103.64
-136.84
-166.43
-187.13
-195.16
-189.28
-171.22
-145.37
-117.47
-92.78
-74.31
-61.91
-52.58
-41.95
-26.25
-3.81
24.61
56.50
89.06
120.30
149.23
175.29
197.20
212.39
217.24
208.38
184.28
146.46
99.44
49.43
2.33
-38.18
-71.50
-99.52
-125.07
-149.99
-174.13
-195.52
-211.58
-220.55
-222.50
-219.12
-212.78
-205.33
-197.36
-188.34
-177.39
-164.10
-149.08
-133.72
-119.37
-106.44
-93.80
-78.89
-58.56
-30.21
7.19
52.67
103.46
155.74
205.46
249.15
284.54
310.83
328.67
339.72
346.12
349.73
351.83
353.12
353.96
354.71
355.75
357.20
358.41
357.81
353.01
341.45
321.15
291.28
252.40
206.30
155.57
102.97
50.79
0.29
-48.60
-97.00
-146.23
-196.62
-246.49
-291.87
-327.38
-347.87
-350.22
-334.45
-303.69
-263.21
-219.09
-177.10
-142.16
-118.04
-107.06
-109.63
-123.81
-145.41
-168.49
-186.49
-193.32
-184.31
-156.92
-111.33
-50.58
19.74
92.46
160.16
216.39
256.49
277.83
279.80
263.77
233.20
193.43
150.96
112.09
81.23
59.79
46.09
36.22
25.46
9.42
-15.27
-50.63
-96.99
-152.33
-211.82
-268.10
-312.81
-339.10
-344.09
-330.15
-303.95
-273.85
-246.81
-226.30
-212.07
-201.51
-191.49
-179.39
-163.29
-141.38
-111.90
-73.83
-28.20
20.98
67.19
103.30
124.12
128.53
120.09
105.84
94.00
91.29
101.04
122.41
150.96
179.94
202.17
212.01
206.79
187.55
158.66
126.30
96.37
72.60
55.67
43.62
33.45
22.83
11.25
0.00
-8.78
-13.41
-13.43
-9.57
-3.11
4.83
13.66
23.27
33.64
44.66
56.18
68.28
81.39
95.79
110.91
124.50
132.49
129.91
112.65
79.43
32.96
-20.20
-71.37
-112.18
-137.09
-144.61
-137.22
-120.05
-98.95
-79.00
-63.58
-54.29
-51.35
-54.01
-60.89
-70.14
-79.62
-87.35
-91.94
-93.06
-91.49
-88.77
-86.68
-86.62
-89.19
-93.93
-99.19
-102.10
-99.11
-87.12
-64.91
-34.08
0.94
34.17
59.89
74.26
75.83
65.40
45.49
20.16
-5.08
-23.86
-30.49
-22.27
-1.14
26.50
52.02
68.11
71.58
64.14
50.76
36.89
26.13
19.42
15.70
13.35
11.37
9.72
9.02
9.91
12.72
17.32
23.31
30.30
38.05
46.49
55.70
65.78
76.85
89.09
102.62
117.32
132.45
146.34
156.32
159.01
151.32
131.59
100.63
62.08
21.88
-13.14
-37.27
-47.63
-45.19
-34.39
-21.69
-13.30
-13.38
-23.13
-41.08
-64.21
-89.24
-113.41
-134.63
-151.25
-161.97
-166.04
-163.82
-157.21
-149.54
-144.57
-145.09
-151.56
-161.40
-169.35
-168.90
-154.74
-125.02
-82.74
-35.39
7.37
36.96
48.79
43.61
26.95
7.08
-7.51
-10.31
1.82
28.07
63.78
101.40
132.27
149.09
148.20
130.88
102.80
71.92
45.55
28.16
20.53
20.53
24.69
29.84
34.07
36.84
38.57
40.05
41.98
44.87
49.06
54.65
61.53
69.38
77.89
87.07
97.47
109.97
125.00
141.56
156.56
165.14
162.14
144.18
111.50
68.50
22.61
-17.99
-46.90
-61.22
-61.87
-52.60
-38.38
-23.97
-12.99
-7.71
-9.24
-17.86
-33.09
-53.62
-77.30
-101.30
-122.64
-138.94
-149.23
-154.26
-156.39
-158.82
-164.19
-173.58
-185.84
-197.82
-205.02
-202.92
-188.34
-160.89
-123.45
-81.72
-42.63
-12.07
6.97
15.61
18.53
22.21
32.48
52.76
83.14
120.32
158.89
192.35
215.18
224.22
219.34
203.06
179.49
152.96
126.17
100.46
75.47
50.68
26.49
4.49
-13.54
-26.42
-33.94
-37.84
-39.83
-42.08
-45.34
-48.11
-46.86
-37.41
-16.44
17.73
63.48
118.07
171.21
209.31
221.76
207.07
171.81
124.94
79.70
38.01
1.86
-26.08
-43.01
-47.81
-41.97
-29.94
-17.51
-9.21
-7.62
-11.44
-18.21
-25.27
-30.72
-34.06
-36.61
-41.17
-50.57
-67.01
-89.11
-112.66
-131.24
-138.30
-129.91
-106.90
-74.58
-40.73
-13.00
4.62
12.08
12.47
10.27
9.31
11.32
15.66
20.18
22.12
19.56
11.60
-1.60
-18.83
-38.12
-57.00
-72.76
-82.87
-85.65
-80.72
-69.39
-54.45
-39.25
-26.74
-18.77
-15.79
-17.21
-21.87
-28.41
-35.39
-41.35
-44.90
-44.96
-41.03
-33.31
-22.59
-9.91
3.76
17.70
31.40
44.46
56.60
67.85
78.69
90.12
103.25
118.83
136.75
155.99
174.85
191.40
203.85
210.57
210.04
200.99
182.74
155.67
121.48
82.98
43.43
5.82
-27.55
-55.16
-76.13
-90.20
-97.97
-101.15
-102.53
-105.41
-112.56
-125.29
-142.88
-162.93
-182.27
-198.03
-208.41
-212.92
-212.12
-207.08
-198.88
-188.36
-176.12
-162.60
-148.21
-133.29
-118.09
-102.76
-87.38
-72.12
-57.18
-42.53
-27.70
-11.70
6.45
26.91
48.28
67.61
81.28
86.66
83.52
74.51
64.22
57.28
56.37
61.30
69.42
77.12
81.59
81.73
78.12
72.11
64.94
57.19
48.88
40.03
31.03
22.75
16.22
12.25
11.17
12.78
16.63
22.16
28.84
36.17
43.63
50.78
57.35
63.34
69.07
75.11
82.05
90.08
98.49
105.36
107.59
101.69
85.09
57.55
21.97
-15.93
-49.09
-71.18
-78.45
-70.67
-50.93
-24.47
2.88
26.08
41.75
48.59
47.13
39.25
27.52
14.51
2.30
-7.79
-15.31
-20.64
-24.80
-29.23
-35.40
-44.30
-56.04
-69.73
-83.64
-95.79
-104.49
-108.70
-108.13
-103.09
-94.39
-83.26
-71.40
-60.81
-53.50
-50.89
-53.14
-58.77
-64.66
-66.78
-61.44
-46.57
-22.61
7.38
38.61
66.00
85.64
95.60
95.96
88.15
74.20
56.13
35.82
15.17
-3.87
-19.41
-30.04
-35.08
-34.65
-29.27
-19.50
-5.67
11.82
32.02
53.16
72.77
88.56
99.37
105.87
110.34
115.77
124.47
136.86
151.06
163.36
169.43
165.66
150.27
123.87
89.23
50.61
12.67
-20.43
-45.71
-61.79
-68.87
-68.61
-63.82
-58.02
-54.89
-57.55
-67.76
-85.44
-108.44
-133.01
-154.78
-170.12
-177.26
-176.98
-172.37
-167.82
-167.42
-173.37
-184.92
-198.10
-206.48
-202.84
-181.51
-140.69
-83.96
-19.81
40.60
87.26
114.75
123.98
121.24
115.21
113.25
118.89
131.08
145.58
157.06
161.23
156.00
141.52
119.53
92.48
62.97
33.26
5.16
-19.68
-39.51
-52.62
-57.91
-55.62
-47.55
-36.70
-26.54
-19.93
-18.14
-20.40
-23.93
-24.73
-18.90
-3.52
22.41
57.19
96.46
134.48
165.89
187.18
197.48
197.66
189.79
176.10
158.41
138.04
117.49
100.96
93.50
99.16
118.59
145.35
169.80
182.92
179.36
160.31
131.35
99.18
71.82
51.86
41.52
41.39
50.34
62.47
70.55
69.17
54.63
26.59
-12.91
-58.74
-106.84
-154.09
-201.80
-251.34
-301.94
-351.30
-395.73
-432.67
-459.62
-477.49
-466.73
-417.18
-332.36
-228.36
-125.28
-35.97
26.86
70.59
101.55
123.67
135.88
136.78
129.89
117.49
102.17
85.49
69.23
52.13
32.38
6.04
-29.66
-65.39
-92.01
-103.82
-101.70
-89.65
-73.52
-57.34
-44.34
-35.94
-31.29
-29.61
-29.52
-29.87
-29.31
-28.17
-27.36
-28.18
-31.52
-36.68
-42.98
-49.43
-55.13
-59.42
-62.77
-66.12
-70.39
-76.96
-86.71
-100.32
-116.88
-133.05
-143.22
-141.61
-126.71
-97.70
-58.87
-17.29
20.02
49.08
70.06
86.05
100.59
114.53
127.80
138.59
145.45
148.38
148.74
148.23
147.74
146.80
144.18
138.79
130.06
118.68
106.48
95.71
88.10
84.19
82.95
82.44
80.72
76.30
69.04
60.29
52.25
47.05
45.85
48.17
52.14
55.34
55.74
52.55
46.69
40.18
35.27
33.53
35.43
40.39
46.94
52.56
53.88
47.83
32.03
7.06
-23.31
-53.01
-75.96
-88.55
-90.91
-86.48
-80.22
-76.26
-76.28
-79.06
-81.44
-79.72
-71.24
-55.52
-34.40
-11.42
9.58
25.63
36.13
42.08
44.91
45.44
43.23
37.65
28.87
18.56
9.63
5.28
7.14
14.98
26.28
36.78
41.57
36.95
21.99
-0.48
-24.67
-43.83
-53.24
-52.13
-43.32
-31.23
-19.52
-9.69
-1.13
7.32
15.94
23.83
29.36
31.56
30.61
27.58
23.40
18.40
11.87
2.67
-9.52
-24.15
-39.29
-52.59
-62.07
-67.18
-68.83
-68.92
-69.75
-72.52
-77.75
-84.67
-91.24
-94.14
-89.69
-75.24
-50.60
-18.98
14.02
42.08
60.99
69.95
71.79
71.14
71.77
74.47
76.60
73.83
62.67
43.14
19.24
-2.47
-15.57
-17.00
-8.09
6.27
20.74
31.65
39.00
44.47
49.41
53.21
53.05
45.71
29.64
6.79
-18.53
-40.93
-56.35
-63.64
-64.84
-64.02
-65.04
-70.35
-79.36
-90.10
-99.99
-106.52
-107.58
-101.55
-87.52
-65.73
-38.42
-9.22
17.41
37.72
50.16
55.54
56.38
55.34
53.72
50.76
44.18
32.01
13.98
-7.68
-29.04
-46.32
-57.84
-64.73
-70.34
-77.16
-84.48
-88.00
-81.75
-61.70
-28.91
9.88
44.25
64.39
65.41
49.46
24.62
1.56
-11.43
-11.57
-1.85
11.05
20.51
23.12
19.78
14.19
10.25
9.61
10.96
11.64
9.52
4.31
-2.33
-7.87
-10.65
-10.63
-9.65
-10.53
-16.18
-27.05
-41.33
-56.89
-70.88
-80.75
-85.13
-84.20
-79.71
-73.91
-69.13
-67.01
-67.91
-70.61
-72.94
-72.79
-69.00
-62.20
-54.37
-48.30
-46.62
-50.41
-58.47
-67.86
-74.66
-74.31
-65.40
-46.63
-18.54
15.21
47.46
68.84
70.98
50.58
13.14
-28.73
-59.42
-67.05
-48.31
-9.19
38.37
82.16
114.50
135.50
149.35
160.73
171.52
180.63
186.04
187.27
186.51
187.84
197.18
218.11
250.72
291.37
334.78
376.63
415.46
452.74
477.74
482.23
460.33
411.42
340.65
256.78
169.07
84.96
8.90
-57.88
-114.08
-158.94
-191.33
-210.43
-216.89
-214.11
-208.00
-205.43
-211.65
-226.09
-243.48
-256.00
-256.81
-242.81
-215.57
-179.97
-141.89
-106.31
-75.63
-51.22
-34.31
-26.02
-26.59
-34.45
-46.03
-56.73
-62.34
-59.85
-48.54
-30.25
-9.09
9.45
19.87
18.79
6.47
-12.82
-32.11
-44.74
-47.22
-40.22
-27.65
-14.19
-2.85
5.83
12.30
17.06
19.83
19.72
16.14
9.41
0.59
-9.07
-18.68
-27.93
-36.61
-44.17
-49.55
-51.35
-48.38
-40.05
-26.68
-9.75
8.06
23.28
32.34
32.82
24.72
10.94
-3.40
-12.83
-14.10
-7.56
3.20
13.21
18.60
18.04
12.59
4.54
-4.02
-11.93
-18.40
-22.38
-22.39
-17.17
-6.67
7.08
20.82
31.16
35.78
34.42
28.79
21.71
15.73
12.28
10.78
9.89
9.01
7.58
5.24
1.35
-5.05
-14.89
-27.85
-42.05
-52.35
-51.68
-34.53
-0.01
47.08
97.95
142.74
173.21
182.82
169.31
134.61
83.46
22.30
-41.65
-101.32
-151.10
-188.27
-215.05
-234.36
-247.71
-254.97
-254.84
-245.49
-225.04
-192.39
-138.40
-67.58
3.67
57.88
87.70
97.01
95.01
90.34
87.85
88.02
86.60
80.43
69.44
55.70
41.30
27.25
13.90
1.85
-8.17
-16.72
-23.03
-25.56
-23.56
-18.07
-11.88
-8.44
-10.88
-21.26
-41.60
-71.23
-106.92
-144.21
-178.87
-207.82
-228.55
-238.64
-231.33
-203.00
-152.50
-82.23
1.35
88.33
166.78
225.40
256.04
255.75
227.28
180.41
129.85
91.33
76.58
89.79
126.69
177.43
231.33
279.89
318.89
346.73
361.93
361.82
343.34
305.34
250.66
186.34
120.74
61.58
13.61
-22.21
-48.20
-68.29
-86.14
-103.57
-119.81
-133.38
-142.48
-146.18
-145.13
-141.54
-137.82
-135.11
-132.71
-128.45
-122.25
-115.56
-111.13
-111.60
-118.66
-131.91
-149.21
-167.93
-178.93
-176.45
-160.47
-136.78
-112.05
-90.00
-70.28
-51.00
-33.33
-15.77
0.44
13.25
21.26
25.00
26.62
30.19
40.65
60.62
88.75
119.56
146.55
163.29
167.80
156.16
127.13
83.97
34.20
-12.23
-43.07
-48.45
-26.45
15.49
62.57
98.94
112.51
98.03
58.31
0.57
-59.35
-104.27
-125.56
-126.40
-115.03
-98.46
-80.07
-60.44
-39.60
-18.74
-1.24
9.23
11.06
6.50
-0.06
-4.20
-3.53
2.19
11.30
20.41
26.24
27.24
24.70
21.58
20.89
24.34
32.16
43.19
55.06
65.15
71.62
74.35
74.08
71.67
67.57
61.76
53.95
43.61
30.93
16.39
1.20
-13.12
-25.28
-34.48
-40.51
-43.62
-44.49
-43.85
-42.43
-40.73
-38.89
-37.05
-35.28
-33.61
-32.00
-30.50
-29.00
-27.56
-26.23
-24.95
-23.80
-22.84
-22.05
-21.35
-20.61
-19.81
-18.96
-18.23
-17.51
-17.08
-17.19
-18.08
-19.83
-22.30
-25.25
-28.28
-31.74
-34.27
-35.13
-33.65
-29.28
-21.68
-10.73
3.20
19.26
36.03
52.00
65.39
74.63
78.81
77.66
71.67
61.89
50.02
36.88
23.36
9.91
-3.22
-15.68
-27.08
-36.77
-43.88
-47.81
-48.70
-47.12
-44.21
-42.10
-40.89
-40.55
-40.52
-39.66
-36.88
-31.87
-25.20
-18.74
-14.44
-16.05
-25.59
-42.03
-60.52
-73.60
-73.93
-57.42
-25.28
16.20
57.63
89.42
104.33
98.91
74.52
37.12
-3.87
-37.55
-54.65
-50.63
-27.49
6.71
40.33
63.43
70.26
61.05
40.92
17.48
-2.19
-13.54
-15.12
-8.17
4.37
18.80
31.76
40.76
44.03
40.22
28.79
10.30
-13.10
-38.05
-60.97
-79.32
-91.59
-97.80
-98.75
-95.23
-87.46
-75.08
-57.57
-33.89
-6.10
23.51
52.49
78.83
101.26
119.36
133.27
143.12
148.71
149.70
145.07
134.03
116.65
93.95
67.20
37.96
7.53
-23.04
-52.89
-80.19
-104.61
-126.54
-146.59
-164.75
-179.29
-186.58
-182.48
-164.78
-135.06
-99.27
-65.59
-41.49
-30.98
-33.35
-44.14
-57.64
-69.16
-76.17
-78.03
-75.38
-68.04
-55.83
-38.92
-17.75
6.93
34.61
64.84
97.15
131.42
166.98
201.13
228.90
243.97
241.18
219.51
183.43
141.69
104.56
79.26
66.95
63.21
60.97
53.49
37.59
13.99
-13.84
-41.03
-63.20
-77.81
-84.13
-84.14
-81.49
-79.71
-80.55
-83.02
-83.79
-78.22
-63.55
-40.19
-12.96
10.95
25.02
25.13
11.48
-10.99
-34.18
-49.87
-52.54
-41.91
-22.32
-0.85
15.46
22.30
18.77
7.57
-7.51
-23.22
-38.12
-51.72
-63.97
-74.56
-82.94
-87.77
-88.02
-83.20
-73.24
-58.47
-39.02
-14.57
15.55
50.64
87.89
121.34
142.71
146.27
129.29
96.24
57.55
25.01
6.02
0.36
0.92
-2.55
-16.46
-41.28
-71.58
-99.60
-120.19
-131.51
-134.28
-129.85
-118.66
-100.03
-73.82
-41.06
-5.45
28.54
56.73
76.51
87.55
91.52
91.40
89.85
88.46
87.45
86.00
82.97
77.68
70.38
62.13
54.43
48.41
44.41
42.02
40.32
38.33
35.35
31.36
26.79
22.41
18.83
16.36
14.89
13.99
13.56
12.88
11.72
10.16
8.50
7.10
6.26
6.08
6.52
7.34
8.33
9.37
10.49
11.86
13.81
16.54
20.32
24.23
26.95
27.00
23.13
14.89
2.96
-10.94
-24.56
-35.83
-43.61
-47.81
-49.37
-49.38
-48.29
-45.46
-39.48
-29.04
-13.88
4.45
22.77
37.04
44.06
43.05
36.01
26.74
18.90
14.53
13.22
12.98
11.74
8.46
3.19
-4.04
-14.36
-28.99
-46.95
-63.98
-71.11
-61.44
-35.33
-1.71
25.79
35.70
25.36
2.86
-17.48
-23.19
-10.75
13.12
35.47
45.75
41.08
26.49
10.47
-0.58
-5.65
-8.29
-13.47
-23.61
-37.16
-49.85
-57.27
-57.42
-51.21
-42.03
-33.49
-27.89
-24.93
-21.95
-15.16
-2.03
17.45
40.52
62.61
79.72
89.83
94.46
97.48
102.71
110.76
117.92
117.75
102.25
71.25
30.01
-12.21
-48.43
-73.22
-83.85
-79.37
-59.79
-27.00
13.78
52.92
78.71
81.22
57.15
11.46
-44.32
-95.11
-127.05
-135.39
-125.13
-105.32
-83.58
-63.26
-44.44
-26.38
-9.11
5.92
16.88
23.22
26.45
29.30
34.62
43.62
55.28
67.43
76.82
80.46
76.97
67.00
52.67
36.52
21.14
7.56
-4.36
-15.46
-26.61
-37.88
-48.27
-56.31
-60.69
-60.97
-58.02
-53.52
-49.47
-47.40
-47.76
-49.74
-51.82
-52.53
-51.08
-47.96
-44.54
-42.49
-43.00
-46.15
-50.78
-55.05
-57.42
-57.20
-55.04
-52.47
-51.16
-52.27
-56.26
-62.95
-71.50
-80.09
-85.74
-84.68
-73.74
-52.03
-22.04
10.82
40.12
61.01
71.87
74.27
71.39
65.83
58.74
49.99
39.66
29.11
21.02
18.37
23.30
36.42
56.46
80.29
103.01
118.87
123.16
114.13
94.19
69.34
46.96
32.82
28.72
32.52
39.99
47.26
52.34
55.19
56.36
55.94
53.01
46.15
34.36
17.63
-2.91
-25.74
-48.74
-70.49
-90.25
-106.53
-118.11
-123.87
-123.33
-116.79
-105.54
-91.64
-78.05
-67.83
-63.15
-64.23
-68.45
-71.01
-66.00
-50.94
-27.31
-0.62
22.06
35.47
38.47
34.29
28.02
23.83
22.62
22.55
21.03
16.76
10.85
6.40
6.53
12.69
24.54
40.32
57.91
75.19
89.79
99.14
100.21
92.20
76.83
58.33
41.71
30.80
26.58
27.29
30.06
32.36
33.67
34.40
34.58
32.78
26.16
11.58
-12.95
-46.37
-84.72
-121.20
-147.52
-156.49
-144.78
-114.46
-73.58
-34.33
-7.28
0.17
-13.37
-43.40
-81.69
-118.98
-147.15
-160.77
-157.43
-137.77
-105.84
-68.09
-31.76
-3.00
15.30
24.13
27.75
31.73
40.60
55.94
75.90
97.68
117.96
134.33
145.65
151.92
154.24
154.68
155.35
157.93
162.09
164.75
160.80
145.47
117.12
79.01
38.56
4.42
-17.21
-25.11
-23.10
-17.59
-14.67
-18.02
-28.48
-44.34
-62.33
-78.22
-87.47
-86.41
-74.07
-53.62
-31.87
-16.82
-14.16
-24.62
-43.85
-65.06
-82.43
-93.52
-98.65
-98.74
-93.08
-79.32
-55.71
-23.64
10.09
36.27
46.86
39.33
17.75
-9.24
-32.51
-46.41
-50.33
-47.60
-42.28
-37.02
-31.73
-24.37
-12.48
5.47
29.25
57.31
87.25
115.45
137.08
146.79
140.33
116.80
80.10
38.16
0.36
-25.97
-38.34
-39.17
-33.66
-27.05
-22.77
-21.96
-24.75
-30.57
-38.08
-44.84
-47.60
-43.74
-32.94
-18.46
-5.49
0.83
-2.10
-13.54
-30.21
-48.09
-64.07
-76.40
-84.23
-86.53
-82.30
-71.10
-53.65
-32.21
-9.73
10.78
27.63
40.84
51.82
62.15
72.69
83.22
92.37
98.47
100.37
99.03
95.01
90.04
85.71
82.61
80.02
76.35
70.31
61.21
49.88
38.16
28.44
22.72
22.32
27.71
37.68
50.65
62.91
69.25
64.90
47.85
20.13
-12.34
-42.06
-63.03
-72.94
-73.54
-68.94
-62.89
-57.24
-52.03
-46.50
-40.53
-35.12
-31.48
-30.25
-30.75
-31.25
-30.04
-26.04
-19.60
-11.99
-4.86
0.86
5.19
9.04
13.62
19.45
25.93
31.31
33.35
30.21
21.42
8.07
-7.71
-23.25
-36.75
-47.56
-56.13
-63.64
-71.39
-80.36
-90.70
-101.56
-109.97
-112.11
-104.29
-84.77
-55.24
-20.77
11.84
36.80
51.53
57.46
58.39
58.23
58.84
59.50
58.27
53.59
45.77
36.78
29.06
24.36
23.36
25.97
31.42
38.33
44.41
46.78
42.89
31.99
16.37
1.00
-8.34
-8.03
1.74
17.11
32.49
43.88
49.61
50.46
48.18
43.92
37.18
26.82
12.03
-6.71
-27.45
-47.77
-65.45
-79.48
-89.52
-95.69
-98.04
-97.09
-93.87
-89.56
-85.92
-83.83
-82.46
-79.32
-71.67
-57.90
-38.87
-17.82
1.33
15.51
23.32
24.68
19.86
9.42
-5.16
-20.30
-31.73
-35.37
-29.72
-16.80
0.07
17.11
32.56
47.02
61.97
77.00
88.98
92.81
85.16
67.13
44.44
24.96
14.77
15.34
23.21
32.77
39.36
41.73
42.00
43.40
48.03
55.68
64.22
70.94
74.16
73.78
70.72
66.56
62.15
57.29
50.67
40.74
26.26
7.28
-14.45
-36.48
-56.07
-71.28
-81.39
-87.29
-90.68
-93.58
-97.23
-101.60
-105.72
-107.93
-107.49
-103.66
-97.68
-91.57
-87.64
-87.56
-91.82
-99.77
-109.64
-119.45
-126.28
-127.77
-121.97
-107.42
-83.82
-51.87
-13.63
28.03
69.90
109.27
144.12
173.47
196.29
210.44
213.16
202.35
178.85
147.01
114.03
87.06
69.81
61.99
59.78
59.08
57.47
55.34
54.27
55.15
56.31
53.87
44.07
24.96
-2.32
-34.01
-65.88
-93.73
-113.60
-122.16
-117.28
-99.57
-73.64
-47.99
-30.55
-26.91
-37.16
-55.59
-73.98
-85.63
-88.64
-86.35
-84.16
-85.40
-88.68
-90.32
-84.00
-67.98
-45.22
-22.17
-5.89
-0.09
-3.53
-11.50
-18.23
-19.44
-14.58
-5.30
6.22
18.96
33.76
52.76
77.29
106.83
138.26
165.48
181.49
181.06
163.30
132.64
97.62
67.20
47.56
39.91
40.37
43.23
44.00
41.05
35.50
29.23
22.65
13.71
-1.23
-25.12
-56.91
-91.21
-119.33
-132.72
-126.97
-103.96
-71.04
-37.67
-11.71
3.33
6.88
0.06
-15.48
-37.06
-60.07
-77.85
-83.31
-73.33
-50.29
-21.87
3.23
18.58
22.65
17.94
8.72
-1.79
-12.50
-23.48
-34.47
-43.92
-49.88
-51.31
-48.63
-43.45
-37.89
-33.30
-29.58
-25.20
-17.58
-4.15
17.02
46.02
79.95
113.22
138.37
148.83
141.88
120.02
89.83
59.53
33.90
14.54
0.64
-9.09
-14.63
-14.90
-9.37
0.43
11.25
19.81
24.72
26.71
27.22
26.32
22.15
12.58
-2.57
-19.46
-31.70
-33.65
-23.72
-5.56
13.78
27.74
32.28
26.74
12.52
-8.36
-33.69
-60.69
-85.00
-101.63
-106.82
-99.77
-83.44
-63.52
-45.72
-33.41
-27.01
-24.73
-24.31
-24.38
-24.57
-24.75
-24.36
-22.34
-17.63
-10.40
-1.98
5.87
11.91
16.25
20.28
25.93
34.82
47.80
64.50
83.48
102.03
116.22
121.54
114.29
93.43
60.96
24.47
-7.24
-27.32
-33.53
-28.29
-16.85
-4.38
6.13
14.25
20.87
26.58
31.03
33.43
33.63
32.65
32.28
34.06
38.56
44.75
50.37
53.17
51.29
44.37
33.07
18.78
2.66
-14.64
-32.94
-52.34
-73.35
-96.49
-121.55
-146.69
-167.99
-180.12
-178.14
-160.05
-128.53
-90.70
-55.73
-31.21
-20.35
-21.33
-29.07
-38.09
-44.67
-47.64
-47.58
-45.17
-40.32
-31.87
-18.67
-0.38
22.29
47.60
72.99
96.99
119.31
140.44
160.41
177.34
187.02
184.88
168.75
139.74
103.62
68.39
39.68
18.79
2.70
-13.27
-31.30
-49.38
-62.36
-65.11
-56.98
-42.59
-29.38
-23.22
-25.36
-32.66
-40.62
-46.90
-52.63
-61.06
-74.19
-90.52
-105.36
-113.76
-113.90
-108.27
-101.81
-97.98
-96.64
-93.72
-84.45
-66.61
-42.27
-16.74
4.32
17.85
24.45
27.11
29.66
33.98
40.08
46.83
53.39
59.99
67.58
76.96
86.69
96.43
104.97
111.09
114.31
115.19
115.35
116.97
121.62
128.72
135.45
136.59
127.02
104.69
72.08
35.31
1.20
-25.30
-43.81
-55.18
-60.59
-59.83
-51.91
-37.09
-18.44
-1.29
9.11
10.37
4.20
-5.69
-16.25
-26.65
-37.70
-50.13
-62.62
-72.24
-76.45
-75.22
-71.87
-70.53
-72.99
-76.98
-77.03
-67.48
-47.70
-22.76
-1.27
8.89
4.82
-10.42
-29.87
-46.18
-55.19
-57.22
-54.96
-51.10
-46.72
-40.70
-30.78
-14.98
7.34
35.08
66.14
98.17
128.04
151.39
163.15
159.15
138.42
104.69
65.72
30.93
7.65
-1.77
-0.35
5.60
9.50
7.01
-3.29
-19.99
-39.69
-57.96
-70.41
-73.67
-66.20
-48.86
-25.26
-1.08
17.45
25.34
20.83
6.01
-13.89
-32.73
-45.67
-50.93
-49.67
-44.20
-35.84
-23.91
-6.68
16.72
43.19
66.83
81.21
82.48
71.36
52.52
31.88
14.11
0.68
-8.89
-15.53
-18.65
-16.24
-6.19
11.61
34.25
56.19
70.82
73.36
64.29
48.94
34.62
27.27
28.33
35.89
46.35
55.90
62.05
63.85
60.63
51.40
35.40
12.34
-16.26
-45.40
-70.73
-89.56
-101.30
-107.79
-112.15
-117.50
-126.62
-140.42
-157.31
-173.21
-181.78
-175.97
-151.35
-112.13
-64.13
-18.51
12.89
22.76
11.55
-12.61
-37.18
-51.16
-49.33
-32.74
-7.79
17.51
36.27
44.29
40.37
26.69
7.74
-11.09
-24.29
-28.05
-20.70
-2.85
24.31
56.27
86.77
108.88
116.49
105.33
76.77
39.63
6.94
-10.65
-9.76
5.73
27.97
49.57
66.53
78.24
86.20
92.21
97.09
100.89
103.53
105.42
107.09
109.04
111.22
111.80
108.88
101.37
89.43
74.78
60.32
49.31
44.66
46.54
53.33
62.48
71.65
79.17
84.35
87.16
87.90
86.36
79.14
62.90
34.59
-6.74
-59.70
-120.88
-185.76
-249.71
-296.36
-314.60
-303.19
-271.39
-232.41
-196.41
-167.93
-147.15
-132.02
-119.32
-106.92
-91.88
-70.84
-42.20
-8.49
23.27
44.42
49.30
38.49
17.03
-7.33
-28.06
-42.57
-52.20
-59.82
-67.04
-72.92
-74.91
-72.32
-67.00
-62.48
-62.34
-68.73
-81.72
-99.45
-118.16
-132.89
-138.87
-132.64
-113.48
-84.65
-52.76
-25.55
-8.94
-4.61
-9.57
-18.17
-25.36
-27.31
-23.19
-13.91
-0.48
17.14
39.71
67.80
100.58
134.91
167.24
194.62
216.01
232.24
244.40
252.01
252.20
240.68
214.45
174.67
127.09
80.64
43.95
21.92
14.15
16.08
21.59
25.80
26.75
24.73
21.53
18.97
18.40
20.38
24.74
30.85
36.87
40.69
39.64
31.52
16.11
-4.12
-24.09
-37.67
-40.14
-30.71
-13.73
2.05
7.32
-3.79
-30.54
-65.51
-97.64
-116.65
-117.21
-99.63
-70.67
-38.87
-11.62
7.21
16.10
15.59
7.91
-3.56
-14.72
-22.22
-24.33
-22.24
-19.40
-19.51
-24.79
-35.12
-48.68
-63.34
-77.85
-91.70
-104.53
-115.61
-123.76
-127.95
-127.95
-124.98
-119.81
-113.09
-104.42
-92.48
-75.62
-52.89
-24.70
6.92
38.55
67.03
90.02
106.67
117.52
124.00
127.60
129.27
129.11
126.98
122.91
117.30
111.18
105.77
102.04
100.20
100.04
99.84
98.60
96.04
92.71
89.62
87.60
87.10
88.22
90.99
95.29
100.40
104.38
104.05
96.16
78.92
53.74
25.07
-1.25
-20.48
-30.83
-34.04
-33.93
-34.33
-37.81
-45.26
-56.57
-71.53
-90.25
-113.09
-139.44
-166.60
-189.61
-202.43
-200.10
-181.49
-150.68
-114.96
-83.12
-61.74
-52.84
-53.96
-60.26
-67.42
-73.48
-78.75
-84.12
-89.87
-94.29
-94.56
-88.34
-74.88
-55.41
-32.47
-8.95
13.22
33.03
50.80
67.42
83.29
97.93
109.88
117.49
119.67
116.66
110.47
103.44
98.06
95.84
96.71
99.11
100.77
100.03
96.27
90.43
84.39
80.13
78.82
80.81
85.60
92.03
98.11
100.99
97.35
84.69
62.90
34.96
6.43
-16.79
-30.95
-35.84
-34.35
-30.59
-27.70
-26.94
-27.91
-30.15
-34.20
-41.59
-54.00
-72.04
-94.93
-120.34
-144.38
-162.04
-168.52
-160.80
-139.18
-108.27
-75.00
-46.80
-28.58
-20.93
-20.69
-23.31
-25.55
-26.92
-29.27
-34.97
-44.77
-56.82
-67.38
-72.49
-69.78
-59.32
-43.33
-25.24
-7.86
7.53
21.32
35.03
50.25
67.33
85.19
101.89
115.89
126.68
134.17
137.26
134.01
121.18
97.66
66.79
35.63
13.07
5.36
12.67
28.61
43.96
51.43
49.51
42.09
34.65
30.05
26.04
17.00
-1.90
-29.70
-59.82
-82.77
-90.87
-82.63
-62.58
-38.84
-19.15
-7.44
-3.52
-5.18
-10.42
-18.63
-30.17
-44.34
-58.39
-67.95
-69.45
-62.20
-49.18
-35.64
-26.35
-23.58
-25.95
-30.04
-32.18
-30.19
-23.93
-14.54
-3.36
8.65
20.83
32.41
41.85
47.42
47.85
42.66
32.73
20.00
6.86
-4.42
-12.16
-16.10
-16.82
-15.11
-11.54
-6.11
1.70
12.42
26.16
42.33
58.83
73.09
82.92
87.19
86.20
81.55
75.26
67.36
59.32
50.63
39.75
25.62
8.23
-10.85
-28.58
-42.49
-50.56
-51.50
-45.20
-32.39
-14.67
4.87
21.38
29.74
26.77
13.10
-6.69
-26.18
-39.63
-44.13
-40.28
-30.92
-19.18
-7.09
4.54
14.67
21.33
21.87
13.88
-3.67
-29.57
-59.63
-87.38
-105.68
-109.31
-97.09
-72.75
-43.84
-18.74
-3.42
0.85
-2.90
-9.70
-15.45
-18.70
-19.99
-20.29
-19.54
-16.16
-7.82
7.16
29.02
56.00
85.21
112.42
132.53
140.38
132.51
108.97
74.24
36.12
3.37
-17.69
-25.19
-21.71
-12.17
-1.10
8.80
16.73
22.43
24.77
21.56
11.34
-4.65
-21.87
-34.24
-37.37
-31.49
-21.97
-16.64
-21.51
-37.19
-57.75
-74.43
-79.74
-71.09
-51.33
-26.36
-1.84
18.89
34.95
46.67
54.15
57.06
55.20
48.67
38.14
24.46
8.56
-8.67
-26.48
-44.69
-63.30
-82.00
-99.54
-113.11
-118.62
-112.33
-92.82
-62.41
-26.92
6.43
31.77
46.35
50.79
47.82
40.29
29.98
17.78
4.71
-7.43
-15.59
-16.81
-9.33
6.33
27.04
47.58
62.14
66.33
59.25
44.70
29.43
20.18
20.51
28.98
39.71
45.72
41.90
27.94
8.56
-8.88
-17.81
-15.19
-2.22
15.49
31.54
40.07
37.50
23.37
-0.03
-28.15
-55.09
-74.41
-81.83
-75.95
-58.58
-33.84
-6.81
18.01
37.73
51.54
59.08
60.00
54.43
42.79
26.10
6.03
-15.47
-36.80
-57.41
-77.36
-96.24
-112.01
-121.00
-119.23
-104.52
-78.10
-45.05
-12.58
12.78
27.44
31.33
26.91
17.52
5.80
-6.22
-16.62
-23.28
-23.69
-15.75
1.31
26.14
55.02
82.12
101.03
107.12
99.24
81.04
59.67
42.71
34.99
36.47
41.95
44.56
38.98
23.98
3.46
-15.59
-26.62
-26.44
-16.05
-0.63
14.46
24.91
28.19
23.68
11.71
-6.49
-28.30
-49.26
-63.92
-67.58
-58.22
-37.74
-11.17
15.21
36.31
50.06
56.11
55.07
48.10
36.05
19.72
0.19
-21.14
-43.27
-65.80
-88.66
-110.97
-129.91
-140.93
-139.48
-123.26
-94.22
-58.69
-25.25
-1.43
9.30
8.08
-0.65
-11.78
-21.64
-28.67
-32.77
-33.85
-31.52
-25.00
-13.79
1.92
21.35
43.37
66.76
90.05
111.15
127.00
134.26
130.39
115.24
91.40
63.29
35.95
13.79
-0.81
-6.19
-1.86
10.96
28.90
46.69
58.49
60.71
53.53
40.97
28.61
20.13
15.26
10.05
0.40
-14.99
-32.29
-45.03
-47.63
-38.81
-22.32
-4.46
8.39
12.69
8.00
-3.93
-21.50
-43.71
-69.18
-94.84
-115.45
-125.26
-120.45
-101.49
-73.52
-44.64
-22.32
-10.61
-9.39
-15.26
-24.40
-34.28
-44.19
-54.03
-63.44
-70.44
-72.50
-67.98
-56.67
-40.29
-21.52
-3.08
13.81
29.15
44.05
59.73
76.22
92.47
106.83
117.84
124.94
128.48
128.93
126.44
121.72
114.06
104.20
93.83
84.55
76.64
68.88
59.22
46.22
30.13
13.21
-0.66
-8.11
-8.24
-3.45
1.48
1.20
-6.96
-21.86
-39.32
-53.71
-60.48
-58.46
-49.46
-37.14
-24.87
-14.43
-6.46
-1.71
-1.45
-7.68
-22.21
-44.97
-72.77
-99.41
-117.56
-121.31
-109.30
-85.50
-57.81
-34.84
-22.21
-20.48
-25.87
-33.04
-37.88
-39.75
-40.14
-40.69
-41.32
-39.64
-32.51
-17.68
4.79
33.22
64.30
93.47
115.51
124.94
118.01
95.01
62.65
30.69
10.77
10.40
29.61
60.85
92.51
114.40
121.75
115.79
100.21
81.14
61.50
41.73
22.33
4.38
-9.24
-16.31
-17.45
-17.06
-20.84
-33.01
-53.22
-75.93
-93.05
-97.82
-88.14
-67.22
-41.70
-17.96
0.08
11.90
19.13
23.60
26.02
25.78
21.63
12.46
-2.15
-21.88
-45.35
-69.75
-90.53
-102.07
-99.82
-82.61
-53.94
-21.25
7.17
25.02
30.73
27.26
19.83
13.11
9.30
8.81
11.24
16.30
23.38
30.98
36.55
37.15
31.58
21.25
9.69
0.95
-2.01
1.66
11.19
24.68
40.14
55.04
66.17
70.31
64.55
47.52
20.13
-14.13
-49.38
-78.56
-94.52
-93.77
-76.55
-49.18
-22.29
-6.73
-8.38
-25.20
-48.07
-64.59
-66.30
-51.80
-27.05
-1.03
19.28
31.79
39.51
46.02
53.05
58.81
59.52
51.36
32.94
5.85
-26.22
-58.47
-86.18
-104.94
-111.52
-104.50
-85.47
-59.04
-31.82
-10.38
1.57
4.29
1.50
-1.66
-1.21
4.56
15.09
28.36
41.52
51.73
56.50
54.71
47.66
38.56
31.29
28.35
29.53
31.89
31.32
24.81
12.59
-1.59
-12.06
-14.10
-6.25
8.21
22.90
31.29
29.58
18.59
3.01
-11.23
-19.93
-21.34
-15.99
-5.58
7.71
21.37
32.42
37.44
34.31
23.69
9.38
-3.50
-10.54
-10.09
-3.42
6.52
16.83
26.04
33.99
40.42
44.52
44.70
39.48
28.38
12.12
-8.13
-31.03
-55.45
-79.84
-101.19
-115.00
-116.69
-104.04
-79.04
-48.03
-19.14
0.70
8.58
6.30
-1.42
-9.61
-15.20
-16.96
-14.45
-6.85
6.50
24.88
44.95
61.20
68.85
66.02
54.94
40.70
28.36
20.24
15.89
13.55
12.02
11.72
13.79
18.46
24.37
28.65
28.89
24.56
17.29
9.65
4.28
2.83
5.32
10.68
16.66
20.24
18.51
10.02
-4.06
-19.24
-29.40
-29.86
-19.50
-1.35
19.41
37.33
49.47
54.98
54.35
48.53
38.06
23.41
5.18
-15.21
-35.73
-54.81
-71.41
-85.46
-97.70
-109.49
-121.75
-134.17
-144.21
-147.47
-139.59
-118.71
-87.12
-50.99
-18.19
5.11
16.36
17.21
12.01
5.30
-0.01
-2.78
-2.59
1.20
9.81
24.03
43.24
64.80
85.00
100.28
108.30
108.70
103.05
94.12
85.02
78.57
76.31
77.95
80.97
80.96
73.21
55.00
27.43
-4.63
-34.35
-55.91
-66.75
-68.18
-63.24
-56.19
-49.45
-43.06
-35.70
-26.34
-15.03
-2.72
9.53
21.13
32.07
42.46
52.10
60.20
65.95
68.35
66.96
61.64
52.60
39.99
23.93
4.65
-17.21
-40.86
-65.63
-90.59
-113.94
-132.50
-142.16
-139.14
-121.82
-92.30
-56.35
-21.44
6.13
23.28
30.47
30.39
25.93
18.90
9.92
-0.59
-11.50
-20.47
-24.76
-21.93
-11.17
5.70
24.44
39.10
44.51
38.54
23.38
5.02
-9.13
-13.82
-8.33
3.58
15.95
23.64
25.02
21.30
15.25
9.15
3.68
-1.73
-7.84
-14.27
-19.88
-22.77
-21.18
-14.31
-2.68
11.98
27.37
41.31
52.36
59.98
64.70
67.61
70.00
72.38
74.06
73.65
69.37
59.87
44.73
24.68
0.97
-24.88
-51.65
-77.74
-100.39
-115.66
-119.51
-109.60
-87.14
-57.22
-26.28
-0.78
15.49
22.07
21.13
15.49
7.43
-1.86
-11.63
-20.45
-26.07
-25.77
-17.54
-1.89
17.40
34.36
42.69
39.02
24.45
4.18
-14.57
-26.05
-28.38
-24.13
-18.14
-14.71
-15.36
-18.74
-22.24
-23.74
-23.01
-21.37
-20.82
-22.64
-26.74
-31.65
-35.16
-35.37
-30.60
-21.15
-8.09
6.87
21.86
35.49
47.17
56.98
65.46
73.30
80.41
86.38
90.44
90.86
86.28
75.78
59.03
35.92
6.99
-26.00
-58.97
-86.16
-102.05
-103.44
-91.35
-70.92
-49.45
-33.32
-25.66
-25.67
-30.40
-36.98
-43.94
-51.52
-60.03
-68.56
-74.96
-76.11
-70.13
-57.02
-38.80
-17.64
5.16
30.06
57.77
87.77
116.94
140.10
152.12
149.79
132.84
103.22
64.44
20.96
-21.67
-56.94
-78.64
-83.28
-72.46
-52.85
-34.19
-24.71
-27.34
-38.53
-50.32
-54.17
-44.70
-21.52
11.24
46.04
73.98
88.46
87.08
72.35
50.70
29.98
15.73
9.23
7.86
5.88
-1.65
-17.18
-40.57
-69.55
-100.33
-128.40
-149.25
-159.56
-158.26
-146.73
-128.15
-106.08
-83.01
-59.69
-35.79
-11.23
13.13
35.55
53.01
65.67
75.95
87.20
101.65
118.69
134.95
146.02
148.25
140.82
126.36
109.86
96.67
90.34
91.66
98.66
108.25
116.48
119.25
112.59
93.78
63.29
25.67
-9.52
-34.55
-43.10
-34.17
-12.94
11.44
29.87
37.29
33.83
23.73
12.67
5.34
2.36
2.71
3.39
-0.26
-9.43
-22.21
-34.72
-43.00
-44.54
-39.68
-30.98
-21.82
-14.19
-8.30
-3.93
-1.54
-3.19
-11.99
-30.65
-59.21
-93.71
-126.69
-149.05
-153.49
-138.05
-107.18
-70.12
-37.30
-15.86
-7.47
-8.42
-12.77
-16.10
-17.68
-19.43
-24.02
-31.74
-39.63
-42.94
-37.20
-20.17
7.46
42.14
78.42
109.95
130.87
137.66
130.28
112.93
92.24
75.41
64.88
59.34
54.25
43.87
24.41
-3.42
-34.10
-59.57
-72.59
-70.17
-55.25
-32.99
-10.21
6.92
14.68
12.75
3.44
-9.23
-21.02
-28.40
-29.31
-23.75
-13.38
-0.52
12.31
22.86
28.93
28.31
18.74
-1.02
-30.06
-65.97
-104.79
-141.46
-170.49
-186.69
-186.50
-169.70
-139.76
-103.72
-70.23
-46.08
-33.81
-31.14
-33.02
-33.73
-30.35
-22.77
-12.58
-1.35
11.28
27.22
48.60
75.51
106.53
139.00
169.74
195.18
211.41
214.81
202.96
176.19
138.68
98.29
63.58
40.70
31.43
31.48
34.07
32.23
21.36
0.93
-25.19
-50.75
-69.43
-77.12
-73.05
-59.48
-40.73
-21.70
-6.48
2.13
2.57
-5.13
-19.30
-35.61
-48.44
-52.87
-46.34
-29.67
-6.45
18.24
40.71
57.92
67.23
66.85
55.77
34.29
4.10
-31.67
-68.79
-103.25
-131.01
-148.40
-152.28
-141.70
-118.78
-88.76
-58.23
-32.88
-15.86
-7.37
-5.88
-9.18
-16.22
-25.64
-35.26
-41.30
-39.16
-25.00
2.72
41.95
86.86
128.30
156.90
166.02
154.31
126.78
92.83
63.84
45.27
37.44
35.35
31.64
20.35
0.46
-23.41
-43.27
-51.34
-43.91
-22.50
6.53
34.43
53.14
57.50
46.41
22.43
-8.96
-41.15
-65.71
-76.84
-73.20
-57.16
-32.96
-5.08
22.87
48.62
70.57
85.93
91.59
85.44
67.46
39.74
5.13
-33.55
-72.30
-107.15
-133.50
-146.54
-143.04
-123.25
-91.81
-56.67
-26.18
-5.85
2.55
0.95
-6.91
-17.49
-28.61
-37.48
-40.49
-33.72
-15.13
13.39
45.91
73.92
90.15
91.41
79.76
60.99
41.49
25.70
15.11
9.01
5.98
4.94
5.88
8.43
11.54
13.42
12.20
6.88
-2.54
-14.98
-29.03
-42.63
-54.16
-60.98
-60.42
-50.53
-30.99
-3.94
25.96
52.14
67.15
67.66
56.59
41.19
29.86
28.17
36.54
51.20
66.32
76.61
79.09
72.91
57.89
33.59
-0.28
-42.48
-87.44
-127.05
-152.96
-159.33
-145.62
-117.59
-84.97
-57.28
-40.25
-34.45
-36.71
-42.54
-49.25
-55.07
-59.20
-60.38
-56.05
-42.56
-16.72
22.20
70.81
120.63
160.70
181.10
177.02
151.46
114.55
79.43
56.64
49.79
55.19
64.67
70.50
68.07
57.09
39.59
18.03
-5.52
-28.94
-49.02
-62.24
-66.70
-63.92
-58.33
-55.40
-58.35
-65.50
-71.96
-71.57
-60.99
-41.71
-18.56
3.78
23.14
40.37
56.77
71.04
79.28
76.75
60.22
29.40
-12.60
-60.33
-106.24
-143.55
-167.46
-175.82
-169.94
-154.14
-134.52
-116.54
-103.19
-94.19
-88.10
-82.29
-76.00
-70.05
-64.97
-59.47
-49.82
-31.64
-2.02
37.14
80.37
121.23
154.26
175.70
183.10
175.04
151.83
117.85
82.41
57.34
51.16
63.67
84.69
99.08
97.22
77.89
50.79
30.60
27.68
41.66
61.70
73.14
66.29
41.18
6.79
-24.42
-43.06
-46.31
-37.04
-20.34
-0.75
19.96
40.45
58.38
69.87
70.88
59.80
38.92
13.89
-8.88
-24.36
-32.72
-36.99
-41.40
-49.09
-60.19
-71.72
-79.08
-78.42
-69.06
-54.81
-41.75
-35.27
-37.76
-47.69
-61.25
-74.39
-84.94
-92.71
-97.88
-99.83
-96.90
-86.97
-68.43
-41.79
-9.07
25.65
57.61
83.60
102.54
115.40
124.44
131.97
138.90
144.01
144.45
136.83
119.44
93.38
62.46
31.69
6.14
-13.08
-26.17
-33.82
-36.23
-32.81
-23.18
-8.90
5.86
15.61
16.51
7.73
-7.37
-22.41
-30.64
-28.75
-18.26
-5.51
2.11
-0.13
-11.44
-26.00
-36.28
-36.85
-27.05
-11.38
4.22
14.66
17.61
13.94
5.77
-5.73
-21.27
-42.54
-69.40
-98.53
-123.25
-135.74
-130.40
-107.20
-72.47
-36.44
-9.49
1.89
-3.03
-19.36
-39.49
-55.86
-63.42
-60.66
-48.96
-31.04
-9.17
14.97
39.96
62.80
78.82
83.28
74.58
56.97
39.89
33.62
42.45
61.64
80.39
87.30
77.89
57.53
38.59
32.72
44.20
67.02
89.07
99.58
94.57
78.22
58.97
44.24
34.68
27.16
15.29
-6.12
-35.99
-67.45
-90.27
-97.08
-86.35
-63.26
-36.50
-14.16
-0.22
6.97
10.93
14.44
17.32
16.77
9.02
-8.39
-35.45
-69.03
-103.68
-132.86
-150.22
-151.42
-135.71
-106.69
-71.40
-38.06
-13.35
-0.22
2.14
-3.21
-12.94
-24.58
-36.72
-48.22
-57.24
-61.54
-59.19
-49.48
-33.23
-12.26
10.69
33.10
53.05
69.56
82.89
94.45
105.71
117.14
127.38
133.63
133.48
126.45
114.85
102.77
94.19
90.52
89.97
88.68
83.00
71.91
57.44
43.64
34.21
30.58
30.66
29.74
22.83
5.03
-22.97
-54.87
-80.79
-92.31
-86.97
-68.91
-45.96
-25.03
-9.51
3.63
17.73
33.51
47.76
54.82
49.28
28.06
-8.34
-54.30
-100.99
-139.34
-161.61
-163.49
-145.32
-112.17
-73.03
-37.16
-11.25
2.99
8.00
9.85
13.37
21.26
34.35
48.92
61.06
67.27
65.52
55.93
42.50
30.86
26.12
30.13
41.13
55.52
69.75
82.63
94.59
106.78
118.37
127.02
129.61
124.16
111.21
92.45
70.80
48.26
27.13
7.74
-10.52
-28.76
-46.82
-62.90
-79.38
-93.76
-104.08
-109.21
-109.09
-104.17
-95.67
-84.34
-70.60
-56.61
-44.56
-37.62
-38.85
-51.38
-72.64
-101.75
-137.44
-169.74
-191.73
-199.81
-195.73
-184.40
-171.25
-160.40
-154.64
-153.55
-153.35
-148.85
-133.86
-104.74
-62.68
-14.12
31.42
64.89
82.17
85.12
79.00
69.62
61.36
56.58
56.68
63.41
78.32
101.70
130.57
156.71
171.33
169.14
151.19
124.36
98.40
81.58
77.84
86.03
101.35
117.60
128.88
131.12
121.46
98.38
62.14
15.90
-33.53
-75.82
-100.89
-105.15
-89.92
-63.35
-38.04
-26.05
-33.35
-57.07
-87.19
-108.87
-111.78
-93.61
-60.38
-22.02
13.04
41.15
63.28
82.40
98.97
109.99
110.99
98.43
71.58
32.72
-13.66
-61.29
-104.83
-139.99
-163.40
-172.24
-165.51
-145.10
-116.23
-85.62
-59.51
-41.75
-32.89
-31.14
-33.83
-39.52
-46.33
-52.19
-53.64
-47.04
-30.04
-2.58
33.09
73.05
113.01
149.37
178.74
197.62
202.60
191.69
166.57
132.91
98.59
70.35
51.64
39.47
29.50
18.73
7.69
0.02
-0.29
7.62
20.07
30.34
32.41
24.80
11.08
-2.49
-10.67
-12.59
-11.94
-14.33
-23.38
-37.67
-50.87
-55.42
-47.00
-26.60
0.48
27.21
49.21
63.84
69.99
67.32
55.35
33.29
0.64
-41.48
-88.30
-132.78
-166.92
-183.99
-180.85
-159.64
-127.59
-94.21
-67.36
-50.82
-43.99
-43.64
-46.45
-51.18
-57.16
-63.36
-67.21
-64.44
-50.95
-24.73
13.22
58.78
104.93
144.04
169.51
177.31
167.37
143.88
114.10
86.01
65.26
53.29
47.38
43.13
36.37
26.47
16.06
9.57
10.53
19.04
31.26
40.64
41.06
29.70
9.89
-11.68
-27.36
-32.06
-25.69
-14.24
-6.02
-7.31
-18.94
-35.60
-48.23
-48.88
-34.95
-11.06
14.10
32.10
37.90
30.97
13.92
-10.18
-38.81
-69.78
-98.94
-121.31
-132.31
-129.80
-115.18
-93.48
-71.63
-55.33
-47.70
-49.17
-58.29
-72.64
-89.72
-105.28
-114.41
-113.24
-99.63
-74.62
-42.40
-8.40
22.88
48.92
70.26
89.26
108.03
128.13
149.48
170.60
188.59
198.92
196.47
177.49
144.71
101.82
58.15
24.69
9.12
12.36
27.45
43.77
52.28
49.39
37.45
23.48
14.91
14.76
23.91
38.10
50.59
55.20
48.96
32.86
11.75
-7.90
-20.78
-24.73
-21.57
-14.69
-7.56
-2.11
0.63
-0.00
-5.56
-18.59
-41.06
-72.49
-107.54
-137.68
-154.07
-151.38
-130.46
-98.32
-65.35
-40.78
-29.28
-29.81
-37.52
-46.70
-53.71
-57.24
-57.34
-54.07
-46.75
-33.91
-14.10
13.22
46.89
83.40
116.97
140.58
147.95
136.29
108.46
72.65
39.26
16.95
9.33
14.19
25.60
37.44
45.24
46.79
41.30
28.45
9.04
-14.34
-36.90
-52.78
-57.14
-48.68
-30.02
-7.35
11.73
20.93
17.12
1.24
-22.00
-44.85
-60.02
-62.83
-52.74
-32.92
-8.57
14.94
34.57
48.59
55.86
55.27
45.96
27.76
1.64
-30.32
-64.92
-98.66
-127.48
-146.98
-153.22
-144.22
-121.56
-90.39
-58.14
-32.05
-16.62
-12.93
-18.84
-30.68
-44.95
-59.26
-71.14
-78.09
-77.70
-68.01
-48.30
-19.99
12.60
42.69
63.18
70.14
64.95
54.37
47.11
48.95
59.65
72.44
78.17
71.40
53.94
33.48
18.92
15.02
19.85
27.02
29.24
22.96
10.39
-1.91
-7.16
-1.32
16.00
38.53
62.09
84.09
103.08
117.38
124.41
120.13
101.39
68.49
26.39
-16.47
-52.80
-78.80
-97.09
-110.79
-121.90
-129.43
-129.89
-120.27
-100.71
-77.70
-62.31
-63.42
-83.19
-117.04
-153.77
-184.51
-204.28
-212.65
-212.23
-208.87
-205.49
-200.24
-189.40
-168.50
-133.89
-87.14
-33.16
23.22
75.06
118.44
155.39
190.76
215.45
220.93
204.53
172.22
154.17
153.67
164.12
182.70
199.32
212.19
223.95
239.19
262.37
298.58
344.00
387.02
418.36
433.38
433.41
423.38
408.96
370.43
301.44
234.88
176.57
113.35
30.71
-67.76
-165.33
-241.83
-285.04
-291.55
-270.68
-240.23
-213.05
-190.89
-171.44
-153.66
-139.07
-131.55
-132.60
-144.32
-170.50
-204.43
-231.47
-237.91
-218.70
-178.72
-129.90
-83.64
-48.64
-31.01
-29.02
-36.61
-47.68
-59.51
-70.16
-77.00
-75.56
-61.11
-32.63
8.79
58.28
103.93
129.74
125.18
92.50
47.48
14.38
6.66
26.85
65.65
105.62
129.06
126.52
100.07
57.20
10.88
-26.93
-47.07
-45.04
-22.07
15.09
55.76
87.81
99.95
85.02
41.59
-24.27
-99.30
-162.12
-194.45
-191.96
-162.91
-119.15
-69.70
-20.88
21.31
55.36
78.43
87.99
83.93
69.54
49.57
27.60
4.27
-19.67
-43.58
-68.49
-96.11
-126.31
-154.28
-171.22
-168.04
-140.07
-89.85
-27.04
33.87
79.64
102.95
105.01
93.28
77.63
66.34
63.88
71.15
85.02
100.06
109.68
108.51
93.54
66.02
32.43
3.38
-9.89
-0.70
30.41
74.61
118.87
149.23
155.04
131.13
80.53
13.70
-55.31
-111.93
-146.12
-152.71
-134.15
-100.29
-65.63
-44.89
-48.99
-82.58
-141.37
-215.96
-281.77
-313.22
-296.65
-238.21
-156.92
-72.09
-2.72
52.11
94.50
125.68
144.10
147.21
133.25
103.18
61.69
15.96
-25.97
-60.93
-89.08
-112.97
-133.88
-149.25
-152.69
-137.51
-101.80
-49.87
6.89
56.16
88.82
101.90
98.17
84.18
67.00
50.91
38.39
30.38
28.87
36.45
54.57
81.01
109.76
131.86
138.38
126.29
99.79
69.24
46.44
39.34
48.35
67.69
88.93
104.89
111.33
106.73
91.48
66.65
34.54
-1.52
-35.33
-58.85
-66.41
-57.56
-38.95
-21.93
-17.95
-33.04
-66.46
-110.32
-146.92
-161.21
-146.91
-109.04
-59.13
-12.65
26.47
57.04
78.74
91.00
91.72
78.82
50.54
8.53
-41.45
-91.06
-134.66
-170.51
-199.96
-225.59
-247.36
-262.05
-263.27
-245.59
-208.35
-158.58
-107.86
-67.33
-44.78
-38.04
-41.10
-45.61
-44.74
-34.78
-15.78
10.54
41.72
73.92
103.04
124.48
136.40
140.06
139.46
139.30
142.80
150.06
158.90
169.30
177.41
181.81
182.67
180.42
174.43
163.22
145.40
121.89
95.58
69.80
48.59
35.01
31.08
37.89
56.27
80.94
107.55
129.37
137.84
127.02
96.51
52.54
6.01
-32.01
-54.89
-61.57
-56.51
-46.93
-38.16
-32.94
-32.33
-37.41
-50.04
-71.99
-101.67
-132.29
-154.55
-160.17
-145.65
-114.33
-75.30
-39.37
-15.02
-5.04
-7.16
-16.55
-28.08
-38.11
-44.07
-44.24
-36.96
-20.61
6.01
41.87
82.19
118.25
140.64
143.61
127.25
97.96
65.90
40.69
27.56
25.92
31.28
38.65
45.44
51.56
58.47
67.28
77.18
85.65
89.51
86.55
75.97
58.80
36.57
11.16
-15.56
-42.01
-66.68
-87.98
-104.15
-113.99
-116.27
-111.26
-100.12
-84.89
-68.65
-55.13
-48.71
-49.60
-60.34
-77.03
-96.57
-115.69
-132.03
-144.31
-151.86
-154.69
-153.33
-149.37
-144.10
-139.67
-137.97
-140.26
-145.79
-151.20
-150.90
-139.00
-112.66
-73.35
-28.11
13.36
42.60
55.78
54.59
44.58
32.04
20.97
12.36
5.78
1.11
-0.51
3.11
13.91
32.28
56.88
84.81
113.26
140.28
164.07
182.06
190.42
185.12
164.10
128.90
84.67
38.77
-1.67
-31.40
-47.31
-48.04
-33.75
-6.32
30.16
69.62
105.64
132.88
147.94
149.56
137.89
114.17
80.84
42.67
5.83
-23.72
-42.52
-51.60
-54.12
-53.53
-51.63
-48.13
-41.93
-32.77
-21.74
-11.18
-3.21
1.70
4.51
6.57
8.05
7.31
1.89
-9.27
-24.41
-38.72
-46.10
-42.31
-27.24
-5.33
16.10
30.22
33.99
28.77
18.25
6.24
-5.45
-16.94
-28.91
-41.14
-52.33
-60.89
-66.11
-68.52
-69.65
-70.89
-72.36
-72.70
-69.46
-60.07
-43.24
-19.71
7.83
35.44
59.68
78.67
92.34
101.93
109.29
116.15
123.74
132.10
139.76
143.60
139.50
124.09
96.76
60.83
22.73
-10.20
-32.98
-44.62
-47.71
-46.40
-43.60
-39.77
-33.48
-23.47
-10.19
3.77
14.94
20.99
21.81
19.63
17.32
17.14
19.10
21.19
20.12
12.86
-1.90
-23.74
-49.96
-76.09
-96.72
-106.48
-101.52
-81.16
-49.08
-12.78
17.82
33.91
31.47
12.11
-17.17
-46.55
-67.00
-73.50
-64.75
-44.76
-18.60
9.37
35.99
60.00
79.76
93.32
98.31
93.51
79.40
58.87
35.99
14.46
-3.23
-16.71
-26.95
-35.84
-44.88
-54.99
-65.55
-75.46
-83.55
-88.93
-92.12
-92.57
-90.50
-85.98
-78.97
-68.84
-55.00
-37.15
-15.57
8.64
33.72
56.95
75.46
86.67
89.06
82.44
68.15
48.65
26.72
5.18
-14.68
-32.57
-48.91
-63.98
-77.80
-90.09
-100.79
-110.32
-118.47
-124.13
-124.81
-117.61
-100.87
-75.74
-46.27
-18.20
3.06
14.84
17.43
13.82
7.67
2.26
0.02
2.79
12.25
29.83
56.05
89.11
124.50
155.35
174.43
176.58
161.33
133.88
103.13
78.36
64.42
60.79
61.49
58.79
46.79
24.50
-3.55
-29.77
-46.77
-50.50
-41.34
-23.75
-4.41
9.93
14.61
8.56
-5.74
-23.25
-37.92
-45.02
-42.63
-31.83
-15.57
2.80
20.64
36.38
48.65
55.76
55.44
45.87
26.52
-1.28
-34.62
-69.78
-102.82
-129.43
-145.44
-147.79
-135.64
-111.74
-82.02
-54.00
-34.10
-25.24
-26.27
-33.27
-41.68
-48.17
-51.65
-51.89
-48.98
-42.81
-32.78
-18.34
0.58
23.40
49.05
75.67
101.94
126.96
149.90
169.33
182.83
187.13
179.32
159.14
129.83
97.72
69.52
49.67
37.14
27.60
15.30
-3.15
-26.49
-49.28
-64.47
-67.12
-56.86
-38.06
-17.82
-3.42
0.36
-7.32
-23.21
-41.55
-55.99
-62.00
-58.31
-46.41
-29.54
-10.97
7.17
23.61
37.58
47.39
50.14
43.11
25.17
-2.66
-37.31
-74.16
-108.43
-135.36
-151.04
-153.25
-142.30
-121.39
-96.37
-73.73
-58.19
-51.38
-51.70
-55.89
-60.93
-65.54
-68.84
-70.26
-68.32
-60.88
-46.16
-23.94
3.90
33.99
62.14
85.64
103.38
115.81
124.39
130.70
135.83
139.97
143.57
145.28
144.72
142.13
138.08
133.03
126.75
118.35
106.70
90.57
69.56
44.73
18.15
-7.44
-28.76
-42.63
-46.58
-40.25
-26.28
-10.35
0.76
2.07
-7.10
-22.40
-36.72
-43.40
-39.67
-27.36
-11.79
1.43
8.43
7.71
-0.64
-16.22
-38.60
-66.28
-95.28
-119.31
-131.77
-128.79
-111.35
-85.41
-59.72
-41.83
-35.03
-37.73
-45.38
-53.20
-58.56
-61.76
-63.83
-65.06
-64.01
-58.17
-45.12
-24.37
2.57
33.10
63.69
91.55
114.09
128.52
132.65
126.65
114.37
102.88
99.29
106.28
120.11
131.79
131.69
114.70
83.56
45.36
9.63
-16.22
-29.11
-29.27
-18.89
-0.81
20.75
39.81
49.04
42.66
19.33
-16.63
-55.49
-86.25
-100.01
-94.44
-73.50
-44.76
-16.20
7.40
23.57
32.16
33.94
29.58
19.56
4.59
-14.20
-35.28
-56.98
-78.86
-100.78
-121.92
-139.76
-149.95
-147.86
-130.96
-100.97
-63.84
-28.13
-1.27
13.10
15.87
11.13
3.34
-4.47
-11.51
-17.83
-23.62
-27.60
-27.89
-22.97
-12.40
3.53
24.39
49.67
78.13
106.64
130.26
143.10
140.92
123.42
95.44
65.26
41.37
29.12
28.86
36.83
47.44
55.64
58.03
52.77
39.31
18.48
-7.07
-32.16
-50.12
-55.12
-45.17
-23.88
0.20
16.72
17.99
2.19
-25.21
-53.79
-72.90
-74.95
-59.62
-32.24
-1.35
26.30
45.70
54.90
54.52
46.13
31.09
10.81
-12.84
-37.56
-60.67
-80.37
-95.33
-105.63
-112.42
-116.92
-118.87
-115.93
-104.87
-81.72
-49.09
-12.87
19.45
41.55
50.55
47.66
36.97
22.83
8.21
-6.12
-19.62
-31.55
-39.38
-40.36
-32.22
-14.28
12.44
44.87
77.73
104.57
119.28
118.93
104.89
82.93
60.79
44.96
38.22
39.03
43.75
49.14
54.00
58.44
63.40
67.92
69.31
64.23
50.47
27.94
-1.06
-32.85
-64.18
-92.58
-116.91
-136.78
-151.94
-161.34
-163.46
-156.69
-138.20
-110.49
-77.36
-43.20
-11.99
13.53
32.76
46.54
56.40
63.65
68.77
70.87
68.46
60.02
44.30
20.78
-10.47
-47.73
-86.59
-120.90
-143.90
-151.00
-141.90
-122.21
-97.77
-74.67
-56.57
-43.33
-32.24
-19.63
-2.92
18.38
43.09
68.62
92.99
114.88
133.80
149.01
159.99
166.51
168.70
167.47
164.63
162.61
163.35
167.11
171.39
171.32
161.53
139.14
105.77
67.68
33.53
10.55
1.70
4.81
14.45
24.29
30.24
30.52
25.47
16.12
2.74
-15.10
-37.50
-63.13
-88.99
-110.53
-123.48
-126.90
-121.58
-111.55
-102.02
-96.64
-96.14
-98.33
-99.49
-96.70
-89.30
-79.05
-68.73
-60.78
-56.29
-55.36
-57.75
-63.63
-73.86
-87.49
-104.17
-121.09
-132.59
-132.79
-118.50
-91.24
-57.29
-25.39
-3.17
6.00
3.59
-5.51
-16.19
-25.68
-33.91
-42.14
-51.25
-60.84
-68.04
-69.94
-64.40
-51.09
-31.37
-7.74
17.28
41.83
64.59
85.04
103.12
119.10
132.88
144.38
153.63
160.76
165.54
166.88
164.58
156.01
140.94
121.61
102.19
86.45
75.81
68.17
59.15
44.76
23.61
-1.46
-24.92
-40.90
-45.76
-38.88
-21.97
1.46
27.70
52.42
70.98
78.93
74.18
58.09
35.45
12.82
-3.98
-14.31
-20.63
-27.58
-39.51
-57.52
-78.59
-96.74
-105.58
-100.91
-84.08
-60.76
-38.37
-22.63
-15.22
-13.69
-13.93
-12.79
-9.96
-8.12
-10.42
-18.43
-31.09
-44.86
-55.62
-60.26
-57.23
-46.47
-28.95
-5.56
21.76
49.08
70.98
82.00
79.12
63.70
41.37
19.35
4.14
-1.92
-0.90
3.07
5.93
5.35
0.63
-8.16
-20.84
-36.44
-52.63
-65.88
-71.97
-68.41
-55.71
-36.55
-14.39
8.75
32.78
57.88
81.59
99.70
106.47
98.27
76.98
49.95
26.74
14.58
14.83
22.08
28.99
28.99
19.12
0.25
-24.46
-51.11
-75.58
-93.78
-102.63
-100.44
-88.24
-69.71
-49.87
-33.21
-21.94
-15.72
-13.15
-13.32
-16.57
-23.95
-35.68
-50.11
-63.78
-72.83
-74.96
-70.98
-63.83
-57.10
-52.87
-50.77
-47.82
-39.94
-24.08
0.11
30.18
62.30
92.23
116.48
131.57
134.22
122.38
97.32
64.73
34.10
16.16
16.09
33.37
60.99
88.95
108.82
117.00
114.40
104.26
89.33
69.16
44.70
16.74
-11.55
-36.25
-52.86
-58.56
-53.31
-39.68
-22.06
-5.33
5.85
8.41
1.68
-11.17
-25.20
-35.35
-39.66
-39.38
-38.04
-39.84
-46.83
-56.90
-64.31
-62.94
-49.31
-24.49
5.01
30.65
45.53
46.85
36.49
19.62
1.28
-14.92
-28.08
-37.63
-42.36
-40.21
-28.93
-7.53
22.30
55.01
82.35
96.23
92.76
73.76
46.21
19.13
-0.14
-8.61
-7.99
-2.32
4.87
12.84
22.33
34.11
47.40
59.14
65.60
63.91
53.43
35.33
12.94
-9.59
-27.80
-38.33
-40.78
-38.66
-38.49
-46.72
-67.43
-97.41
-129.37
-154.83
-167.96
-167.93
-158.10
-143.26
-124.07
-102.14
-75.90
-44.14
-8.36
26.65
54.66
71.47
75.11
66.63
49.00
27.06
5.92
-9.82
-16.57
-13.28
-2.25
11.69
23.36
28.96
28.08
22.81
15.75
8.31
-0.06
-10.45
-23.24
-36.06
-44.92
-45.73
-36.70
-18.76
5.30
32.06
58.06
80.04
94.94
100.26
95.01
80.56
60.93
41.24
25.30
13.93
5.71
-1.34
-6.78
-7.46
0.69
19.40
45.68
71.45
87.28
86.89
69.92
42.06
12.11
-11.58
-24.45
-27.16
-24.18
-21.64
-24.87
-36.39
-54.72
-74.65
-89.30
-93.13
-84.20
-64.92
-40.52
-16.77
2.10
14.64
20.31
18.70
10.02
-3.89
-18.94
-29.37
-30.00
-19.57
-1.63
16.77
28.26
28.74
18.97
3.40
-12.49
-24.72
-32.30
-36.50
-38.91
-40.27
-39.86
-36.07
-27.21
-12.26
9.07
35.70
65.49
94.93
119.01
132.11
129.95
112.01
82.56
49.45
21.23
3.85
-1.48
2.18
9.56
15.75
18.28
16.91
12.96
8.74
7.42
11.70
22.12
35.55
45.05
42.74
23.50
-11.88
-56.23
-98.58
-128.91
-141.97
-136.83
-118.93
-94.06
-66.23
-37.20
-8.21
18.70
40.56
54.70
59.92
57.23
49.53
39.83
30.14
20.35
8.43
-8.29
-31.50
-60.03
-89.29
-111.63
-119.59
-109.36
-83.04
-48.39
-15.50
7.06
15.77
12.64
3.77
-4.26
-6.33
0.15
15.52
38.13
63.99
86.99
100.42
99.83
85.32
62.23
38.99
23.76
20.99
29.72
44.90
60.21
70.78
73.80
68.38
55.01
35.62
14.04
-4.05
-12.09
-6.09
12.30
35.27
51.04
49.13
25.49
-15.27
-62.40
-103.45
-129.73
-138.75
-133.99
-121.48
-106.25
-90.16
-72.72
-53.32
-32.58
-13.40
0.41
6.15
3.12
-7.31
-22.72
-40.45
-58.00
-71.64
-78.57
-76.41
-64.51
-45.15
-22.97
-3.31
9.91
15.57
15.41
11.82
6.48
-0.31
-9.18
-20.02
-30.57
-36.90
-35.30
-24.04
-4.33
20.77
47.87
74.22
98.21
118.44
133.04
139.53
135.95
122.62
102.45
79.50
57.08
36.89
18.83
3.78
-5.75
-6.30
4.57
25.81
51.99
74.25
83.88
75.78
50.54
14.11
-24.51
-56.10
-73.98
-75.97
-64.79
-46.00
-25.25
-6.56
9.19
22.07
31.73
36.36
33.27
20.23
-3.21
-35.07
-70.85
-105.14
-132.14
-146.86
-146.25
-130.47
-103.43
-71.91
-43.23
-22.89
-12.58
-10.19
-11.88
-14.49
-17.22
-21.30
-28.30
-37.47
-45.66
-48.34
-41.84
-24.93
0.89
32.39
65.38
95.70
119.64
133.72
135.42
124.44
103.49
78.16
55.02
38.63
29.43
24.01
17.13
5.58
-9.70
-23.87
-30.89
-27.02
-12.80
7.36
27.63
43.10
51.04
50.55
42.00
26.37
4.99
-18.02
-37.68
-49.43
-50.75
-42.32
-27.73
-11.60
2.45
12.94
20.30
25.94
30.58
34.28
36.69
36.86
34.19
28.16
18.34
4.01
-15.31
-39.07
-64.31
-85.96
-98.53
-98.28
-85.27
-63.59
-39.99
-20.88
-10.29
-8.71
-13.88
-22.32
-31.14
-38.04
-41.06
-38.62
-29.21
-12.16
12.03
41.35
72.13
99.53
117.39
121.77
112.05
91.87
68.51
47.91
33.56
24.62
17.23
7.19
-6.18
-19.26
-25.90
-21.65
-6.42
14.44
32.79
42.36
40.11
26.99
6.21
-17.98
-41.94
-62.43
-76.77
-82.74
-79.03
-66.41
-47.56
-26.51
-7.23
7.24
15.06
14.97
6.59
-9.61
-32.45
-58.97
-84.62
-103.65
-110.42
-99.06
-71.56
-35.57
-1.28
22.06
30.15
23.91
8.38
-10.11
-26.87
-40.24
-50.42
-57.96
-63.93
-67.20
-66.80
-62.13
-52.92
-38.97
-20.16
4.07
33.86
67.96
104.18
137.59
161.64
170.01
159.37
131.16
91.45
51.05
17.30
-3.26
-7.90
2.28
22.81
47.29
69.49
84.69
91.04
89.51
83.16
73.93
62.24
46.85
24.59
-2.38
-28.78
-47.89
-55.18
-50.44
-38.74
-26.51
-18.72
-16.54
-17.33
-18.68
-19.67
-21.75
-27.47
-39.63
-58.62
-82.53
-107.74
-128.99
-141.33
-141.09
-127.05
-97.40
-58.97
-22.23
3.09
11.76
4.82
-12.76
-35.19
-57.82
-78.21
-95.70
-108.11
-112.61
-107.46
-91.93
-67.32
-36.75
-2.77
31.83
64.39
93.69
119.29
140.57
158.29
173.65
185.46
190.84
185.60
166.74
134.98
100.11
68.73
48.93
46.44
59.06
79.34
97.70
107.73
107.98
101.65
92.58
77.81
62.61
42.91
15.11
-24.19
-67.73
-103.94
-123.04
-122.97
-108.83
-88.84
-71.80
-61.36
-56.27
-51.82
-45.25
-36.95
-30.98
-32.50
-44.26
-66.20
-93.67
-119.04
-134.02
-132.91
-111.59
-69.94
-17.46
29.92
57.80
61.00
44.83
19.48
-5.18
-23.80
-36.79
-47.95
-60.98
-76.22
-90.90
-100.09
-101.03
-91.42
-70.62
-39.40
0.32
43.55
84.39
114.95
128.55
119.01
88.23
45.67
5.84
-15.40
-12.28
15.20
59.63
111.05
156.60
189.58
208.05
213.61
209.47
198.37
184.43
157.46
130.10
100.05
67.29
30.49
-12.24
-61.37
-115.50
-163.04
-191.55
-194.38
-177.63
-149.59
-117.56
-87.98
-60.58
-37.36
-21.47
-17.04
-25.21
-46.31
-75.12
-103.29
-121.27
-117.90
-88.98
-40.96
10.19
48.98
65.98
62.68
47.69
30.93
19.08
12.66
8.28
1.74
-8.63
-22.15
-35.87
-45.87
-49.37
-45.55
-35.98
-22.31
-4.77
17.58
44.96
74.84
102.46
121.56
127.01
117.09
94.98
67.81
41.93
21.89
8.74
4.19
10.30
28.78
59.12
97.58
137.14
166.71
174.77
153.94
104.02
31.43
-53.49
-140.01
-220.61
-279.54
-303.97
-291.61
-252.02
-200.01
-147.66
-100.81
-60.63
-25.98
4.44
29.67
47.96
58.69
63.06
63.10
60.27
54.36
43.90
27.70
4.92
-21.51
-43.48
-52.65
-44.75
-21.83
8.44
36.50
55.16
61.17
55.57
42.22
25.11
7.77
-6.73
-15.24
-14.57
-2.54
19.97
48.52
75.55
91.01
88.09
67.83
38.54
11.96
-2.01
0.50
16.45
38.33
56.53
65.49
64.94
57.55
47.50
39.12
35.45
37.26
41.91
41.62
28.98
-0.15
-44.60
-97.43
-148.92
-190.61
-218.68
-221.31
-200.14
-164.26
-124.20
-86.44
-52.30
-21.35
4.37
24.77
38.47
42.86
38.37
27.27
12.73
-2.41
-17.09
-30.47
-41.30
-46.72
-43.69
-24.29
12.21
56.54
95.16
118.48
124.29
116.43
100.57
80.81
59.60
37.93
17.22
0.93
-6.23
-0.85
17.26
44.15
72.54
94.01
100.86
90.32
68.20
45.96
34.56
38.89
55.67
77.77
97.08
107.71
107.80
98.87
83.16
61.76
34.21
2.38
-30.32
-61.47
-89.11
-111.29
-126.33
-133.44
-132.55
-125.08
-112.98
-98.55
-85.32
-75.70
-70.67
-69.90
-75.18
-82.80
-90.00
-94.71
-95.96
-95.26
-93.73
-92.26
-91.72
-93.06
-96.83
-103.56
-112.27
-112.23
-99.67
-73.22
-35.24
7.82
47.54
77.10
93.21
97.63
95.27
89.61
82.99
75.34
65.47
52.68
38.35
25.30
16.76
16.52
25.60
43.16
65.26
85.65
97.39
95.85
80.85
58.30
38.25
29.10
34.68
51.73
73.54
92.29
102.39
101.55
90.49
71.13
45.28
15.50
-12.80
-31.76
-35.19
-22.04
1.95
25.65
36.52
25.92
-6.89
-55.48
-109.13
-157.57
-193.86
-214.91
-220.32
-211.05
-188.11
-153.29
-109.43
-61.11
-14.72
22.79
46.06
52.86
44.57
25.72
1.99
-20.31
-34.06
-34.58
-22.71
-5.29
8.63
13.07
8.01
-2.86
-14.77
-24.97
-34.16
-44.63
-57.59
-71.43
-83.61
-89.43
-86.67
-75.15
-56.65
-33.95
-8.89
18.54
49.58
84.85
124.86
167.70
209.83
245.07
265.71
265.65
243.10
201.84
150.26
101.08
58.77
26.07
3.99
-7.16
-7.35
2.23
18.46
36.58
51.39
58.06
55.16
43.54
25.07
0.90
-29.00
-64.78
-104.49
-141.08
-165.32
-169.30
-151.65
-117.65
-76.00
-34.83
0.94
30.19
52.99
67.01
68.95
55.86
27.74
-11.90
-56.48
-96.73
-121.28
-123.92
-107.64
-82.67
-61.41
-51.53
-54.27
-65.44
-78.72
-89.68
-97.75
-104.93
-113.02
-123.16
-131.96
-135.27
-130.23
-115.93
-93.51
-65.56
-34.29
-1.39
31.02
62.78
93.66
122.71
148.19
167.93
180.25
185.00
187.68
189.23
191.25
194.29
197.14
197.29
191.75
178.24
156.45
127.54
94.01
60.50
32.17
13.52
7.52
14.86
31.11
50.28
61.25
54.54
28.29
-10.01
-47.43
-72.47
-80.16
-72.80
-56.99
-39.66
-25.51
-16.76
-14.80
-21.38
-38.05
-64.47
-97.06
-128.31
-147.37
-146.88
-127.48
-97.71
-69.76
-53.33
-51.81
-62.01
-77.31
-91.34
-101.38
-107.07
-108.57
-106.00
-99.03
-86.80
-68.10
-42.52
-9.30
30.94
75.93
122.31
164.37
194.29
204.56
191.56
156.20
105.74
51.32
4.72
-24.75
-32.48
-20.23
8.03
47.45
90.30
128.70
155.79
167.81
165.63
153.12
134.74
108.15
79.74
47.11
7.17
-40.90
-94.94
-144.23
-176.40
-184.65
-170.41
-141.00
-107.28
-76.44
-50.67
-28.51
-7.61
12.74
29.96
40.31
41.89
33.55
16.29
-8.25
-39.02
-74.80
-111.60
-143.96
-165.24
-169.85
-157.19
-131.63
-101.24
-74.51
-57.45
-49.06
-46.23
-44.54
-40.45
-32.23
-18.82
1.02
28.36
62.24
99.13
131.96
152.94
155.54
137.77
103.83
62.35
22.42
-9.33
-29.55
-37.73
-32.96
-14.84
16.59
58.77
105.62
148.09
177.19
187.88
175.13
145.48
107.61
68.78
32.89
1.91
-22.26
-38.92
-46.72
-46.26
-40.44
-35.74
-38.56
-51.96
-72.88
-93.48
-104.99
-101.96
-84.70
-57.84
-29.58
-5.52
10.61
17.13
13.33
-0.98
-24.57
-53.82
-81.26
-98.21
-98.77
-82.74
-56.05
-28.48
-9.13
-2.66
-7.94
-19.40
-31.02
-39.20
-43.65
-45.53
-45.75
-43.70
-37.22
-23.91
-2.70
25.17
56.01
86.09
113.14
135.48
151.24
158.05
153.34
135.98
107.74
73.66
40.39
13.20
-6.15
-18.37
-24.58
-23.93
-14.27
5.78
34.48
66.50
94.08
109.03
106.19
84.72
47.40
-0.87
-54.05
-106.07
-150.80
-179.25
-186.97
-175.02
-148.39
-113.71
-77.04
-42.72
-14.53
6.18
17.33
16.76
4.74
-14.72
-34.43
-46.20
-42.70
-22.63
8.50
40.48
62.72
69.38
61.36
44.59
26.56
12.75
4.52
0.00
-4.00
-9.71
-17.49
-25.40
-30.89
-31.69
-26.26
-13.81
6.14
33.26
65.24
96.95
121.40
131.79
124.58
101.76
70.69
41.57
22.87
17.98
24.38
35.47
44.44
46.13
38.75
23.79
5.33
-11.15
-19.28
-14.19
4.42
31.59
57.46
70.95
63.78
34.67
-11.41
-64.38
-112.60
-147.25
-164.04
-163.99
-151.35
-131.35
-108.20
-84.34
-60.71
-38.08
-18.25
-3.23
5.31
6.74
1.37
-10.21
-27.68
-51.53
-78.42
-104.81
-125.09
-132.89
-123.77
-97.92
-60.99
-21.79
11.14
32.84
42.77
43.85
39.74
32.63
22.93
10.07
-4.69
-17.82
-24.69
-21.73
-7.32
17.84
51.12
87.97
121.84
145.76
154.25
145.32
121.84
91.21
62.63
43.32
35.36
35.46
36.18
31.01
17.30
-2.27
-21.22
-32.62
-32.42
-21.12
-2.70
16.87
32.43
40.95
41.43
33.66
17.33
-7.96
-41.66
-77.22
-105.90
-120.42
-117.80
-100.01
-72.27
-40.54
-9.71
16.86
37.40
49.87
52.15
43.37
24.62
-0.68
-27.09
-48.26
-57.83
-51.66
-32.22
-7.52
12.96
22.46
19.60
8.25
-5.59
-17.01
-24.54
-30.29
-37.48
-46.87
-56.27
-61.73
-59.39
-47.48
-26.51
1.28
32.75
64.95
95.96
123.34
142.81
149.43
139.75
114.55
79.68
43.90
15.39
-1.90
-9.34
-12.28
-14.50
-16.15
-13.75
-3.43
15.38
38.81
60.14
73.17
74.99
67.27
53.95
38.45
21.10
-0.46
-28.69
-63.10
-96.74
-120.64
-128.05
-117.85
