1.592926372000000000e+09
-2.999999999999999889e-02
5.059999999999999609e+00
1.791000000000000014e+01
7.934000000000000341e+01
2.282500000000000000e+02
-4.864700000000000273e+02
-6.769999999999999574e+00
1.528600000000000136e+02
3.799000000000000199e+01
-4.385000000000000142e+01
-7.493000000000000682e+01
-3.974000000000000199e+01
-2.776000000000000156e+01
-1.296000000000000085e+01
-1.812999999999999901e+01
-2.571000000000000085e+01
1.821000000000000085e+01
1.635999999999999943e+01
-2.990000000000000213e+00
-3.410000000000000142e+00
9.753000000000000114e+01
-1.338000000000000078e+01
-3.390000000000000124e+00
1.600000000000000089e+00
-4.467999999999999972e+01
1.142399999999999949e+02
4.509999999999999787e+00
-5.347999999999999687e+01
6.800000000000000488e-01
8.349999999999999645e+00
1.202999999999999936e+01
5.110000000000000320e+00
2.799999999999999822e+00
-2.730999999999999872e+01
-5.239999999999999858e+01
-4.757000000000000028e+01
1.247099999999999937e+02
4.203999999999999915e+01
8.415999999999999659e+01
-3.302000000000000313e+01
1.776000000000000156e+01
8.212000000000000455e+01
2.565099999999999909e+02
8.630000000000000782e+00
-3.447999999999999687e+01
-2.686200000000000045e+02
-1.126859999999999900e+03
2.199499999999999886e+02
2.034600000000000080e+02
-1.123799999999999955e+02
9.743999999999999773e+01
1.403799999999999955e+02
-1.007099999999999937e+02
8.725000000000000000e+01
-1.675500000000000114e+02
1.486800000000000068e+02
-1.541399999999999864e+02
4.782000000000000028e+01
-2.467100000000000080e+02
1.778899999999999864e+02
6.762000000000000455e+01
-8.678000000000000114e+01
6.429999999999999716e+00
-1.088700000000000045e+02
-1.157000000000000028e+02
-2.770000000000000018e+00
5.800000000000000000e+01
-8.703000000000000114e+01
-4.346000000000000085e+01
2.884100000000000250e+02
-1.578799999999999955e+02
-1.649199999999999875e+02
-1.941399999999999864e+02
3.315999999999999659e+01
2.447599999999999909e+02
4.386600000000000250e+02
-2.372800000000000011e+02
-8.548000000000000398e+01
-6.839000000000000057e+01
-5.200000000000000178e+00
1.300000000000000044e+00
-1.205000000000000071e+01
6.723999999999999488e+01
-9.449999999999999289e+00
1.814999999999999858e+01
8.460000000000000853e+00
-2.005000000000000071e+01
-2.008999999999999986e+01
-1.435999999999999943e+01
5.670000000000000284e+01
-7.978000000000000114e+01
2.660000000000000142e+01
1.628000000000000114e+02
4.177000000000000313e+01
-1.083100000000000023e+02
3.178000000000000114e+01
4.685999999999999943e+01
1.561999999999999922e+01
5.853000000000000114e+01
2.944000000000000128e+01
1.767999999999999972e+01
-1.935999999999999943e+01
3.689999999999999947e+00
-1.334999999999999964e+01
-2.369000000000000128e+01
-1.957000000000000028e+01
-5.239999999999999858e+01
6.571999999999999886e+01
-3.838000000000000256e+01
2.621000000000000085e+01
5.190000000000000391e+00
-2.723000000000000043e+01
-1.714699999999999989e+02
-1.003999999999999915e+01
1.125100000000000051e+02
3.066000000000000227e+02
5.623300000000000409e+02
-4.361399999999999864e+02
-2.099300000000000068e+02
-1.155400000000000063e+02
5.924000000000000199e+01
-1.478999999999999915e+01
-4.592000000000000171e+01
8.550000000000000711e+00
1.989999999999999991e+00
2.878000000000000114e+01
-4.200999999999999801e+01
1.010999999999999943e+01
1.837000000000000099e+01
1.047000000000000064e+01
2.557999999999999829e+01
1.032099999999999937e+02
-1.187699999999999960e+02
-8.080000000000000071e+00
7.189000000000000057e+01
-9.431999999999999318e+01
9.720000000000000639e+00
-5.467999999999999972e+01
3.103999999999999915e+01
9.693999999999999773e+01
5.250000000000000000e+00
-1.728000000000000114e+02
1.270300000000000011e+02
-9.810000000000000497e+00
-2.896999999999999886e+01
-5.564999999999999858e+01
4.279999999999999716e+01
4.664999999999999858e+01
9.412999999999999545e+01
-1.032500000000000000e+02
-1.819000000000000128e+01
3.415999999999999659e+01
8.830000000000000071e+00
-1.015999999999999943e+02
9.849999999999999645e+00
1.091999999999999993e+01
5.940000000000000391e+00
2.758999999999999986e+01
-1.848000000000000043e+01
2.985000000000000142e+01
-3.950999999999999801e+01
-8.596999999999999886e+01
-1.964000000000000057e+01
4.685000000000000142e+01
7.362999999999999545e+01
1.645399999999999920e+02
7.335999999999999943e+01
-1.739000000000000057e+02
-1.028049999999999955e+03
4.342900000000000205e+02
1.585800000000000125e+02
1.848000000000000114e+02
-3.650000000000000000e+01
-7.979000000000000625e+01
5.610000000000000320e+00
-3.584000000000000341e+01
-1.678000000000000114e+01
-2.092000000000000171e+01
1.217600000000000051e+02
1.941000000000000014e+01
-4.513000000000000256e+01
1.566999999999999993e+01
4.383399999999999750e+02
-1.715399999999999920e+02
-1.331599999999999966e+02
8.518999999999999773e+01
-5.851200000000000045e+02
1.931899999999999977e+02
5.765299999999999727e+02
7.545999999999999375e+01
-3.018899999999999864e+02
-2.216000000000000014e+01
1.995500000000000114e+02
-1.193199999999999932e+02
-9.554000000000000625e+01
2.782999999999999829e+01
6.042000000000000171e+01
-9.401000000000000512e+01
-1.209099999999999966e+02
5.611999999999999744e+01
3.690999999999999659e+01
3.003000000000000114e+01
-3.314999999999999858e+01
4.219999999999999751e+00
-3.678000000000000114e+01
5.947999999999999687e+01
1.099000000000000057e+02
-1.164500000000000028e+02
3.185000000000000142e+01
1.623000000000000043e+01
7.254000000000000625e+01
5.797999999999999687e+01
5.639999999999999680e+00
-1.684499999999999886e+02
3.729999999999999982e+00
-5.049999999999999822e+00
-3.864999999999999858e+01
-3.425999999999999801e+01
2.267000000000000171e+01
-2.234799999999999898e+02
1.789499999999999886e+02
1.256200000000000045e+02
-1.399600000000000080e+02
-7.423000000000000398e+01
-4.964000000000000057e+01
-2.887000000000000099e+01
2.417000000000000171e+01
8.509999999999999787e+00
-1.574000000000000021e+01
2.773999999999999844e+01
1.676999999999999957e+01
-1.360999999999999943e+01
-8.089999999999999858e+00
-3.171000000000000085e+01
-2.566000000000000014e+01
5.250999999999999801e+01
2.058999999999999986e+01
-7.599999999999999645e+00
-4.400000000000000355e+00
9.750000000000000000e+00
-1.350999999999999979e+01
-4.478000000000000114e+01
1.008000000000000007e+01
6.009999999999999787e+00
-1.308999999999999986e+01
3.005000000000000071e+01
2.267999999999999972e+01
-6.389999999999999680e+00
-4.759999999999999787e+00
6.490000000000000213e+00
-2.589000000000000057e+01
-1.757999999999999829e+01
-7.219999999999999751e+00
-1.218799999999999955e+02
2.628000000000000114e+01
4.653000000000000114e+01
2.885999999999999943e+01
-2.723999999999999844e+01
2.248999999999999844e+01
4.328999999999999915e+01
-7.384000000000000341e+01
4.190000000000000391e+00
3.859000000000000341e+01
2.882000000000000028e+01
3.352000000000000313e+01
-7.530000000000000249e+00
-2.990000000000000213e+00
-2.569000000000000128e+01
7.879999999999999893e+00
-1.333000000000000007e+01
3.105999999999999872e+01
4.170000000000000284e+01
-1.312899999999999920e+02
1.050300000000000011e+02
-5.906000000000000227e+01
3.396999999999999886e+01
2.146000000000000085e+01
-6.473000000000000398e+01
2.046899999999999977e+02
-5.528000000000000114e+01
-2.919999999999999929e+01
-2.603999999999999915e+01
2.664999999999999858e+01
-2.578000000000000114e+01
-9.889000000000000057e+01
3.311999999999999744e+01
0.000000000000000000e+00
6.549999999999999822e+00
8.789999999999999147e+00
1.648000000000000043e+01
-5.292000000000000171e+01
1.051099999999999994e+02
1.309000000000000057e+02
4.009000000000000341e+01
-1.185799999999999983e+02
2.396800000000000068e+02
-4.182999999999999829e+01
-5.160999999999999943e+01
1.097199999999999989e+02
3.956000000000000227e+01
2.149799999999999898e+02
-1.011599999999999966e+02
-6.497400000000000091e+02
3.880299999999999727e+02
1.779199999999999875e+02
5.907000000000000028e+01
-2.553999999999999915e+01
-6.440000000000000391e+00
9.899999999999999911e-01
8.900000000000000133e-01
-1.979999999999999982e+00
-1.502999999999999936e+01
-3.103000000000000114e+01
-2.130000000000000071e+01
-8.145999999999999375e+01
-1.828999999999999915e+01
-1.151099999999999994e+02
8.164000000000000057e+01
1.696000000000000085e+01
-1.678999999999999915e+01
-2.304699999999999989e+02
1.061599999999999966e+02
5.370199999999999818e+02
3.881000000000000227e+02
4.836299999999999955e+02
-7.651499999999999773e+02
-3.983500000000000227e+02
4.945000000000000284e+01
2.055999999999999872e+01
-2.830000000000000071e+00
-2.807999999999999829e+01
-1.242999999999999972e+01
2.126999999999999957e+01
3.078999999999999915e+01
4.415999999999999659e+01
6.129999999999999893e+00
-3.142900000000000205e+02
1.271899999999999977e+02
4.702000000000000313e+01
1.410500000000000114e+02
7.518999999999999773e+01
4.132000000000000028e+01
6.053000000000000114e+01
-2.860000000000000142e+01
-7.707999999999999829e+01
-3.830899999999999750e+02
2.013799999999999955e+02
-7.539000000000000057e+01
-2.919100000000000250e+02
2.682699999999999818e+02
1.735500000000000114e+02
6.637999999999999545e+01
3.863000000000000256e+01
-2.319999999999999929e+01
-6.990000000000000213e+00
-3.799999999999999822e+00
-1.925000000000000000e+01
-4.820000000000000284e+00
4.007000000000000028e+01
2.821000000000000085e+01
8.285999999999999943e+01
1.319799999999999898e+02
-1.008999999999999986e+01
-2.851999999999999957e+01
-4.455400000000000205e+02
-1.003789999999999964e+03
2.775099999999999909e+02
3.565400000000000205e+02
-7.549999999999999822e+00
1.270000000000000000e+02
1.459300000000000068e+02
3.082900000000000205e+02
-9.675000000000000000e+01
-3.261100000000000136e+02
-2.951999999999999957e+01
-2.148899999999999864e+02
-3.406999999999999886e+02
1.159999999999999964e+01
-6.235000000000000142e+01
2.887900000000000205e+02
1.982599999999999909e+02
-2.337599999999999909e+02
-2.999999999999999889e-01
1.210999999999999943e+01
-1.491000000000000014e+01
-2.617999999999999972e+01
2.350800000000000125e+02
1.361640000000000100e+03
-1.050349999999999909e+03
-3.181700000000000159e+02
-1.066000000000000014e+01
1.480000000000000071e+01
2.737999999999999901e+01
-1.156700000000000017e+02
8.404999999999999716e+01
3.564599999999999795e+02
-1.812199999999999989e+02
-1.663899999999999864e+02
7.320000000000000284e+00
-2.213000000000000114e+02
2.211299999999999955e+02
1.223299999999999983e+02
6.115999999999999659e+01
-1.969999999999999929e+01
-1.705000000000000071e+01
-1.036999999999999922e+01
-2.510999999999999943e+01
-3.101999999999999957e+01
4.261999999999999744e+01
8.303000000000000114e+01
-5.589999999999999858e+01
-8.100000000000000533e-01
1.265000000000000036e+01
-4.549000000000000199e+01
-9.776000000000000512e+01
1.715800000000000125e+02
1.810300000000000011e+02
-2.761399999999999864e+02
-9.050000000000000000e+01
-2.444000000000000128e+01
-1.584999999999999964e+01
1.737299999999999898e+02
7.614000000000000057e+01
1.411399999999999864e+02
-1.657800000000000011e+02
-1.908999999999999986e+01
2.680000000000000071e+01
-2.000000000000000042e-02
3.582000000000000028e+01
1.464300000000000068e+02
8.204999999999999716e+01
-4.545000000000000284e+01
-3.123899999999999864e+02
-5.899800000000000182e+02
2.478700000000000045e+02
2.671100000000000136e+02
-3.919999999999999929e+00
-8.937999999999999545e+01
1.203599999999999994e+02
3.825000000000000000e+01
6.330000000000000071e+00
-1.608999999999999986e+01
-1.060999999999999943e+01
2.001999999999999957e+01
5.749000000000000199e+01
6.222999999999999687e+01
1.378100000000000023e+02
-8.785999999999999943e+01
1.170799999999999983e+02
-5.517100000000000364e+02
3.784700000000000273e+02
2.849300000000000068e+02
2.821000000000000085e+01
-6.235000000000000142e+01
-7.495999999999999375e+01
-7.830000000000000071e+00
-3.207200000000000273e+02
4.281999999999999886e+02
2.432999999999999829e+01
-4.457999999999999829e+01
-1.221500000000000057e+02
-4.240999999999999659e+01
3.457000000000000028e+01
-1.958999999999999986e+01
3.332999999999999829e+01
2.589000000000000057e+01
-3.285999999999999943e+01
-2.937000000000000099e+01
5.030000000000000249e+00
4.047999999999999687e+01
8.720000000000000639e+00
6.557999999999999829e+01
-1.524699999999999989e+02
-5.745499999999999545e+02
2.575799999999999841e+02
1.336100000000000136e+02
9.692000000000000171e+01
8.506000000000000227e+01
-7.400000000000000000e+01
1.494999999999999929e+01
2.959999999999999964e+00
1.483000000000000007e+01
3.096000000000000085e+01
1.133900000000000006e+02
-2.531999999999999886e+02
-7.928000000000000114e+01
2.214000000000000057e+02
1.425000000000000000e+01
-2.166800000000000068e+02
4.032000000000000028e+01
1.296999999999999886e+02
5.085000000000000142e+01
-1.452999999999999936e+01
-4.440999999999999659e+01
-4.459999999999999964e+00
1.885999999999999943e+01
2.540000000000000036e+00
-1.431000000000000050e+01
4.160000000000000142e+00
1.246000000000000085e+01
2.040000000000000036e+00
-6.410000000000000142e+00
6.099999999999999867e-01
-1.919999999999999929e+00
-1.900000000000000022e-01
9.699999999999999289e+00
-2.780000000000000071e+01
-1.403999999999999915e+01
1.101899999999999977e+02
3.126399999999999864e+02
-8.854000000000000625e+01
-5.145000000000000284e+01
-4.440000000000000391e+00
4.282000000000000028e+01
-1.234300000000000068e+02
-1.247000000000000064e+01
-1.174399999999999977e+02
1.934399999999999977e+02
7.504999999999999716e+01
-1.960999999999999943e+01
6.043999999999999773e+01
-4.289999999999999858e+01
-3.989999999999999858e+01
1.501999999999999957e+01
7.129999999999999893e+00
1.513000000000000078e+01
-4.064000000000000057e+01
8.015000000000000568e+01
-1.085100000000000051e+02
-9.568000000000000682e+01
3.260999999999999943e+01
4.010000000000000142e+01
1.193999999999999950e+01
-4.269999999999999574e+00
-4.469999999999999751e+00
1.626999999999999957e+01
8.080000000000000071e+00
7.900000000000000355e+00
3.299000000000000199e+01
-5.879999999999999893e+00
-2.873000000000000043e+01
-1.043999999999999950e+01
7.993999999999999773e+01
-1.077399999999999949e+02
6.353000000000000114e+01
1.333899999999999864e+02
1.826100000000000136e+02
-8.860999999999999943e+01
-3.320000000000000284e+01
-1.876899999999999977e+02
2.320800000000000125e+02
-7.948000000000000398e+01
2.069999999999999840e+00
1.075999999999999943e+02
2.880000000000000071e+01
1.633400000000000034e+02
-5.453999999999999915e+01
-4.452400000000000091e+02
3.978000000000000114e+01
1.349000000000000057e+02
6.157999999999999829e+01
-1.163700000000000045e+02
-1.898999999999999844e+01
-1.628000000000000114e+01
-6.470999999999999375e+01
-4.335999999999999943e+01
1.989999999999999858e+01
7.004000000000000625e+01
-2.458999999999999986e+01
3.396000000000000085e+01
2.153000000000000114e+01
3.990999999999999659e+01
-3.214999999999999858e+01
1.853999999999999915e+01
4.088000000000000256e+01
3.490000000000000213e+00
3.932000000000000028e+01
8.009999999999999432e+01
-5.639999999999999858e+01
-1.043100000000000023e+02
1.072800000000000011e+02
1.251299999999999955e+02
-3.485999999999999943e+01
-2.553999999999999915e+01
5.865999999999999659e+01
-5.553000000000000114e+01
1.189500000000000028e+02
-7.348999999999999488e+01
9.031999999999999318e+01
-2.855000000000000071e+01
-1.028100000000000023e+02
9.965000000000000568e+01
-8.709999999999999432e+01
6.303000000000000114e+01
3.650000000000000000e+01
6.314000000000000057e+01
-5.030000000000000249e+00
-1.811899999999999977e+02
7.121999999999999886e+01
1.786999999999999886e+02
-1.713400000000000034e+02
-2.530999999999999872e+01
-3.520000000000000284e+01
-2.346999999999999886e+01
2.550000000000000000e+01
8.869999999999999218e+00
-1.767999999999999972e+01
-2.603000000000000114e+01
1.264000000000000057e+01
1.826000000000000156e+01
-2.314999999999999858e+01
1.937000000000000099e+01
8.706999999999999318e+01
5.418999999999999773e+01
-1.160000000000000000e+02
7.715999999999999659e+01
1.003400000000000034e+02
-1.980000000000000071e+01
-4.243999999999999773e+01
-5.240000000000000213e+00
3.513000000000000256e+01
-1.291000000000000014e+01
2.482599999999999909e+02
-2.036500000000000057e+02
-1.922199999999999989e+02
2.410999999999999943e+01
6.317000000000000171e+01
-6.648999999999999488e+01
7.743000000000000682e+01
-4.178000000000000114e+01
-1.712199999999999989e+02
1.971999999999999886e+02
-2.115800000000000125e+02
-5.856000000000000227e+01
3.539599999999999795e+02
-4.860000000000000142e+01
-1.070600000000000023e+02
2.778299999999999841e+02
-1.523300000000000125e+02
-1.413799999999999955e+02
1.799399999999999977e+02
-1.341000000000000014e+01
1.299099999999999966e+02
-5.400999999999999801e+01
-8.712000000000000455e+01
2.650000000000000000e+01
1.732000000000000028e+01
1.315900000000000034e+02
-1.134099999999999966e+02
-8.273999999999999488e+01
1.481999999999999886e+02
4.906000000000000227e+01
2.260999999999999943e+01
-1.226400000000000006e+02
-4.263000000000000256e+01
1.794900000000000091e+02
-4.685999999999999943e+01
-4.300999999999999801e+01
-8.910999999999999943e+01
2.017999999999999972e+01
-1.876999999999999957e+01
4.446000000000000085e+01
1.556699999999999875e+02
-1.629300000000000068e+02
-7.212000000000000455e+01
6.129999999999999716e+01
1.277999999999999936e+01
1.016899999999999977e+02
3.925000000000000000e+01
-1.087000000000000028e+02
7.379999999999999893e+00
-2.926999999999999957e+01
1.694300000000000068e+02
-6.776000000000000512e+01
-1.815099999999999909e+02
1.560000000000000000e+02
-1.814000000000000057e+01
1.584099999999999966e+02
4.152000000000000313e+01
-3.957300000000000182e+02
1.298899999999999864e+02
-4.434000000000000341e+01
-6.277000000000000313e+01
7.006000000000000227e+01
1.064800000000000040e+02
5.574000000000000199e+01
-7.595999999999999375e+01
3.613000000000000256e+01
2.198999999999999844e+01
3.060999999999999943e+01
-7.775000000000000000e+01
7.659999999999999432e+01
5.304999999999999716e+01
-1.075799999999999983e+02
1.398000000000000043e+01
6.540999999999999659e+01
9.519999999999999574e+00
-7.970999999999999375e+01
-7.465999999999999659e+01
3.836999999999999744e+01
3.347799999999999727e+02
-1.913300000000000125e+02
-7.562999999999999545e+01
6.469999999999999751e+00
5.899999999999999689e-01
2.471999999999999886e+01
-2.239000000000000057e+01
5.240000000000000213e+00
1.346100000000000136e+02
-6.757999999999999829e+01
1.850000000000000089e+00
-2.078199999999999932e+02
9.132999999999999829e+01
6.157999999999999829e+01
-1.284499999999999886e+02
-5.100000000000000000e+01
1.561599999999999966e+02
-1.042699999999999960e+02
2.189999999999999947e+00
7.167000000000000171e+01
-4.072999999999999687e+01
-1.980999999999999872e+01
-2.167999999999999972e+01
-3.220000000000000195e+00
-2.519999999999999929e+01
7.451999999999999602e+01
-1.511999999999999922e+01
-9.875000000000000000e+01
1.450699999999999932e+02
-1.824799999999999898e+02
-3.892000000000000171e+01
7.926000000000000512e+01
-8.301999999999999602e+01
-8.499999999999999778e-01
-5.846999999999999886e+01
-2.549999999999999822e+00
7.651000000000000512e+01
4.032000000000000028e+01
6.259999999999999787e+00
2.959999999999999964e+00
4.406000000000000227e+01
-7.110999999999999943e+01
1.047000000000000064e+01
-1.516000000000000014e+01
-1.221000000000000085e+01
-1.353899999999999864e+02
6.743000000000000682e+01
-6.096999999999999886e+01
-5.504999999999999716e+01
1.082000000000000028e+01
8.029000000000000625e+01
5.593999999999999773e+01
-9.164000000000000057e+01
2.382999999999999829e+01
9.220000000000000284e+01
-4.636999999999999744e+01
-1.607700000000000102e+02
1.343300000000000125e+02
-2.510999999999999943e+01
-2.462000000000000099e+01
-9.240000000000000213e+00
1.467899999999999920e+02
-4.484000000000000341e+01
-7.109999999999999432e+01
9.004000000000000625e+01
6.925000000000000000e+01
-3.148000000000000043e+01
3.335000000000000142e+01
-1.042900000000000063e+02
2.905999999999999872e+01
3.249000000000000199e+01
-9.804000000000000625e+01
1.985999999999999943e+01
8.515999999999999659e+01
7.415999999999999659e+01
-9.068000000000000682e+01
-1.262800000000000011e+02
1.788499999999999943e+02
-2.319999999999999840e+00
-8.864000000000000057e+01
-1.458000000000000007e+01
4.756000000000000227e+01
-1.269699999999999989e+02
3.229999999999999982e+00
-2.957999999999999829e+01
6.400000000000000133e-01
-3.169999999999999929e+01
-8.343999999999999773e+01
1.191000000000000014e+01
-2.732000000000000028e+01
4.475000000000000000e+01
-1.801200000000000045e+02
-3.187000000000000099e+01
6.839000000000000057e+01
-4.689999999999999858e+01
-1.673999999999999844e+01
1.110900000000000034e+02
-5.517999999999999972e+01
-7.223999999999999488e+01
-4.617999999999999972e+01
1.591500000000000057e+02
-7.367000000000000171e+01
-2.391000000000000014e+01
-6.190000000000000391e+00
6.063000000000000256e+01
-1.817800000000000011e+02
3.627000000000000313e+01
7.676999999999999602e+01
1.070900000000000034e+02
8.434999999999999432e+01
-2.324099999999999966e+02
-7.330000000000000071e+00
-1.328899999999999864e+02
1.714000000000000057e+01
8.064000000000000057e+01
4.068999999999999773e+01
-1.166500000000000057e+02
-1.951000000000000156e+01
-9.248000000000000398e+01
1.172999999999999972e+02
1.004000000000000057e+02
-7.153000000000000114e+01
-6.742000000000000171e+01
8.329000000000000625e+01
8.439000000000000057e+01
-3.435000000000000142e+01
-1.391800000000000068e+02
-6.978000000000000114e+01
1.340099999999999909e+02
1.700000000000000000e+01
-4.434000000000000341e+01
8.650000000000000355e+00
-6.110000000000000320e+00
2.562000000000000099e+01
-2.617999999999999972e+01
-1.056800000000000068e+02
-7.820000000000000284e+00
-1.216999999999999993e+01
-3.718999999999999773e+01
2.446000000000000085e+01
4.635000000000000142e+01
5.925000000000000000e+01
3.153999999999999915e+01
5.907999999999999829e+01
-4.504999999999999716e+01
8.212000000000000455e+01
-2.644000000000000128e+01
1.521000000000000085e+01
-1.394799999999999898e+02
-1.378999999999999915e+01
-6.190000000000000391e+00
-4.503000000000000114e+01
-1.014899999999999949e+02
-4.028999999999999915e+01
1.140600000000000023e+02
-6.959999999999999964e+00
-7.276999999999999602e+01
-4.132000000000000028e+01
2.960999999999999943e+01
-2.083999999999999986e+01
2.162999999999999901e+01
1.982999999999999829e+01
1.118999999999999950e+01
-2.228999999999999915e+01
5.952000000000000313e+01
1.500000000000000000e+00
3.132000000000000028e+01
-1.599000000000000021e+01
3.399000000000000199e+01
-4.803000000000000114e+01
6.601999999999999602e+01
9.650000000000000355e+00
3.732999999999999829e+01
-1.341699999999999875e+02
1.199999999999999956e+00
8.095999999999999375e+01
-2.720000000000000195e+00
-4.085999999999999943e+01
1.889999999999999858e+01
-1.382000000000000028e+01
-1.431000000000000050e+01
2.467999999999999972e+01
1.549000000000000021e+01
-2.605000000000000071e+01
-3.536999999999999744e+01
7.578000000000000114e+01
-3.697999999999999687e+01
1.400999999999999943e+02
-3.853000000000000114e+01
5.879999999999999893e+00
-1.123000000000000043e+01
9.034000000000000341e+01
2.987000000000000099e+01
-3.098000000000000043e+01
-7.012000000000000455e+01
4.214000000000000057e+01
-5.957000000000000028e+01
-5.200000000000000178e-01
-1.037199999999999989e+02
1.390000000000000000e+02
9.300000000000000488e-01
-5.286999999999999744e+01
-1.484000000000000057e+02
-2.500000000000000000e+01
4.600000000000000200e-01
-7.320000000000000284e+01
-1.335000000000000000e+02
-1.513000000000000078e+01
1.153999999999999915e+01
6.715000000000000568e+01
-8.743999999999999773e+01
-5.604999999999999716e+01
7.050000000000000000e+01
-7.156999999999999318e+01
-1.435500000000000114e+02
-3.164000000000000057e+01
9.907999999999999829e+01
-2.033999999999999986e+01
-6.018999999999999773e+01
-9.690000000000000568e+01
1.194399999999999977e+02
-7.370000000000000107e+00
1.760999999999999943e+01
-3.029999999999999805e+00
3.989000000000000057e+01
5.896999999999999886e+01
1.092999999999999972e+01
-1.334999999999999964e+01
5.304999999999999716e+01
8.300000000000000000e+01
-4.596000000000000085e+01
-1.453199999999999932e+02
4.250000000000000000e+01
7.079999999999999716e+01
-7.059999999999999432e+01
-1.546399999999999864e+02
5.667999999999999972e+01
1.288799999999999955e+02
-8.718999999999999773e+01
-1.366000000000000014e+01
-4.632999999999999829e+01
9.859000000000000341e+01
-1.066999999999999993e+01
5.535000000000000142e+01
-4.645000000000000284e+01
1.140999999999999943e+02
9.890000000000000568e+00
3.789999999999999858e+01
-5.828999999999999915e+01
1.494799999999999898e+02
3.745000000000000284e+01
-7.559999999999999609e+00
-2.928000000000000114e+01
1.479499999999999886e+02
-3.689999999999999858e+01
-8.570000000000000284e+00
-1.215600000000000023e+02
1.259999999999999964e+01
1.985000000000000142e+01
1.013900000000000006e+02
-8.318999999999999773e+01
7.506000000000000227e+01
2.623700000000000045e+02
-1.653300000000000125e+02
-2.314699999999999989e+02
-3.263000000000000256e+01
5.720000000000000284e+01
-1.919600000000000080e+02
-6.848999999999999488e+01
6.388000000000000256e+01
1.550399999999999920e+02
-2.817699999999999818e+02
-2.596999999999999886e+01
6.700000000000000000e+01
4.835000000000000142e+01
-1.794999999999999929e+01
5.053999999999999915e+01
-4.478000000000000114e+01
1.428000000000000114e+02
3.107999999999999829e+01
-3.815999999999999659e+01
-7.160000000000000142e+00
6.590000000000000568e+01
3.657000000000000028e+01
-6.034000000000000341e+01
-1.509000000000000057e+02
3.109999999999999876e+00
-3.139999999999999858e+01
-2.371999999999999886e+01
7.309999999999999609e+00
-1.694000000000000128e+01
3.543999999999999773e+01
-1.019999999999999929e+01
1.714000000000000057e+01
3.390999999999999659e+01
9.351000000000000512e+01
-9.256999999999999318e+01
4.864999999999999858e+01
-7.573999999999999488e+01
1.553499999999999943e+02
-5.050000000000000000e+01
3.638000000000000256e+01
-5.400000000000000000e+01
7.567000000000000171e+01
-3.149999999999999911e+00
-4.640999999999999659e+01
-1.532500000000000000e+02
-2.394000000000000128e+01
1.330300000000000011e+02
2.069999999999999840e+00
-1.193100000000000023e+02
-5.817000000000000171e+01
1.317899999999999920e+02
-1.662999999999999901e+01
-3.528000000000000114e+01
3.339999999999999858e+00
1.409199999999999875e+02
-5.011999999999999744e+01
4.570000000000000284e+01
-1.048700000000000045e+02
-3.221999999999999886e+01
5.400000000000000000e+01
-1.634600000000000080e+02
4.429999999999999716e+01
-2.919999999999999929e+00
1.713899999999999864e+02
2.740000000000000213e+00
-8.929999999999999716e+01
-5.728999999999999915e+01
-3.137000000000000099e+01
1.409399999999999977e+02
2.769999999999999929e+01
-1.055799999999999983e+02
-5.561999999999999744e+01
-9.000000000000000222e-01
3.278000000000000114e+01
-2.446000000000000085e+01
-3.567999999999999972e+01
9.223000000000000398e+01
1.042600000000000051e+02
-1.116999999999999993e+01
4.685000000000000142e+01
7.376000000000000512e+01
3.532999999999999829e+01
-1.432599999999999909e+02
-1.327999999999999936e+01
-1.876000000000000156e+01
-7.459999999999999964e+00
-3.639000000000000057e+01
-2.937000000000000099e+01
-3.607000000000000028e+01
2.180000000000000160e+00
-9.857999999999999829e+01
3.014000000000000057e+01
3.770000000000000018e+00
4.489999999999999858e+01
-1.526999999999999957e+01
-7.309999999999999609e+00
-3.099999999999999978e-01
1.226200000000000045e+02
1.410999999999999943e+01
-3.507000000000000028e+01
-2.130000000000000071e+01
7.815999999999999659e+01
5.054999999999999716e+01
3.428000000000000114e+01
-2.087999999999999901e+01
1.217699999999999960e+02
4.235999999999999943e+01
1.497000000000000064e+01
-1.010999999999999943e+01
1.375900000000000034e+02
8.951000000000000512e+01
-1.867999999999999972e+01
1.175999999999999979e+01
9.368999999999999773e+01
9.770000000000000284e+01
-7.179999999999999716e+01
-1.746000000000000085e+01
-7.062000000000000455e+01
1.565999999999999943e+02
-1.915500000000000114e+02
-8.898000000000000398e+01
-4.936999999999999744e+01
8.740000000000000213e+00
-3.039700000000000273e+02
4.389999999999999858e+01
-6.730000000000000426e+00
5.653000000000000114e+01
-2.186800000000000068e+02
-1.708999999999999986e+01
1.721999999999999886e+01
9.707999999999999829e+01
-1.129800000000000040e+02
-9.682999999999999829e+01
6.546999999999999886e+01
3.467999999999999972e+01
3.652000000000000313e+01
4.606000000000000227e+01
-3.415999999999999659e+01
2.098300000000000125e+02
5.139000000000000057e+01
9.399999999999999467e-01
-5.427000000000000313e+01
3.101999999999999957e+01
1.564499999999999886e+02
-8.015999999999999659e+01
-6.976000000000000512e+01
7.593000000000000682e+01
1.286999999999999886e+02
-1.410000000000000000e+02
-1.439600000000000080e+02
6.224000000000000199e+01
1.056200000000000045e+02
-3.856000000000000227e+01
-8.126000000000000512e+01
-3.721999999999999886e+01
-6.150000000000000355e+00
-1.508000000000000114e+02
-4.270000000000000284e+01
-3.089000000000000057e+01
2.437999999999999901e+01
-1.141000000000000014e+01
1.370000000000000107e+00
3.974000000000000199e+01
1.218400000000000034e+02
3.242999999999999972e+01
3.739999999999999858e+01
-5.589999999999999858e+00
1.428100000000000023e+02
6.014000000000000057e+01
-3.257000000000000028e+01
8.449999999999999289e+00
1.441800000000000068e+02
-1.189999999999999947e+00
-5.196999999999999886e+01
7.343000000000000682e+01
2.079699999999999989e+02
3.764999999999999858e+01
-4.178000000000000114e+01
-9.710000000000000853e+00
2.059900000000000091e+02
8.729999999999999716e+01
3.599000000000000199e+01
-5.200999999999999801e+01
1.725699999999999932e+02
7.151999999999999602e+01
-3.779999999999999805e+00
4.400000000000000355e+00
4.575000000000000000e+01
1.077099999999999937e+02
-6.634000000000000341e+01
-1.340099999999999909e+02
9.040999999999999659e+01
3.963000000000000256e+01
-6.214999999999999858e+01
-8.168999999999999773e+01
1.004200000000000017e+02
1.625699999999999932e+02
-2.053600000000000136e+02
-4.622099999999999795e+02
1.129399999999999977e+02
1.177800000000000011e+02
-3.011299999999999955e+02
-1.254800000000000040e+02
-1.319699999999999989e+02
3.649700000000000273e+02
-2.816000000000000014e+01
1.247800000000000011e+02
-1.757299999999999898e+02
1.110400000000000063e+02
4.446999999999999886e+01
-6.103999999999999915e+01
-6.265999999999999659e+01
8.243000000000000682e+01
-1.022500000000000000e+02
-3.835000000000000142e+01
5.549999999999999822e+00
2.212999999999999901e+01
-1.090900000000000034e+02
-5.257000000000000028e+01
-1.034500000000000028e+02
2.988100000000000023e+02
-7.360999999999999943e+01
-1.242800000000000011e+02
1.656999999999999886e+02
1.315500000000000114e+02
-2.213000000000000114e+02
1.254399999999999977e+02
-1.052600000000000051e+02
-9.200000000000000400e-01
-2.685999999999999943e+01
1.599000000000000021e+01
1.041099999999999994e+02
-5.336999999999999744e+01
-7.031999999999999318e+01
4.138000000000000256e+01
6.860000000000000320e+00
-1.914999999999999858e+01
-2.126999999999999957e+01
-2.055000000000000071e+01
2.621000000000000085e+01
-2.430000000000000160e+00
-2.400000000000000000e+01
-5.442999999999999972e+01
5.582999999999999829e+01
-1.998000000000000043e+01
4.127000000000000313e+01
-5.506000000000000227e+01
6.250000000000000000e+01
-5.929999999999999716e+00
5.114999999999999858e+01
-3.403000000000000114e+01
1.796999999999999886e+01
1.092999999999999972e+01
2.380000000000000071e+01
-1.409999999999999920e+00
-2.999999999999999889e-02
6.032999999999999829e+01
7.201000000000000512e+01
6.548999999999999488e+01
1.537800000000000011e+02
-1.987299999999999898e+02
-3.417999999999999972e+01
-1.837999999999999901e+01
-1.111500000000000057e+02
-8.773000000000000398e+01
4.264999999999999858e+01
3.523899999999999864e+02
-1.523899999999999864e+02
1.244999999999999929e+01
-5.753000000000000114e+01
3.742000000000000171e+01
-3.340999999999999659e+01
6.726999999999999602e+01
-4.521000000000000085e+01
1.620000000000000107e+00
-6.900000000000000355e+00
-6.592000000000000171e+01
2.177899999999999920e+02
-8.084999999999999432e+01
-1.638899999999999864e+02
1.921800000000000068e+02
-3.307999999999999829e+01
-7.700000000000000000e+01
-3.582000000000000028e+01
1.052999999999999936e+01
7.932999999999999829e+01
-1.919999999999999929e+01
-5.943999999999999773e+01
-4.379999999999999716e+01
1.285699999999999932e+02
5.082000000000000028e+01
-2.124000000000000057e+02
1.039000000000000057e+01
3.390999999999999659e+01
1.652800000000000011e+02
4.824000000000000199e+01
-5.945000000000000284e+01
6.313000000000000256e+01
-3.489000000000000057e+01
5.525000000000000000e+01
-1.151899999999999977e+02
7.740999999999999659e+01
-2.953999999999999915e+01
1.311800000000000068e+02
-2.326699999999999875e+02
6.156000000000000227e+01
-3.792999999999999972e+01
1.056899999999999977e+02
-2.261200000000000045e+02
4.039000000000000057e+01
3.105000000000000071e+01
2.390000000000000000e+02
-8.790000000000000568e+01
-1.117500000000000000e+02
3.725000000000000000e+01
7.373999999999999488e+01
-7.559999999999999432e+01
5.989999999999999858e+01
9.179999999999999716e+00
7.976000000000000512e+01
1.341000000000000014e+01
-1.433199999999999932e+02
-1.285999999999999943e+01
6.610999999999999943e+01
8.504000000000000625e+01
-7.243000000000000682e+01
5.992000000000000171e+01
-6.027000000000000313e+01
-1.707000000000000028e+01
1.858999999999999986e+01
6.601000000000000512e+01
-4.985000000000000142e+01
-5.952000000000000313e+01
6.096999999999999886e+01
-2.537000000000000099e+01
9.198000000000000398e+01
2.085999999999999943e+01
6.481999999999999318e+01
-5.610000000000000142e+01
5.727000000000000313e+01
-6.860000000000000320e+00
-1.601000000000000156e+01
-6.235000000000000142e+01
4.236999999999999744e+01
1.845900000000000034e+02
-5.089000000000000057e+01
-2.223000000000000043e+01
-3.264999999999999858e+01
-5.900000000000000355e+00
-2.028999999999999915e+01
4.981000000000000227e+01
-9.130000000000000782e+00
2.209999999999999964e+00
-3.291999999999999886e+02
3.621600000000000250e+02
3.753999999999999915e+01
-4.807000000000000028e+01
-1.127999999999999972e+02
1.271299999999999955e+02
8.418999999999999773e+01
-2.018100000000000023e+02
-2.856600000000000250e+02
1.876800000000000068e+02
1.185400000000000063e+02
2.544000000000000128e+01
7.604000000000000625e+01
8.984999999999999432e+01
5.013000000000000256e+01
-4.059999999999999609e+00
-4.692999999999999972e+01
1.698999999999999844e+01
1.202999999999999936e+01
-6.673999999999999488e+01
8.831000000000000227e+01
1.295699999999999932e+02
-1.769000000000000128e+01
2.873000000000000043e+01
-3.148999999999999844e+01
-1.311699999999999875e+02
-3.749000000000000199e+01
1.246099999999999994e+02
-6.660999999999999943e+01
2.882500000000000000e+02
-1.015000000000000000e+02
-2.392000000000000171e+01
3.967000000000000171e+01
-1.623000000000000043e+01
3.660000000000000142e+00
-4.599999999999999645e+00
-2.001999999999999957e+01
-5.046000000000000085e+01
4.164000000000000057e+01
1.533999999999999986e+01
5.681000000000000227e+01
-1.181400000000000006e+02
1.780500000000000114e+02
-5.792000000000000171e+01
-3.670000000000000284e+01
1.646999999999999886e+01
1.025699999999999932e+02
9.675000000000000000e+01
-2.024600000000000080e+02
7.487000000000000455e+01
-4.567000000000000171e+01
2.425000000000000000e+02
-8.004000000000000625e+01
8.671999999999999886e+01
-1.890600000000000023e+02
1.885900000000000034e+02
-3.028000000000000114e+01
7.414000000000000057e+01
-1.942100000000000080e+02
1.554499999999999886e+02
-9.839999999999999858e+00
3.679999999999999716e+01
-1.786500000000000057e+02
1.419999999999999929e+01
7.200000000000000000e+01
-1.889999999999999902e+00
-9.693000000000000682e+01
-2.973000000000000043e+01
1.424099999999999966e+02
-7.232999999999999829e+01
-4.284000000000000341e+01
2.833999999999999986e+01
2.160600000000000023e+02
-9.521999999999999886e+01
6.178999999999999915e+01
-1.210499999999999972e+02
2.226899999999999977e+02
-1.353899999999999864e+02
2.957000000000000028e+01
-1.263900000000000006e+02
1.814199999999999875e+02
-1.029800000000000040e+02
5.143999999999999773e+01
-1.592599999999999909e+02
1.192000000000000028e+02
-4.009999999999999787e+00
-2.108999999999999986e+01
-1.245300000000000011e+02
2.979999999999999982e+00
7.231999999999999318e+01
-3.634000000000000341e+01
-3.842999999999999972e+01
-9.701999999999999602e+01
1.241299999999999955e+02
-7.473000000000000398e+01
8.585999999999999943e+01
-1.326800000000000068e+02
2.751700000000000159e+02
-1.446299999999999955e+02
1.135400000000000063e+02
-1.678799999999999955e+02
1.955399999999999920e+02
3.770000000000000018e+00
5.314999999999999858e+01
-1.201700000000000017e+02
-1.379999999999999893e+00
5.810999999999999943e+01
-4.506000000000000227e+01
-1.139399999999999977e+02
-3.992999999999999972e+01
1.162600000000000051e+02
-1.013900000000000006e+02
-1.481000000000000050e+01
8.279999999999999361e+00
2.236699999999999875e+02
1.249000000000000021e+01
1.015600000000000023e+02
-8.970000000000000639e+00
1.653400000000000034e+02
-1.234800000000000040e+02
9.619999999999999218e+00
-7.131000000000000227e+01
5.767999999999999972e+01
1.331000000000000050e+01
6.007000000000000028e+01
-8.373999999999999488e+01
6.222999999999999687e+01
-6.818999999999999773e+01
8.779999999999999361e+00
-2.015699999999999932e+02
5.299999999999999822e+00
1.083100000000000023e+02
-5.332999999999999829e+01
-1.508899999999999864e+02
9.398999999999999488e+01
1.405900000000000034e+02
-8.251999999999999602e+01
5.870000000000000284e+01
3.847999999999999687e+01
1.564300000000000068e+02
-9.315999999999999659e+01
2.859999999999999876e+00
-1.514900000000000091e+02
1.276099999999999994e+02
8.540000000000000568e+01
-1.413100000000000023e+02
-1.696000000000000085e+01
2.128000000000000114e+01
9.943000000000000682e+01
8.559000000000000341e+01
-1.822700000000000102e+02
1.448700000000000045e+02
-2.101000000000000156e+01
1.925000000000000000e+01
-3.625999999999999801e+01
-9.504999999999999716e+01
3.196000000000000085e+01
-6.360000000000000320e+00
2.273000000000000043e+01
1.318999999999999950e+01
2.989999999999999858e+01
-5.206000000000000227e+01
1.038900000000000006e+02
-1.277999999999999936e+01
-3.458100000000000023e+02
2.864499999999999886e+02
1.759499999999999886e+02
-1.795699999999999932e+02
2.725000000000000000e+01
1.884900000000000091e+02
-1.040600000000000023e+02
1.624199999999999875e+02
-1.175000000000000000e+01
1.157900000000000063e+02
-2.212999999999999901e+01
2.010999999999999943e+01
-1.249000000000000021e+01
-1.028999999999999915e+01
4.799999999999999822e+00
1.669999999999999929e+01
3.459999999999999964e+00
-1.648600000000000136e+02
1.466999999999999886e+02
-1.382700000000000102e+02
1.306399999999999864e+02
1.097999999999999972e+02
-1.283799999999999955e+02
5.428000000000000114e+01
-3.085000000000000142e+01
2.528000000000000114e+01
-7.165000000000000568e+01
8.560999999999999943e+01
-2.253999999999999915e+01
7.919999999999999929e+00
-4.360000000000000320e+00
7.521999999999999886e+01
-2.453600000000000136e+02
5.310000000000000142e+01
1.297599999999999909e+02
-1.853000000000000114e+01
-9.519999999999999574e+00
9.609999999999999432e+00
1.851999999999999957e+01
-1.113000000000000078e+01
4.870000000000000284e+01
-2.460000000000000142e+01
-4.749000000000000199e+01
-2.091000000000000014e+01
-2.607999999999999829e+01
9.293000000000000682e+01
-1.268999999999999950e+01
6.070000000000000284e+01
-1.102600000000000051e+02
2.171999999999999886e+01
2.955999999999999872e+01
5.789999999999999858e+01
-7.917000000000000171e+01
-3.509999999999999787e+00
-1.183999999999999986e+01
2.828999999999999915e+01
-5.980000000000000426e+00
4.796999999999999886e+01
3.569999999999999840e+00
4.227000000000000313e+01
5.500000000000000444e-01
-5.725999999999999801e+01
7.690000000000000391e+00
-4.847999999999999687e+01
1.065499999999999972e+02
3.720000000000000284e+01
1.600800000000000125e+02
-4.849999999999999645e+00
1.853999999999999915e+01
2.607999999999999829e+01
-2.000099999999999909e+02
-1.618199999999999932e+02
-3.339999999999999858e+00
4.259999999999999787e+00
2.953000000000000114e+01
-4.695000000000000284e+01
-4.007000000000000028e+01
2.658999999999999986e+01
-5.075000000000000000e+01
4.164999999999999858e+01
1.955000000000000071e+01
-9.449999999999999289e+00
-6.790000000000000036e+00
6.186999999999999744e+01
7.790000000000000036e+00
-5.065999999999999659e+01
-9.050000000000000711e+00
7.773999999999999488e+01
-1.869999999999999929e+01
-2.210999999999999943e+01
7.317000000000000171e+01
6.290000000000000036e+00
-4.150000000000000355e+00
7.089000000000000057e+01
4.203000000000000114e+01
-2.308999999999999986e+01
-1.745900000000000034e+02
6.864000000000000057e+01
4.289999999999999858e+01
3.402000000000000313e+01
4.578999999999999915e+01
-4.214999999999999858e+01
-5.240000000000000213e+00
-2.635000000000000142e+01
4.534000000000000341e+01
1.421000000000000085e+01
1.125000000000000000e+02
-4.597999999999999687e+01
1.302100000000000080e+02
-6.929099999999999682e+02
4.770500000000000114e+02
1.368300000000000125e+02
-1.538700000000000045e+02
-2.387999999999999901e+01
1.283199999999999932e+02
1.823999999999999844e+01
-3.169999999999999929e+00
1.165000000000000036e+01
-9.339999999999999858e+00
-4.769999999999999574e+00
-4.502000000000000313e+01
-6.519999999999999574e+00
-1.521299999999999955e+02
-1.300500000000000114e+02
1.663899999999999864e+02
3.117500000000000000e+02
-4.742999999999999972e+01
6.740000000000000213e+00
-2.273000000000000043e+01
-5.177000000000000313e+01
2.071999999999999886e+01
2.730000000000000071e+01
6.230000000000000426e+00
8.589999999999999858e+00
4.049999999999999822e+00
-7.099999999999999645e+00
1.199000000000000021e+01
-4.514000000000000057e+01
1.751000000000000156e+01
-3.169000000000000128e+01
1.517999999999999972e+01
-4.110000000000000142e+01
9.995000000000000284e+01
1.447100000000000080e+02
-1.204699999999999989e+02
-2.867999999999999972e+01
-1.783100000000000023e+02
-4.928999999999999915e+01
2.852400000000000091e+02
1.824699999999999989e+02
-2.837500000000000000e+02
4.285999999999999943e+01
-9.660999999999999943e+01
1.947400000000000091e+02
1.604399999999999977e+02
6.268999999999999773e+01
-1.310000000000000000e+02
-1.024000000000000057e+02
3.490999999999999659e+01
1.761500000000000057e+02
-1.778999999999999915e+01
2.105500000000000114e+02
-1.586299999999999955e+02
-5.879999999999999716e+01
-6.570000000000000284e+00
1.794000000000000128e+01
-5.497999999999999687e+01
4.850999999999999801e+01
1.758999999999999986e+01
5.709999999999999964e+00
-1.040000000000000036e+00
1.151999999999999957e+01
-4.034000000000000341e+01
3.310000000000000053e+00
-4.896000000000000085e+01
4.167999999999999972e+01
5.839999999999999858e+00
1.565000000000000036e+01
1.769999999999999929e+01
3.840999999999999659e+01
-4.295000000000000284e+01
-2.271000000000000085e+01
1.424000000000000021e+01
1.169999999999999929e+00
-2.709999999999999964e+00
9.700000000000000000e+01
-8.073000000000000398e+01
1.989999999999999991e+00
-2.278999999999999915e+01
-7.117000000000000171e+01
4.195000000000000284e+01
9.599999999999999645e-01
1.750000000000000000e+01
1.962999999999999901e+01
5.532000000000000028e+01
-2.748999999999999844e+01
-8.814000000000000057e+01
-1.451999999999999957e+01
1.431200000000000045e+02
-8.598000000000000398e+01
-2.055999999999999872e+01
-1.130499999999999972e+02
1.043299999999999983e+02
-4.929999999999999716e+00
9.929999999999999716e+00
-1.275999999999999979e+01
2.051999999999999957e+01
-1.588000000000000078e+01
-1.912000000000000099e+01
-2.107999999999999829e+01
4.878999999999999915e+01
-7.779000000000000625e+01
-1.005000000000000071e+01
5.932999999999999829e+01
3.299000000000000199e+01
5.977000000000000313e+01
-3.274000000000000199e+01
-6.876999999999999602e+01
-1.156299999999999955e+02
1.824799999999999898e+02
-4.988000000000000256e+01
-1.714499999999999886e+02
1.464699999999999989e+02
5.639000000000000057e+01
1.201999999999999957e+01
1.328999999999999915e+01
-2.228999999999999915e+01
-8.875000000000000000e+01
-5.861999999999999744e+01
-2.201899999999999977e+02
-5.168999999999999773e+01
7.373999999999999488e+01
3.500699999999999932e+02
1.418199999999999932e+02
1.365800000000000125e+02
4.816100000000000136e+02
-4.198299999999999841e+02
-5.414999999999999858e+01
4.299999999999999822e+00
7.019999999999999574e+00
-2.514999999999999858e+01
5.000000000000000278e-02
-1.833999999999999986e+01
2.776999999999999957e+01
1.473000000000000043e+01
-2.517999999999999972e+01
-2.007999999999999829e+01
-1.796999999999999886e+01
2.662999999999999901e+01
2.955999999999999872e+01
-4.175999999999999801e+01
-9.373000000000000398e+01
-7.062000000000000455e+01
1.546800000000000068e+02
7.256999999999999318e+01
9.099999999999999645e+00
-7.900000000000000355e-01
1.290000000000000036e+01
3.754999999999999716e+01
-6.771999999999999886e+01
-2.869999999999999929e+01
3.203000000000000114e+01
-5.236999999999999744e+01
-7.682999999999999829e+01
3.135999999999999943e+01
9.529999999999999361e+00
-1.147099999999999937e+02
-4.082999999999999829e+01
-3.158999999999999986e+01
8.029999999999999716e+01
-1.379000000000000057e+02
2.200699999999999932e+02
-7.759999999999999787e+00
-9.000000000000000222e-01
2.548000000000000043e+01
-3.089200000000000159e+02
2.705199999999999818e+02
-6.231000000000000227e+01
-6.420000000000000284e+01
5.336999999999999744e+01
-1.139699999999999989e+02
1.097000000000000064e+01
-5.120000000000000107e+00
8.479000000000000625e+01
-3.797999999999999687e+01
3.425999999999999801e+01
7.009000000000000341e+01
-1.269200000000000017e+02
-7.506000000000000227e+01
-6.063000000000000256e+01
1.349300000000000068e+02
-8.984000000000000341e+01
-7.087000000000000455e+01
2.866700000000000159e+02
-2.210800000000000125e+02
-1.789199999999999875e+02
1.100199999999999960e+02
5.121999999999999886e+01
1.960000000000000142e+01
-2.755000000000000071e+01
6.035000000000000142e+01
-1.450000000000000000e+01
3.697999999999999687e+01
-3.722999999999999687e+01
-1.726000000000000156e+01
-1.678999999999999915e+01
-5.696999999999999886e+01
9.654000000000000625e+01
-6.389999999999999858e+01
8.851999999999999602e+01
7.431000000000000227e+01
2.605999999999999872e+01
-6.612000000000000455e+01
-6.282999999999999829e+01
5.475999999999999801e+01
3.946000000000000085e+01
1.762000000000000099e+01
3.859999999999999876e+00
1.823000000000000043e+01
-2.301000000000000156e+01
-4.632999999999999829e+01
-7.981000000000000227e+01
3.814000000000000057e+01
-3.089999999999999858e+00
4.867999999999999972e+01
1.234999999999999964e+01
-6.984999999999999432e+01
-8.587999999999999545e+01
1.289000000000000057e+01
3.959000000000000341e+01
2.057000000000000028e+01
2.287000000000000099e+01
2.051999999999999957e+01
-1.581000000000000050e+01
-1.964000000000000057e+01
3.790000000000000036e+00
8.551000000000000512e+01
-5.718999999999999773e+01
-2.146399999999999864e+02
3.606499999999999773e+02
7.173000000000000398e+01
-7.854999999999999716e+01
-1.094099999999999966e+02
5.243999999999999773e+01
1.884199999999999875e+02
-4.951600000000000250e+02
2.948700000000000045e+02
-2.726999999999999957e+01
-2.735999999999999943e+01
-1.829499999999999886e+02
3.377000000000000313e+01
3.734000000000000341e+01
2.255999999999999872e+01
-1.921000000000000085e+01
-3.209999999999999964e+00
-6.280000000000000249e+00
-2.762999999999999901e+01
1.767999999999999972e+01
2.180999999999999872e+01
6.018999999999999773e+01
-1.174000000000000021e+01
-1.348899999999999864e+02
-1.430000000000000071e+01
4.968999999999999773e+01
3.660000000000000142e+01
-1.828899999999999864e+02
1.352299999999999898e+02
4.544700000000000273e+02
-3.218899999999999864e+02
-2.205999999999999943e+02
5.324000000000000199e+01
7.812000000000000455e+01
7.480000000000000426e+00
1.540000000000000036e+00
-4.349999999999999645e+00
-1.315000000000000036e+01
2.521999999999999886e+01
1.752599999999999909e+02
-1.910999999999999943e+02
8.431999999999999318e+01
-2.434600000000000080e+02
1.662899999999999920e+02
2.755000000000000000e+02
5.613000000000000256e+01
7.828000000000000114e+01
4.460999999999999943e+01
3.419999999999999929e+00
-4.015199999999999818e+02
2.252400000000000091e+02
1.316500000000000057e+02
-9.070000000000000284e+00
-2.173000000000000043e+01
2.923999999999999844e+01
6.900000000000000000e+01
1.666200000000000045e+02
7.515999999999999659e+01
2.673999999999999844e+01
3.775000000000000000e+01
-1.803000000000000114e+02
-2.000600000000000023e+02
-6.053999999999999773e+02
-7.945399999999999636e+02
5.216799999999999500e+02
2.189399999999999977e+02
6.534000000000000341e+01
-1.143799999999999955e+02
-2.289999999999999858e+01
2.577599999999999909e+02
2.837300000000000182e+02
-3.137999999999999901e+01
6.926000000000000512e+01
-7.268999999999999773e+01
1.821500000000000057e+02
8.370999999999999375e+01
4.060899999999999750e+02
-4.870799999999999841e+02
-4.912900000000000205e+02
-4.557999999999999829e+01
1.511899999999999977e+02
1.253100000000000023e+02
-1.716100000000000136e+02
-8.351000000000000512e+01
8.929999999999999716e+01
2.069999999999999929e+01
-9.415999999999999659e+01
-4.813000000000000256e+01
-3.289000000000000057e+01
3.052699999999999818e+02
-1.877100000000000080e+02
-9.693000000000000682e+01
-3.403999999999999915e+01
3.231000000000000227e+01
-1.155300000000000011e+02
-8.409000000000000341e+01
-7.787000000000000455e+01
9.073000000000000398e+01
-2.955000000000000071e+01
-3.580000000000000071e+00
-1.105000000000000071e+01
-4.202000000000000313e+01
3.135999999999999943e+01
-2.660999999999999943e+01
6.943000000000000682e+01
2.894000000000000128e+01
-2.123000000000000043e+01
6.899999999999999467e-01
3.599000000000000199e+01
7.215000000000000568e+01
-3.909599999999999795e+02
1.994300000000000068e+02
2.528400000000000034e+02
-1.114500000000000028e+02
-4.176999999999999886e+02
3.772500000000000000e+02
-1.686599999999999966e+02
-2.159399999999999977e+02
3.531600000000000250e+02
5.224000000000000199e+01
-1.266000000000000014e+01
-1.737999999999999901e+01
-1.076999999999999957e+01
-2.276000000000000156e+01
-3.388000000000000256e+01
2.894100000000000250e+02
-2.801000000000000156e+01
-2.114300000000000068e+02
1.853400000000000034e+02
9.562999999999999545e+01
-1.515200000000000102e+02
-9.431000000000000227e+01
3.263000000000000256e+01
6.987999999999999545e+01
3.108999999999999986e+01
-9.789999999999999147e+00
3.180000000000000160e+00
1.300999999999999979e+01
4.580000000000000071e+00
-1.721000000000000085e+01
3.069999999999999840e+00
-7.490000000000000213e+00
-9.399999999999999467e-01
-7.309999999999999609e+00
7.469999999999999751e+00
-8.679999999999999716e+00
1.159999999999999964e+01
-2.109999999999999876e+00
-2.480000000000000071e+01
1.599000000000000021e+01
6.899999999999999467e-01
-1.264000000000000057e+01
1.444999999999999929e+01
-1.119999999999999929e+01
-9.580000000000000071e+00
8.470000000000000639e+00
6.639999999999999680e+00
1.315000000000000036e+01
1.799999999999999933e-01
1.409999999999999964e+01
-7.070000000000000284e+00
-1.794000000000000128e+01
1.219999999999999929e+01
-2.569999999999999840e+00
-1.994000000000000128e+01
1.457000000000000028e+01
-1.199999999999999956e-01
-9.570000000000000284e+00
2.149999999999999911e+00
3.100000000000000089e+00
4.699999999999999734e-01
-6.019999999999999574e+00
1.431000000000000050e+01
-2.600000000000000089e+00
-1.384999999999999964e+01
1.482000000000000028e+01
5.580000000000000071e+00
-7.799999999999999822e+00
5.820000000000000284e+00
9.400000000000000355e+00
-6.969999999999999751e+00
-1.444999999999999929e+01
9.640000000000000568e+00
3.609999999999999876e+00
-2.592999999999999972e+01
2.196999999999999886e+01
4.309999999999999609e+00
-3.819999999999999840e+00
-5.309999999999999609e+00
6.730000000000000426e+00
2.600000000000000089e-01
-2.067000000000000171e+01
8.529999999999999361e+00
1.290000000000000036e+00
-1.991000000000000014e+01
1.228999999999999915e+01
6.480000000000000426e+00
1.989999999999999991e+00
-5.330000000000000071e+00
8.980000000000000426e+00
1.810000000000000053e+00
-2.796999999999999886e+01
1.005000000000000071e+01
3.109999999999999876e+00
-1.207000000000000028e+01
1.616000000000000014e+01
1.271000000000000085e+01
3.759999999999999787e+00
-1.272000000000000064e+01
9.900000000000000355e+00
2.680000000000000160e+00
-2.403000000000000114e+01
1.490000000000000036e+01
4.450000000000000178e+00
-2.010000000000000142e+01
1.152999999999999936e+01
1.258999999999999986e+01
-2.169999999999999929e+00
-1.599000000000000021e+01
1.910000000000000142e+01
1.059999999999999964e+01
-2.151999999999999957e+01
6.530000000000000249e+00
4.139999999999999680e+00
-1.860000000000000142e+01
1.900000000000000022e-01
1.443999999999999950e+01
-3.200000000000000067e-01
-1.451999999999999957e+01
1.885000000000000142e+01
9.500000000000000000e+00
-1.880999999999999872e+01
1.211999999999999922e+01
8.929999999999999716e+00
-1.028999999999999915e+01
-2.890000000000000124e+00
1.959999999999999964e+00
-1.075000000000000000e+01
-1.006000000000000050e+01
1.530000000000000071e+01
5.969999999999999751e+00
-1.531000000000000050e+01
2.591000000000000014e+01
1.082000000000000028e+01
-1.960999999999999943e+01
4.540000000000000036e+00
4.139999999999999680e+00
-1.407000000000000028e+01
-6.959999999999999964e+00
1.326999999999999957e+01
-4.910000000000000142e+00
-1.662999999999999901e+01
2.462000000000000099e+01
1.322000000000000064e+01
-2.544000000000000128e+01
1.261999999999999922e+01
5.900000000000000355e+00
-1.951000000000000156e+01
4.809999999999999609e+00
1.030000000000000071e+01
-3.060000000000000053e+00
-6.492000000000000171e+01
2.244000000000000128e+01
3.055000000000000071e+01
2.099600000000000080e+02
-1.865099999999999909e+02
-2.129099999999999966e+02
9.992000000000000171e+01
2.280999999999999872e+01
4.353999999999999915e+01
-3.083999999999999986e+01
2.123000000000000043e+01
4.136999999999999744e+01
2.082999999999999829e+01
-3.910000000000000142e+01
-2.542000000000000171e+01
-1.298000000000000043e+01
-6.089999999999999858e+00
1.696000000000000085e+01
-1.143999999999999950e+01
4.600000000000000200e-01
1.998999999999999844e+01
-2.167000000000000171e+01
-2.116000000000000014e+01
2.325000000000000000e+01
1.989999999999999991e+00
-3.854999999999999716e+01
8.140000000000000568e+00
-1.673000000000000043e+01
-2.455000000000000071e+01
4.624000000000000199e+01
-4.179999999999999716e+00
-3.774000000000000199e+01
3.407000000000000028e+01
2.005999999999999872e+01
-4.238000000000000256e+01
9.000000000000000222e-01
2.917999999999999972e+01
-3.685999999999999943e+01
7.580000000000000071e+00
3.757000000000000028e+01
-1.447000000000000064e+01
-2.328000000000000114e+01
3.173000000000000043e+01
1.181000000000000050e+01
-3.300000000000000000e+01
2.719999999999999929e+01
-3.979999999999999982e+00
-3.749000000000000199e+01
1.858999999999999986e+01
1.559999999999999964e+01
-2.130000000000000071e+01
-1.687999999999999901e+01
1.444999999999999929e+01
1.144999999999999929e+01
-2.112999999999999901e+01
3.114000000000000057e+01
3.189999999999999947e+00
-3.454999999999999716e+01
1.025000000000000000e+01
1.313000000000000078e+01
-2.114999999999999858e+01
-6.809999999999999609e+00
3.414999999999999858e+01
1.500999999999999979e+01
-2.708999999999999986e+01
1.775000000000000000e+01
-9.320000000000000284e+00
-4.650999999999999801e+01
2.607000000000000028e+01
1.839999999999999858e+01
-2.439999999999999947e+00
1.230999999999999943e+02
8.104000000000000625e+01
-1.435600000000000023e+02
-1.644900000000000091e+02
-2.100000000000000089e+00
-9.899999999999999911e-01
-2.720000000000000195e+00
2.069999999999999929e+01
-1.440000000000000036e+01
-3.281000000000000227e+01
2.798999999999999844e+01
9.220000000000000639e+00
-4.164999999999999858e+01
3.596999999999999886e+01
2.141000000000000014e+01
-2.769000000000000128e+01
-1.328999999999999915e+01
1.364000000000000057e+01
-6.951000000000000512e+01
4.796999999999999886e+01
4.806000000000000227e+01
-6.145000000000000284e+01
-4.664000000000000057e+01
7.168000000000000682e+01
2.364000000000000057e+01
-1.475000000000000000e+01
-4.432000000000000028e+01
-2.770000000000000018e+00
-5.110000000000000320e+00
-3.990999999999999659e+01
4.096999999999999886e+01
7.990000000000000213e+00
-5.027000000000000313e+01
6.468999999999999773e+01
9.119999999999999218e+00
-5.071000000000000085e+01
2.867000000000000171e+01
4.489999999999999858e+01
-1.127999999999999936e+01
-6.593999999999999773e+01
2.271000000000000085e+01
9.380000000000000782e+00
-3.503000000000000114e+01
2.910999999999999943e+01
-1.510000000000000009e+00
-4.835999999999999943e+01
3.485000000000000142e+01
3.390999999999999659e+01
-1.566000000000000014e+01
1.058000000000000007e+01
2.160000000000000142e+01
-3.536999999999999744e+01
-5.786999999999999744e+01
3.214000000000000057e+01
-1.870000000000000107e+00
-6.154999999999999716e+01
8.562999999999999545e+01
3.779999999999999716e+01
-8.846999999999999886e+01
-1.490000000000000036e+01
8.143000000000000682e+01
3.528999999999999915e+01
-2.462000000000000099e+01
-4.529999999999999716e+01
-2.105000000000000071e+01
3.419999999999999929e+00
4.928999999999999915e+01
-1.097000000000000064e+01
-6.313000000000000256e+01
5.100999999999999801e+01
3.220000000000000284e+01
-5.243999999999999773e+01
2.512000000000000099e+01
-1.008000000000000007e+01
-5.945000000000000284e+01
4.325000000000000000e+01
2.028000000000000114e+01
-3.729999999999999716e+01
2.885000000000000142e+01
3.990999999999999659e+01
-2.339000000000000057e+01
-3.550000000000000000e+01
6.448000000000000398e+01
1.660000000000000142e+01
-5.650000000000000000e+01
2.658999999999999986e+01
2.560000000000000053e+00
-4.927000000000000313e+01
8.789999999999999147e+00
3.571999999999999886e+01
-1.671000000000000085e+01
-4.764000000000000057e+01
5.196000000000000085e+01
1.648000000000000043e+01
-4.267000000000000171e+01
5.324000000000000199e+01
-1.530000000000000027e+00
-6.479000000000000625e+01
3.578999999999999915e+01
2.058999999999999986e+01
-3.057000000000000028e+01
1.493999999999999950e+01
3.128999999999999915e+01
-2.657999999999999829e+01
-1.983999999999999986e+01
4.775999999999999801e+01
6.309999999999999609e+00
-5.734000000000000341e+01
3.354999999999999716e+01
-5.629999999999999893e+00
-7.140999999999999659e+01
4.603000000000000114e+01
1.392999999999999972e+01
-4.620000000000000284e+01
5.910999999999999943e+01
3.406000000000000227e+01
-3.410000000000000142e+01
-1.100000000000000089e+00
6.404000000000000625e+01
1.199000000000000021e+01
-8.670000000000000284e+01
1.178999999999999915e+01
-2.080000000000000071e+01
-7.095999999999999375e+01
4.177000000000000313e+01
3.277000000000000313e+01
-2.589000000000000057e+01
2.339999999999999858e+01
4.904999999999999716e+01
-1.325999999999999979e+01
-3.692999999999999972e+01
4.767999999999999972e+01
-1.710000000000000142e+01
-8.820000000000000284e+01
1.424000000000000021e+01
4.671000000000000085e+01
-3.496000000000000085e+01
3.250000000000000000e+01
3.588000000000000256e+01
-2.617000000000000171e+01
-2.487999999999999901e+01
6.203000000000000114e+01
1.074000000000000021e+01
-7.428000000000000114e+01
2.367999999999999972e+01
3.830000000000000071e+00
-4.543999999999999773e+01
3.877000000000000313e+01
2.992000000000000171e+01
-3.454999999999999716e+01
1.469999999999999929e+01
6.601000000000000512e+01
-6.546999999999999886e+01
-2.576999999999999957e+01
6.350000000000000000e+01
-4.347999999999999687e+01
-7.982999999999999829e+01
9.470000000000000284e+01
-1.223000000000000043e+01
-9.189000000000000057e+01
3.589999999999999858e+01
4.692999999999999972e+01
1.520000000000000018e+00
2.348000000000000043e+01
9.904000000000000625e+01
-2.008999999999999986e+01
-1.204800000000000040e+02
-2.740000000000000213e+00
-1.014000000000000057e+02
-1.877500000000000000e+02
9.987000000000000455e+01
8.373000000000000398e+01
-3.404999999999999716e+01
9.698000000000000398e+01
1.117900000000000063e+02
4.638000000000000256e+01
9.960000000000000853e+00
1.596000000000000085e+01
-9.484000000000000341e+01
-5.346999999999999886e+01
2.687000000000000099e+01
-2.207999999999999829e+01
-4.538000000000000256e+01
5.253999999999999915e+01
8.550000000000000711e+00
-3.539000000000000057e+01
7.553000000000000114e+01
7.790000000000000036e+00
-6.715999999999999659e+01
1.469999999999999973e+00
-1.901000000000000156e+01
-4.722999999999999687e+01
2.928999999999999915e+01
3.768999999999999773e+01
-2.730000000000000071e+01
-2.235999999999999943e+01
5.204999999999999716e+01
1.350000000000000000e+01
-4.689999999999999858e+01
5.642000000000000171e+01
5.860000000000000320e+00
-7.125000000000000000e+01
1.278999999999999915e+01
1.989999999999999858e+01
-2.896000000000000085e+01
-1.614000000000000057e+01
4.220000000000000284e+01
-7.139999999999999680e+00
-4.724000000000000199e+01
8.243999999999999773e+01
3.677000000000000313e+01
-5.545000000000000284e+01
9.399999999999999467e-01
-7.980000000000000426e+00
-4.727000000000000313e+01
8.169999999999999929e+00
3.879999999999999716e+01
-2.101000000000000156e+01
-3.685000000000000142e+01
4.456000000000000227e+01
4.696999999999999886e+01
3.363000000000000256e+01
4.234000000000000341e+01
-6.285000000000000142e+01
-9.109999999999999432e+01
-5.629999999999999893e+00
7.990000000000000213e+00
-4.309000000000000341e+01
1.721000000000000085e+01
4.453000000000000114e+01
-1.221000000000000085e+01
-1.770000000000000018e+00
8.518999999999999773e+01
1.603000000000000114e+01
-7.504000000000000625e+01
7.030000000000000249e+00
1.969000000000000128e+01
-2.130999999999999872e+01
-3.359000000000000341e+01
-3.370000000000000107e+00
-6.110000000000000320e+00
7.203000000000000114e+01
7.443999999999999773e+01
-2.173000000000000043e+01
-6.428000000000000114e+01
5.660000000000000142e+00
-5.586999999999999744e+01
-9.254999999999999716e+01
3.596000000000000085e+01
8.231000000000000227e+01
6.322999999999999687e+01
1.333100000000000023e+02
-4.417000000000000171e+01
-9.310999999999999943e+01
1.167999999999999972e+01
-2.616000000000000014e+01
-6.912000000000000455e+01
1.639999999999999858e+01
-8.720000000000000639e+00
-5.449000000000000199e+01
2.478999999999999915e+01
7.239000000000000057e+01
-8.256999999999999318e+01
-1.736899999999999977e+02
3.101000000000000156e+01
1.160499999999999972e+02
-7.950000000000000178e+00
1.723999999999999844e+01
1.017300000000000040e+02
1.340800000000000125e+02
-2.735000000000000142e+01
-9.043999999999999773e+01
-7.306999999999999318e+01
3.403999999999999915e+01
3.907000000000000028e+01
-2.630999999999999872e+01
-5.467999999999999972e+01
5.553999999999999915e+01
2.032999999999999829e+01
2.544000000000000128e+01
2.375900000000000034e+02
-3.367000000000000171e+01
-1.601500000000000057e+02
-4.532000000000000028e+01
-6.887000000000000455e+01
-6.439000000000000057e+01
3.864000000000000057e+01
4.828000000000000114e+01
-4.017999999999999972e+01
1.506000000000000050e+01
3.850000000000000000e+01
-2.501999999999999957e+01
-2.626999999999999957e+01
2.116000000000000014e+01
6.556999999999999318e+01
-4.400000000000000022e-01
-2.982000000000000028e+01
-4.499000000000000199e+01
-1.842000000000000171e+01
5.217999999999999972e+01
3.689000000000000057e+01
-1.430000000000000071e+01
-5.168999999999999773e+01
9.779999999999999361e+00
3.402000000000000313e+01
-3.155999999999999872e+01
3.235999999999999943e+01
2.782999999999999829e+01
-4.609000000000000341e+01
-1.168999999999999950e+01
2.770000000000000018e+00
1.268999999999999950e+01
-8.259999999999999787e+00
4.990000000000000213e+00
1.288000000000000078e+01
-6.515999999999999659e+01
4.671000000000000085e+01
5.417999999999999972e+01
-4.953000000000000114e+01
6.723999999999999488e+01
3.979999999999999982e+00
-9.887000000000000455e+01
3.410999999999999943e+01
-9.210000000000000853e+00
-3.774000000000000199e+01
1.601999999999999957e+01
3.386999999999999744e+01
-3.319999999999999840e+00
-3.925000000000000000e+01
5.427000000000000313e+01
1.141000000000000014e+01
-4.403000000000000114e+01
1.066000000000000014e+01
6.876999999999999602e+01
-7.126999999999999602e+01
3.907000000000000028e+01
6.230000000000000426e+00
-4.020000000000000284e+01
1.025000000000000000e+01
4.624000000000000199e+01
8.599999999999999867e-01
-3.986999999999999744e+01
6.542000000000000171e+01
1.238000000000000078e+01
-7.692000000000000171e+01
2.437999999999999901e+01
-5.339999999999999858e+00
-5.646999999999999886e+01
3.842000000000000171e+01
3.353999999999999915e+01
-2.512999999999999901e+01
-1.360000000000000098e+00
5.200000000000000000e+01
-1.591999999999999993e+01
-6.232999999999999829e+01
6.970000000000000284e+01
2.529999999999999805e+00
-8.337999999999999545e+01
2.523999999999999844e+01
2.821999999999999886e+01
-1.907000000000000028e+01
-2.410000000000000142e+00
4.268999999999999773e+01
-1.322000000000000064e+01
-7.610999999999999943e+01
8.815000000000000568e+01
1.325000000000000000e+01
-7.135999999999999943e+01
2.930999999999999872e+01
-6.660000000000000142e+00
-3.764000000000000057e+01
3.504999999999999716e+01
3.721000000000000085e+01
-2.530999999999999872e+01
-1.125999999999999979e+01
4.567000000000000171e+01
1.733999999999999986e+01
-3.353999999999999915e+01
4.318999999999999773e+01
-1.828999999999999915e+01
-9.175000000000000000e+01
3.681000000000000227e+01
2.007999999999999829e+01
-4.474000000000000199e+01
2.996000000000000085e+01
2.908999999999999986e+01
-1.941000000000000014e+01
2.250000000000000000e+00
7.809999999999999432e+01
6.010999999999999943e+01
-5.557000000000000028e+01
-3.546999999999999886e+01
-2.473999999999999844e+01
-7.020000000000000284e+01
2.628999999999999915e+01
2.380999999999999872e+01
-9.250000000000000000e+00
9.431999999999999318e+01
1.708100000000000023e+02
-2.854800000000000182e+02
-1.992199999999999989e+02
1.177199999999999989e+02
2.751999999999999957e+01
-7.576999999999999602e+01
5.339000000000000057e+01
1.209999999999999964e+01
-4.735000000000000142e+01
4.178000000000000114e+01
5.371999999999999886e+01
-4.790999999999999659e+01
-1.025000000000000000e+01
8.859999999999999432e+01
2.464999999999999858e+01
-7.034000000000000341e+01
3.345000000000000284e+01
-2.648999999999999844e+01
-4.061999999999999744e+01
9.770000000000000284e+01
7.099999999999999645e-01
-8.421999999999999886e+01
2.003999999999999915e+01
4.734000000000000341e+01
1.610000000000000142e+01
2.319999999999999929e+01
7.820000000000000284e+00
-9.660999999999999943e+01
-1.019399999999999977e+02
3.264999999999999858e+01
4.910999999999999943e+01
-8.029999999999999361e+00
7.629000000000000625e+01
-4.754999999999999716e+01
-1.006299999999999955e+02
9.546999999999999886e+01
6.206000000000000227e+01
-7.215000000000000568e+01
-4.290999999999999659e+01
3.000000000000000000e+00
-6.940000000000000391e+00
-3.083999999999999986e+01
5.521999999999999886e+01
-2.796999999999999886e+01
-1.192699999999999960e+02
8.495000000000000284e+01
8.254999999999999716e+01
1.397000000000000064e+01
8.114000000000000057e+01
-1.807999999999999829e+01
-6.153000000000000114e+01
-2.837999999999999901e+01
5.752000000000000313e+01
-1.410999999999999943e+01
-9.825000000000000000e+01
8.242000000000000171e+01
2.775000000000000000e+01
-5.046999999999999886e+01
5.172999999999999687e+01
5.588000000000000256e+01
-4.167000000000000171e+01
-9.054000000000000625e+01
1.575000000000000000e+01
-2.750000000000000000e+00
-6.352000000000000313e+01
4.500000000000000000e+01
1.601000000000000156e+01
-6.812000000000000455e+01
2.800000000000000000e+01
3.939000000000000057e+01
-1.599000000000000021e+01
-5.509999999999999787e+00
1.052199999999999989e+02
-9.364000000000000057e+01
1.488600000000000136e+02
-2.907900000000000205e+02
-8.415000000000000568e+01
-1.024399999999999977e+02
2.893000000000000114e+02
3.914000000000000057e+01
-3.446999999999999886e+01
1.327899999999999920e+02
7.021999999999999886e+01
-1.082999999999999972e+02
4.919599999999999795e+02
-3.028600000000000136e+02
-2.054399999999999977e+02
4.799999999999999822e+00
-4.871000000000000085e+01
-3.590999999999999659e+01
3.080000000000000071e+00
1.153599999999999994e+02
-7.642000000000000171e+01
-9.210999999999999943e+01
7.559000000000000341e+01
8.542000000000000171e+01
-4.853000000000000114e+01
-1.460999999999999943e+01
-1.398000000000000043e+01
8.568999999999999773e+01
-2.964700000000000273e+02
1.955300000000000011e+02
-9.926999999999999602e+01
-5.814000000000000057e+01
3.716399999999999864e+02
-2.936700000000000159e+02
-2.338300000000000125e+02
1.461500000000000057e+02
9.190999999999999659e+01
-1.255999999999999943e+02
-7.070999999999999375e+01
2.251999999999999957e+01
-2.560000000000000142e+01
-1.029500000000000028e+02
-1.273700000000000045e+02
3.213000000000000256e+01
2.086699999999999875e+02
6.904999999999999716e+01
-1.894000000000000057e+02
-1.031400000000000006e+02
1.751999999999999957e+01
3.554999999999999716e+01
2.867000000000000171e+01
1.083999999999999986e+01
-1.030000000000000027e+00
-6.409999999999999432e+01
3.332999999999999829e+01
5.769999999999999574e+00
-1.391999999999999886e+02
-2.408999999999999986e+01
9.214000000000000057e+01
1.639999999999999902e+00
8.768999999999999773e+01
-1.267999999999999972e+01
-8.951999999999999602e+01
-2.085999999999999943e+01
4.971000000000000085e+01
3.825999999999999801e+01
1.242999999999999972e+01
3.281000000000000227e+01
-6.114000000000000057e+01
-6.979999999999999716e+01
2.710000000000000142e+01
5.300000000000000266e-01
-5.259000000000000341e+01
4.613000000000000256e+01
8.125000000000000000e+01
-4.425999999999999801e+01
2.601000000000000156e+01
2.946000000000000085e+01
-2.655000000000000071e+01
-4.889999999999999858e+01
7.618000000000000682e+01
1.396000000000000085e+01
-1.141999999999999993e+01
-2.550000000000000000e+01
3.346000000000000085e+01
-7.910000000000000142e+00
1.100000000000000000e+01
-6.832999999999999829e+01
-2.698999999999999844e+01
-4.792999999999999972e+01
5.267999999999999972e+01
-1.558999999999999986e+01
3.010000000000000142e+01
-4.604999999999999716e+01
-5.240999999999999659e+01
-1.205699999999999932e+02
-2.224699999999999989e+02
2.700799999999999841e+02
2.240600000000000023e+02
-1.568999999999999950e+01
7.684999999999999432e+01
6.476000000000000512e+01
7.490999999999999659e+01
1.126899999999999977e+02
-1.462400000000000091e+02
-4.704900000000000091e+02
-1.609799999999999898e+02
1.567299999999999898e+02
6.471999999999999886e+01
-1.356000000000000050e+01
8.769999999999999574e+00
2.467999999999999972e+01
5.419999999999999929e+00
-5.765999999999999659e+01
3.130999999999999872e+01
3.345000000000000284e+01
-1.503999999999999915e+01
-3.214000000000000057e+01
-1.276299999999999955e+02
6.389999999999999858e+01
5.009200000000000159e+02
-3.227099999999999795e+02
-8.906999999999999318e+01
1.563000000000000078e+01
-5.875999999999999801e+01
-1.652899999999999920e+02
1.718899999999999864e+02
4.853999999999999915e+01
-1.796999999999999886e+01
-5.175999999999999801e+01
6.839000000000000057e+01
2.280000000000000071e+01
1.762999999999999901e+01
7.767000000000000171e+01
-7.799999999999999822e+00
-1.203999999999999915e+01
-1.304300000000000068e+02
-2.135999999999999943e+02
1.953300000000000125e+02
-5.799999999999999600e-01
9.143000000000000682e+01
5.084000000000000341e+01
-3.549000000000000199e+01
-1.612000000000000099e+01
1.543999999999999950e+01
1.787000000000000099e+01
2.800000000000000266e-01
-5.169999999999999929e+00
6.910000000000000142e+00
1.389999999999999902e+00
1.350000000000000089e+00
-1.120000000000000107e+00
-1.407400000000000091e+02
1.691000000000000014e+01
-1.009999999999999964e+01
4.409000000000000341e+01
-3.279999999999999716e+01
-3.207000000000000028e+01
4.943999999999999773e+01
-1.879999999999999893e+00
-2.000000000000000111e-01
2.692999999999999972e+01
1.717999999999999972e+01
7.519999999999999574e+00
-1.110999999999999943e+01
3.554999999999999716e+01
7.040000000000000036e+00
-4.160000000000000142e+01
-2.489000000000000057e+01
-6.690000000000000391e+00
-8.589999999999999858e+00
-9.099999999999999645e+00
1.208999999999999986e+01
1.071000000000000085e+01
-5.280000000000000249e+00
-1.375000000000000000e+01
1.127999999999999936e+01
4.730000000000000426e+00
-1.583999999999999986e+01
1.280000000000000027e+00
6.440000000000000391e+00
-9.289999999999999147e+00
-3.009999999999999787e+00
1.855999999999999872e+01
7.259999999999999787e+00
-1.832000000000000028e+01
1.544999999999999929e+01
1.466999999999999993e+01
-1.456000000000000050e+01
-5.389999999999999680e+00
2.139000000000000057e+01
-2.300000000000000100e-01
-1.821000000000000085e+01
1.935000000000000142e+01
7.669999999999999929e+00
-1.430000000000000071e+01
-4.299999999999999933e-01
1.528999999999999915e+01
-1.360000000000000098e+00
-3.727000000000000313e+01
5.950000000000000178e+00
8.990000000000000213e+00
-6.990000000000000213e+00
5.990000000000000213e+00
7.200000000000000178e+00
-8.339999999999999858e+00
-8.740000000000000213e+00
1.821000000000000085e+01
4.899999999999999911e-01
-2.091000000000000014e+01
1.226999999999999957e+01
1.082000000000000028e+01
-1.138000000000000078e+01
-1.008999999999999986e+01
1.710999999999999943e+01
-3.290000000000000036e+00
-2.203999999999999915e+01
1.967999999999999972e+01
1.394999999999999929e+01
-1.114000000000000057e+01
-1.649999999999999911e+00
1.225999999999999979e+01
-4.719999999999999751e+00
-2.862000000000000099e+01
1.500000000000000000e+01
2.950000000000000178e+00
-1.941000000000000014e+01
1.358000000000000007e+01
1.680000000000000071e+01
-1.128999999999999915e+01
-1.382000000000000028e+01
2.028000000000000114e+01
2.049999999999999822e+00
-2.410999999999999943e+01
2.055999999999999872e+01
1.042999999999999972e+01
-2.166000000000000014e+01
5.290000000000000036e+00
1.046000000000000085e+01
-1.025000000000000000e+01
-2.100000000000000000e+01
1.964999999999999858e+01
1.025000000000000000e+01
-2.491000000000000014e+01
2.562000000000000099e+01
1.746999999999999886e+01
-2.789999999999999858e+01
7.339999999999999858e+00
1.333000000000000007e+01
-1.502999999999999936e+01
-7.070000000000000284e+00
2.489000000000000057e+01
-2.410000000000000142e+00
-3.775999999999999801e+01
2.373999999999999844e+01
1.792000000000000171e+01
-1.925000000000000000e+01
8.089999999999999858e+00
1.175999999999999979e+01
-1.621000000000000085e+01
-9.529999999999999361e+00
2.721000000000000085e+01
5.129999999999999893e+00
-3.100000000000000000e+01
2.542000000000000171e+01
5.509999999999999787e+00
-2.610000000000000142e+01
1.692999999999999972e+01
1.303999999999999915e+01
-2.680000000000000160e+00
-3.049999999999999822e+00
5.195000000000000284e+01
-2.180000000000000071e+01
-4.363000000000000256e+01
-2.887000000000000099e+01
-8.381000000000000227e+01
1.824399999999999977e+02
-1.006299999999999955e+02
-2.043799999999999955e+02
9.951000000000000512e+01
2.730000000000000071e+01
5.596999999999999886e+01
9.240000000000000213e+00
1.265000000000000036e+01
3.613000000000000256e+01
-8.999999999999999667e-02
-1.148000000000000043e+01
1.651000000000000156e+01
-2.685999999999999943e+01
-4.510000000000000142e+01
1.050400000000000063e+02
1.792000000000000171e+01
-1.451999999999999957e+01
5.834000000000000341e+01
2.707300000000000182e+02
-2.882900000000000205e+02
-3.260199999999999818e+02
9.560000000000000497e+00
-1.328999999999999915e+01
-6.743999999999999773e+01
8.937000000000000455e+01
8.212000000000000455e+01
3.353000000000000114e+01
-4.453999999999999915e+01
-2.516000000000000014e+01
-8.480000000000000426e+00
2.369999999999999929e+01
9.679999999999999716e+00
-1.476999999999999957e+01
4.000000000000000000e+00
1.300000000000000044e+00
-1.210999999999999943e+01
-5.999999999999999778e-01
7.320000000000000284e+00
-2.500000000000000000e-01
-1.499000000000000021e+01
3.970000000000000284e+01
-4.500000000000000111e-01
-2.683999999999999986e+01
2.370000000000000107e+00
-5.049999999999999822e+00
-1.905999999999999872e+01
7.530000000000000249e+00
1.140000000000000036e+01
-3.080000000000000071e+00
-3.290000000000000036e+00
4.769999999999999574e+00
-1.989000000000000057e+01
-1.291000000000000014e+01
4.146999999999999886e+01
9.740000000000000213e+00
-2.001000000000000156e+01
1.219999999999999929e+01
5.839999999999999858e+00
-1.523000000000000043e+01
-2.830000000000000071e+00
1.475000000000000000e+01
-1.227999999999999936e+01
-2.569000000000000128e+01
2.076000000000000156e+01
-1.669999999999999929e+00
1.030000000000000027e+00
1.464000000000000057e+01
7.830000000000000071e+00
-1.794000000000000128e+01
-2.426999999999999957e+01
2.578000000000000114e+01
1.016000000000000014e+01
-1.935000000000000142e+01
7.290000000000000036e+00
8.560000000000000497e+00
-1.047000000000000064e+01
-3.970000000000000195e+00
1.601999999999999957e+01
-1.284999999999999964e+01
-1.209999999999999964e+01
5.354999999999999716e+01
3.417000000000000171e+01
-6.840999999999999659e+01
-5.519999999999999574e+00
3.669999999999999929e+00
-9.050000000000000711e+00
8.960000000000000853e+00
1.558000000000000007e+01
-8.720000000000000639e+00
-2.080000000000000071e+01
1.092999999999999972e+01
5.940000000000000391e+00
-1.232000000000000028e+01
-6.200000000000000178e+00
2.282000000000000028e+01
2.471899999999999977e+02
-1.345000000000000000e+02
2.971000000000000085e+01
-5.431000000000000227e+01
-1.564600000000000080e+02
1.333000000000000114e+02
1.182199999999999989e+02
-4.625000000000000000e+01
-9.859999999999999432e+01
1.801000000000000156e+01
-2.007500000000000000e+02
1.011599999999999966e+02
6.475000000000000000e+01
5.150999999999999801e+01
2.282000000000000028e+01
2.994000000000000128e+01
-4.339000000000000057e+01
-1.548799999999999955e+02
1.311500000000000057e+02
-1.450500000000000114e+02
4.832999999999999829e+01
4.097999999999999687e+01
-6.950000000000000178e+00
9.029999999999999361e+00
-1.326999999999999957e+01
-3.381000000000000227e+01
-8.587000000000000455e+01
-1.696599999999999966e+02
7.859999999999999432e+01
9.740000000000000213e+00
5.919999999999999929e+00
5.582000000000000028e+01
-3.643999999999999773e+01
-1.141800000000000068e+02
1.070799999999999983e+02
5.386999999999999744e+01
-1.769000000000000128e+01
-1.419999999999999929e+01
2.950000000000000178e+00
-1.523000000000000043e+01
-5.075999999999999801e+01
3.672300000000000182e+02
-2.704900000000000091e+02
-1.664600000000000080e+02
3.623100000000000023e+02
4.582300000000000182e+02
-3.337200000000000273e+02
-7.546999999999999886e+01
9.220000000000000284e+01
1.840000000000000000e+02
1.574499999999999886e+02
-3.046999999999999886e+02
-1.176299999999999955e+02
1.525200000000000102e+02
1.972599999999999909e+02
-1.710000000000000000e+02
-3.849000000000000199e+01
4.993999999999999773e+01
2.556100000000000136e+02
-2.818999999999999773e+02
1.041999999999999993e+01
2.102299999999999898e+02
4.100000000000000000e+01
2.457500000000000000e+02
-1.785399999999999920e+02
-2.018499999999999943e+02
-6.980099999999999909e+02
4.097400000000000091e+02
4.160099999999999909e+02
5.924000000000000199e+01
-2.951999999999999957e+01
1.258400000000000034e+02
9.689999999999999503e+00
8.831999999999999318e+01
3.740999999999999659e+01
-1.335200000000000102e+02
-7.240999999999999659e+01
-1.170799999999999983e+02
2.080099999999999909e+02
7.687000000000000455e+01
4.560999999999999943e+01
-6.910000000000000142e+00
-4.411999999999999744e+01
-6.690000000000000391e+00
-2.487000000000000099e+01
-1.105799999999999983e+02
3.457000000000000028e+01
-2.605999999999999872e+01
6.031000000000000227e+01
3.647999999999999687e+01
-6.549999999999999822e+00
1.264000000000000057e+01
-5.375000000000000000e+01
-8.593000000000000682e+01
7.951000000000000512e+01
5.040999999999999659e+01
-5.596999999999999886e+01
9.170000000000000284e+01
-7.950000000000000000e+01
6.559999999999999609e+00
1.336999999999999922e+01
-3.374000000000000199e+01
8.909000000000000341e+01
-1.214699999999999989e+02
-1.221700000000000017e+02
-2.890000000000000124e+00
2.021999999999999886e+01
3.714000000000000057e+01
-3.938000000000000256e+01
8.193000000000000682e+01
-2.251000000000000156e+01
-4.914000000000000057e+01
-1.208999999999999986e+01
8.218000000000000682e+01
9.243000000000000682e+01
-1.211099999999999994e+02
-6.459999999999999964e+00
-5.115999999999999659e+01
8.759999999999999432e+01
3.182999999999999829e+01
-3.194999999999999929e+01
2.667999999999999972e+01
-7.262999999999999545e+01
1.794000000000000128e+01
-8.940999999999999659e+01
-2.651000000000000156e+01
-1.268999999999999950e+01
3.067000000000000171e+01
2.894999999999999929e+01
-1.092999999999999972e+01
7.256999999999999318e+01
-1.598199999999999932e+02
2.576000000000000156e+01
1.214599999999999937e+02
-1.414399999999999977e+02
2.069999999999999929e+01
-1.073000000000000043e+01
1.875099999999999909e+02
9.100000000000000000e+01
4.209000000000000341e+01
-2.112199999999999989e+02
1.050000000000000000e+02
-5.892999999999999972e+01
1.205600000000000023e+02
1.019300000000000068e+02
-1.344900000000000091e+02
9.669999999999999929e+00
5.560999999999999943e+01
-3.228000000000000114e+01
-1.377999999999999936e+01
-2.210999999999999943e+01
2.270000000000000018e+00
1.453999999999999915e+01
-8.250000000000000000e+01
1.430800000000000125e+02
-4.615999999999999659e+01
-1.383199999999999932e+02
-7.801999999999999602e+01
1.403499999999999943e+02
6.635999999999999943e+01
1.033000000000000007e+01
3.209999999999999964e+00
-2.120000000000000107e+00
-2.994999999999999929e+01
-1.183999999999999986e+01
3.452000000000000313e+01
1.268799999999999955e+02
-2.290000000000000036e+00
2.160000000000000142e+00
-1.049000000000000021e+01
2.737999999999999901e+01
-4.702200000000000273e+02
6.448000000000000398e+01
4.802799999999999727e+02
-1.366500000000000057e+02
-1.706699999999999875e+02
1.878999999999999915e+01
-3.961999999999999744e+01
-2.048000000000000043e+01
-1.489000000000000057e+01
-3.048000000000000043e+01
3.813000000000000256e+01
-8.006000000000000227e+01
4.769999999999999574e+00
-7.551000000000000512e+01
8.990999999999999659e+01
1.327400000000000091e+02
6.650000000000000355e+00
4.068999999999999773e+01
-1.401899999999999977e+02
-4.042000000000000171e+01
1.207300000000000040e+02
9.642000000000000171e+01
-1.218999999999999950e+01
2.407000000000000028e+01
3.838000000000000256e+01
2.857999999999999829e+01
-2.239999999999999858e+01
-8.381999999999999318e+01
2.017000000000000171e+01
-2.557000000000000028e+01
5.682000000000000028e+01
3.429999999999999716e+01
5.780000000000000249e+00
3.116000000000000014e+01
1.482199999999999989e+02
-3.098000000000000043e+01
-2.156800000000000068e+02
-1.256200000000000045e+02
1.405000000000000000e+02
-1.792599999999999909e+02
7.045000000000000284e+01
1.144399999999999977e+02
-2.101699999999999875e+02
1.129000000000000057e+02
1.672800000000000011e+02
1.728999999999999915e+01
4.877000000000000313e+01
2.512999999999999901e+01
9.730000000000000426e+00
1.746999999999999886e+01
-1.351299999999999955e+02
-2.656700000000000159e+02
-3.515699999999999932e+02
-9.655399999999999636e+02
-6.054999999999999716e+01
7.193400000000000318e+02
1.509900000000000091e+02
9.371999999999999886e+01
3.288700000000000045e+02
1.642299999999999898e+02
1.514000000000000057e+02
-1.310200000000000102e+02
-4.988000000000000256e+01
-1.294999999999999929e+01
4.204999999999999716e+01
-3.431000000000000227e+01
1.918899999999999864e+02
8.436799999999999500e+02
-5.311200000000000045e+02
3.259999999999999787e+00
5.320000000000000284e+00
-4.877000000000000313e+01
1.875900000000000034e+02
1.047199999999999989e+02
6.782999999999999829e+01
-1.308300000000000125e+02
-2.761800000000000068e+02
-5.457200000000000273e+02
3.807200000000000273e+02
1.670500000000000114e+02
1.899999999999999911e+00
-1.788300000000000125e+02
-5.519900000000000091e+02
1.930900000000000034e+02
2.540600000000000023e+02
6.984999999999999432e+01
1.839900000000000091e+02
-5.790999999999999659e+01
-1.557100000000000080e+02
-3.969399999999999977e+02
3.283600000000000136e+02
-1.959999999999999964e+00
-2.203600000000000136e+02
1.568999999999999950e+01
4.130600000000000023e+02
-1.853000000000000114e+01
-2.742200000000000273e+02
2.511699999999999875e+02
-2.062999999999999901e+01
1.211599999999999966e+02
2.807400000000000091e+02
-5.231000000000000227e+01
-2.861800000000000068e+02
-4.552599999999999909e+02
-1.129300000000000068e+02
6.174900000000000091e+02
3.746999999999999886e+02
-8.693999999999999773e+02
2.350000000000000000e+01
3.213000000000000114e+02
-2.298000000000000043e+01
-1.798000000000000043e+01
1.687000000000000099e+01
3.952000000000000313e+01
8.009999999999999787e+00
-2.147899999999999920e+02
-2.000000000000000000e+02
5.778999999999999915e+01
-5.906000000000000227e+01
-1.488600000000000136e+02
4.129999999999999716e+01
2.958799999999999955e+02
-5.122999999999999687e+01
1.851299999999999955e+02
7.610000000000000320e+00
-8.934000000000000341e+01
-3.999000000000000199e+01
1.013299999999999983e+02
-1.178700000000000045e+02
-5.192000000000000171e+01
1.817500000000000000e+02
1.573000000000000043e+01
-1.386100000000000136e+02
4.652000000000000313e+01
8.303000000000000114e+01
-8.242000000000000171e+01
-5.732000000000000028e+01
1.749799999999999898e+02
3.386999999999999744e+01
-2.930799999999999841e+02
1.428999999999999915e+01
-1.010400000000000063e+02
-1.910099999999999909e+02
1.664000000000000057e+02
3.003999999999999915e+01
-8.882999999999999829e+01
7.546999999999999886e+01
4.563000000000000256e+01
-3.514999999999999858e+01
-1.309300000000000068e+02
1.723199999999999932e+02
5.264999999999999858e+01
-2.012299999999999898e+02
1.047800000000000011e+02
1.835999999999999943e+01
-1.041700000000000017e+02
1.163100000000000023e+02
1.873999999999999844e+01
-4.671999999999999886e+01
-6.793000000000000682e+01
7.523000000000000398e+01
-4.514999999999999858e+01
-1.551500000000000057e+02
1.575099999999999909e+02
2.107999999999999829e+01
-9.479000000000000625e+01
2.092199999999999989e+02
-3.795000000000000284e+01
-1.282100000000000080e+02
8.103000000000000114e+01
1.880999999999999872e+01
-1.080300000000000011e+02
-1.002300000000000040e+02
1.271899999999999977e+02
-1.042999999999999972e+01
-1.927599999999999909e+02
-1.557000000000000028e+01
2.574300000000000068e+02
9.118000000000000682e+01
1.590999999999999943e+02
5.785000000000000142e+01
-6.526999999999999602e+01
-4.872599999999999909e+02
8.039999999999999147e+00
1.268599999999999994e+02
-1.221400000000000006e+02
-1.705800000000000125e+02
-3.500999999999999801e+01
-7.668000000000000682e+01
4.697999999999999687e+01
1.044699999999999989e+02
-1.513000000000000078e+01
1.782700000000000102e+02
-7.926000000000000512e+01
-6.898999999999999488e+01
-1.265499999999999972e+02
2.626999999999999957e+01
7.629999999999999893e+00
-2.488100000000000023e+02
9.529999999999999716e+01
-1.321100000000000136e+02
2.344999999999999929e+01
6.910999999999999943e+01
3.306299999999999955e+02
1.510000000000000000e+02
3.137999999999999901e+01
-1.351699999999999875e+02
-1.759699999999999989e+02
-1.908799999999999955e+02
3.865999999999999659e+01
1.821399999999999864e+02
-8.579000000000000625e+01
7.093999999999999773e+01
-1.413000000000000078e+01
-4.053999999999999915e+01
-1.249800000000000040e+02
-1.009500000000000028e+02
-1.001700000000000017e+02
-5.171000000000000085e+01
6.199000000000000199e+01
-9.330000000000000071e+00
-1.582899999999999920e+02
1.133799999999999955e+02
-2.992999999999999972e+01
-1.355699999999999932e+02
1.790000000000000000e+02
1.787000000000000099e+01
-5.550999999999999801e+01
1.112000000000000028e+02
-2.937999999999999901e+01
1.095999999999999943e+02
-1.425099999999999909e+02
1.215900000000000034e+02
-6.815999999999999659e+01
-2.035900000000000034e+02
1.209999999999999964e+00
-4.686999999999999744e+01
-3.590999999999999659e+01
2.543899999999999864e+02
4.215400000000000205e+02
3.144999999999999929e+01
-6.342000000000000171e+01
-5.654999999999999716e+01
-1.040100000000000051e+02
-6.028000000000000114e+01
5.469999999999999751e+00
-1.380000000000000071e+01
-3.543999999999999773e+01
3.542999999999999972e+01
4.542999999999999972e+01
-1.516000000000000014e+01
7.509999999999999787e+00
1.511999999999999922e+01
-3.417000000000000171e+01
1.100000000000000089e+00
6.290000000000000036e+00
-3.510999999999999943e+01
1.632999999999999829e+01
6.070000000000000284e+00
-2.885999999999999943e+01
1.699999999999999956e+00
-3.599000000000000199e+01
5.839000000000000057e+01
4.259000000000000341e+01
2.832999999999999829e+01
-1.453999999999999915e+01
-4.796000000000000085e+01
-2.500000000000000000e-01
-5.589999999999999858e+00
-3.328999999999999915e+01
2.496000000000000085e+01
3.314000000000000057e+01
5.529999999999999716e+01
1.513400000000000034e+02
5.353999999999999915e+01
3.359999999999999876e+00
-2.633399999999999750e+02
6.770000000000000284e+01
-9.543000000000000682e+01
-8.706999999999999318e+01
3.105000000000000071e+01
-4.100000000000000000e+01
-2.796000000000000085e+01
4.732999999999999829e+01
2.041000000000000014e+01
-2.973999999999999844e+01
1.660000000000000142e+01
3.971000000000000085e+01
-1.709999999999999964e+00
-4.345000000000000284e+01
2.816000000000000014e+01
2.529999999999999805e+00
-4.964999999999999858e+01
3.838000000000000256e+01
2.185000000000000142e+01
-2.987000000000000099e+01
-1.933999999999999986e+01
4.032000000000000028e+01
3.799999999999999822e+00
-6.054999999999999716e+01
5.892000000000000171e+01
1.967999999999999972e+01
-3.617000000000000171e+01
3.569999999999999840e+00
3.367999999999999972e+01
-2.217999999999999972e+01
-5.621999999999999886e+01
4.678999999999999915e+01
1.385999999999999943e+01
-4.997999999999999687e+01
5.053999999999999915e+01
3.385000000000000142e+01
-2.460000000000000142e+01
-3.389000000000000057e+01
2.835000000000000142e+01
-6.759999999999999787e+00
-5.243999999999999773e+01
6.964000000000000057e+01
-8.080000000000000071e+00
-4.668999999999999773e+01
2.544000000000000128e+01
2.507000000000000028e+01
-1.685999999999999943e+01
-4.549000000000000199e+01
5.474000000000000199e+01
3.049999999999999822e+00
-4.585999999999999943e+01
3.440999999999999659e+01
1.497000000000000064e+01
-3.126000000000000156e+01
-3.600000000000000089e+00
3.347999999999999687e+01
-5.629999999999999893e+00
-5.656000000000000227e+01
5.117999999999999972e+01
8.089999999999999858e+00
-3.135999999999999943e+01
2.866000000000000014e+01
2.214999999999999858e+01
-3.085000000000000142e+01
-6.689000000000000057e+01
-5.835000000000000142e+01
2.382100000000000080e+02
-7.128000000000000114e+01
4.115999999999999659e+01
-6.950000000000000178e+00
-4.881000000000000227e+01
4.228999999999999915e+01
2.973999999999999844e+01
-2.457000000000000028e+01
-2.726999999999999957e+01
4.352000000000000313e+01
-1.149999999999999911e+00
-6.623000000000000398e+01
4.740999999999999659e+01
1.623999999999999844e+01
-4.464000000000000057e+01
2.550000000000000000e+01
3.160999999999999943e+01
-1.161999999999999922e+01
-5.257000000000000028e+01
1.876000000000000156e+01
2.632999999999999829e+01
-4.492000000000000171e+01
2.142999999999999972e+01
1.796999999999999886e+01
-2.896999999999999886e+01
-3.399999999999999911e+00
2.158999999999999986e+01
-1.733999999999999986e+01
-5.650999999999999801e+01
7.398999999999999488e+01
1.599000000000000021e+01
-6.050000000000000000e+01
3.489999999999999858e+01
1.894000000000000128e+01
-4.343999999999999773e+01
-3.000000000000000000e+00
4.459000000000000341e+01
-1.425999999999999979e+01
-8.196999999999999886e+01
8.312000000000000455e+01
2.721999999999999886e+01
-4.643999999999999773e+01
2.919000000000000128e+01
3.809000000000000341e+01
-3.235999999999999943e+01
-6.103999999999999915e+01
4.943999999999999773e+01
6.889999999999999680e+00
-6.973000000000000398e+01
5.796000000000000085e+01
3.511999999999999744e+01
-3.942000000000000171e+01
-1.356000000000000050e+01
6.224000000000000199e+01
-1.324000000000000021e+01
-8.165000000000000568e+01
4.800000000000000000e+01
1.051999999999999957e+01
-5.964000000000000057e+01
5.403000000000000114e+01
2.991000000000000014e+01
-4.746000000000000085e+01
4.799999999999999822e-01
6.690000000000000568e+01
-4.459999999999999964e+00
-8.090000000000000568e+01
3.992999999999999972e+01
-4.660000000000000142e+00
-7.829999999999999716e+01
7.351999999999999602e+01
3.228999999999999915e+01
-5.596999999999999886e+01
1.673000000000000043e+01
4.213000000000000256e+01
-1.297000000000000064e+01
-5.732999999999999829e+01
6.965999999999999659e+01
-8.609999999999999432e+00
-8.165000000000000568e+01
6.840999999999999659e+01
2.537999999999999901e+01
-5.249000000000000199e+01
1.489000000000000057e+01
4.839000000000000057e+01
-1.568999999999999950e+01
-8.854000000000000625e+01
7.759999999999999432e+01
2.485999999999999943e+01
-7.387000000000000455e+01
3.729999999999999716e+01
6.031000000000000227e+01
-4.696999999999999886e+01
-4.368999999999999773e+01
3.425000000000000000e+01
9.630000000000000782e+00
-5.449000000000000199e+01
7.031000000000000227e+01
-3.609999999999999876e+00
-7.764000000000000057e+01
6.490999999999999659e+01
1.971000000000000085e+01
-6.028000000000000114e+01
3.417000000000000171e+01
4.047999999999999687e+01
-3.907000000000000028e+01
-4.246999999999999886e+01
6.795000000000000284e+01
-5.830000000000000071e+00
-9.304000000000000625e+01
9.446999999999999886e+01
1.946999999999999886e+01
-7.107999999999999829e+01
4.161999999999999744e+01
3.660000000000000142e+01
-3.089000000000000057e+01
-4.624000000000000199e+01
6.285000000000000142e+01
-2.169999999999999929e+00
-8.140000000000000568e+01
8.507999999999999829e+01
1.265000000000000036e+01
-6.065999999999999659e+01
3.624000000000000199e+01
3.624000000000000199e+01
-3.588000000000000256e+01
-5.859000000000000341e+01
7.245000000000000284e+01
5.419999999999999929e+00
-8.475000000000000000e+01
7.965999999999999659e+01
1.533000000000000007e+01
-5.756000000000000227e+01
2.796999999999999886e+01
3.257000000000000028e+01
-3.528000000000000114e+01
-6.618000000000000682e+01
7.095000000000000284e+01
9.019999999999999574e+00
-6.239999999999999858e+01
4.338000000000000256e+01
2.005999999999999872e+01
-3.404999999999999716e+01
-1.721999999999999886e+01
8.603000000000000114e+01
-5.780000000000000249e+00
-9.150000000000000000e+01
5.811999999999999744e+01
2.703999999999999915e+01
-8.329999999999999716e+01
1.937000000000000099e+01
1.864000000000000057e+01
-4.417000000000000171e+01
1.118999999999999950e+01
6.064999999999999858e+01
-2.748000000000000043e+01
-5.995000000000000284e+01
7.359999999999999432e+01
-6.360000000000000320e+00
-8.503000000000000114e+01
6.815999999999999659e+01
1.443999999999999950e+01
-6.121000000000000085e+01
5.072999999999999687e+01
4.264000000000000057e+01
-3.956000000000000227e+01
-3.270000000000000284e+01
8.259999999999999432e+01
-5.040000000000000036e+00
-9.840999999999999659e+01
6.578000000000000114e+01
1.194999999999999929e+01
-7.193000000000000682e+01
7.639000000000000057e+01
3.021999999999999886e+01
-5.352000000000000313e+01
4.120000000000000107e+00
4.582999999999999829e+01
-2.967999999999999972e+01
-8.109999999999999432e+01
7.564000000000000057e+01
1.560000000000000053e+00
-8.776000000000000512e+01
7.237000000000000455e+01
3.820000000000000284e+01
-5.235999999999999943e+01
1.669999999999999929e+01
5.846999999999999886e+01
-2.301000000000000156e+01
-6.637000000000000455e+01
8.909999999999999432e+01
7.549999999999999822e+00
-8.221999999999999886e+01
4.371999999999999886e+01
1.117999999999999972e+01
-5.728000000000000114e+01
2.689999999999999858e+01
4.364000000000000057e+01
-1.287400000000000091e+02
-1.221299999999999955e+02
1.590800000000000125e+02
5.756000000000000227e+01
-7.762999999999999545e+01
3.385999999999999943e+01
4.904999999999999716e+01
-2.964999999999999858e+01
2.667000000000000171e+01
4.771000000000000085e+01
-2.664000000000000057e+01
-7.501000000000000512e+01
1.007500000000000000e+02
1.642999999999999972e+01
-8.951999999999999602e+01
5.042999999999999972e+01
2.062000000000000099e+01
-5.811999999999999744e+01
2.885000000000000142e+01
4.693999999999999773e+01
-4.815999999999999659e+01
-6.687999999999999545e+01
8.218000000000000682e+01
3.290000000000000036e+00
-8.537000000000000455e+01
9.554000000000000625e+01
2.873999999999999844e+01
-6.610999999999999943e+01
2.701000000000000156e+01
4.556000000000000227e+01
-2.437000000000000099e+01
-7.620000000000000284e+01
7.165000000000000568e+01
-1.870000000000000107e+00
-8.707999999999999829e+01
7.620999999999999375e+01
3.902000000000000313e+01
-3.053999999999999915e+01
-5.196000000000000085e+01
4.149000000000000199e+01
-7.870000000000000107e+00
-1.200999999999999943e+02
8.885999999999999943e+01
3.778999999999999915e+01
-6.510999999999999943e+01
2.787000000000000099e+01
2.992999999999999972e+01
-3.185000000000000142e+01
-4.161999999999999744e+01
7.381000000000000227e+01
-1.113000000000000078e+01
-9.870999999999999375e+01
7.395999999999999375e+01
1.953000000000000114e+01
-7.276999999999999602e+01
6.284000000000000341e+01
3.670000000000000284e+01
-4.042000000000000171e+01
-4.240999999999999659e+01
8.209000000000000341e+01
4.360000000000000320e+00
-9.276000000000000512e+01
8.056999999999999318e+01
1.115000000000000036e+01
-7.678000000000000114e+01
6.396999999999999886e+01
3.051999999999999957e+01
-5.395000000000000284e+01
-1.139000000000000057e+01
6.259000000000000341e+01
-1.507000000000000028e+01
-9.387000000000000455e+01
9.770999999999999375e+01
5.075999999999999801e+01
-5.896999999999999886e+01
3.646999999999999886e+01
1.450999999999999979e+01
-5.436999999999999744e+01
-4.735999999999999943e+01
4.400999999999999801e+01
-5.200000000000000178e+00
-8.440000000000000568e+01
7.846999999999999886e+01
1.650000000000000000e+01
-6.520000000000000284e+01
1.192999999999999972e+01
6.340999999999999659e+01
-2.714000000000000057e+01
-7.206000000000000227e+01
7.987000000000000455e+01
2.800000000000000266e-01
-7.534999999999999432e+01
7.076000000000000512e+01
-7.559999999999999609e+00
-5.985999999999999943e+01
5.496999999999999886e+01
1.411999999999999922e+01
-5.009000000000000341e+01
-3.899000000000000199e+01
1.374600000000000080e+02
-2.485999999999999943e+01
-8.142000000000000171e+01
6.397999999999999687e+01
8.580000000000000071e+00
-9.173000000000000398e+01
5.671000000000000085e+01
1.375000000000000000e+01
-6.937000000000000455e+01
4.732999999999999829e+01
4.629999999999999716e+01
-3.396999999999999886e+01
-1.939999999999999858e+01
5.764999999999999858e+01
-1.302999999999999936e+01
-7.654000000000000625e+01
6.135000000000000142e+01
4.049999999999999822e+00
-7.931999999999999318e+01
6.153000000000000114e+01
3.296999999999999886e+01
-4.759000000000000341e+01
-1.375999999999999979e+01
6.225999999999999801e+01
2.089999999999999858e+00
-8.064000000000000057e+01
6.414000000000000057e+01
1.773000000000000043e+01
-5.317000000000000171e+01
2.714999999999999858e+01
2.923999999999999844e+01
-3.507000000000000028e+01
-5.084000000000000341e+01
5.881000000000000227e+01
2.629999999999999893e+00
-7.606000000000000227e+01
7.550000000000000000e+01
2.475000000000000000e+01
-5.347999999999999687e+01
3.155999999999999872e+01
2.994999999999999929e+01
-3.929999999999999716e+01
-3.082999999999999829e+01
6.043999999999999773e+01
-5.780000000000000249e+00
-9.145999999999999375e+01
8.237000000000000455e+01
2.433999999999999986e+01
-6.457999999999999829e+01
4.347999999999999687e+01
2.971999999999999886e+01
-5.300000000000000000e+01
-3.793999999999999773e+01
6.706999999999999318e+01
-9.619999999999999218e+00
-1.073199999999999932e+02
9.909000000000000341e+01
3.677000000000000313e+01
-5.242000000000000171e+01
3.234000000000000341e+01
5.063000000000000256e+01
-2.966000000000000014e+01
-8.121999999999999886e+01
6.556999999999999318e+01
7.500000000000000000e+00
-7.339000000000000057e+01
4.742999999999999972e+01
3.166000000000000014e+01
-4.304999999999999716e+01
-5.139000000000000057e+01
8.382999999999999829e+01
7.049999999999999822e+00
-8.112999999999999545e+01
5.478999999999999915e+01
1.835000000000000142e+01
-4.702000000000000313e+01
1.557000000000000028e+01
4.110000000000000142e+01
-2.939000000000000057e+01
-6.839000000000000057e+01
6.129999999999999716e+01
6.040000000000000036e+00
-9.279999999999999716e+01
6.701999999999999602e+01
1.857000000000000028e+01
-6.965999999999999659e+01
4.146999999999999886e+01
5.975999999999999801e+01
-2.712000000000000099e+01
-5.571000000000000085e+01
6.937000000000000455e+01
-8.320000000000000284e+00
-1.002999999999999972e+02
7.665000000000000568e+01
1.466999999999999993e+01
-7.837000000000000455e+01
6.400000000000000000e+01
4.577000000000000313e+01
-6.182999999999999829e+01
-5.045000000000000284e+01
1.141700000000000017e+02
1.326999999999999957e+01
-9.785999999999999943e+01
5.175999999999999801e+01
1.132000000000000028e+01
-7.142000000000000171e+01
4.649000000000000199e+01
4.589000000000000057e+01
-4.615999999999999659e+01
-6.545000000000000284e+01
8.520999999999999375e+01
1.165000000000000036e+01
-8.350000000000000000e+01
6.773000000000000398e+01
2.435999999999999943e+01
-5.817999999999999972e+01
1.353999999999999915e+01
4.154999999999999716e+01
-2.825000000000000000e+01
-8.201999999999999602e+01
8.218999999999999773e+01
1.841000000000000014e+01
-7.001999999999999602e+01
4.467999999999999972e+01
2.530000000000000071e+01
-4.924000000000000199e+01
-7.600000000000000089e-01
3.442000000000000171e+01
-1.807000000000000028e+01
-8.448999999999999488e+01
9.195999999999999375e+01
2.694000000000000128e+01
-6.682999999999999829e+01
5.978000000000000114e+01
1.483999999999999986e+01
-6.865999999999999659e+01
2.966000000000000014e+01
4.656000000000000227e+01
-3.739000000000000057e+01
-2.905000000000000071e+01
5.197999999999999687e+01
-1.013000000000000078e+01
-7.492000000000000171e+01
7.276999999999999602e+01
2.780999999999999872e+01
-5.567999999999999972e+01
2.262999999999999901e+01
3.535000000000000142e+01
-3.539999999999999858e+01
-3.839999999999999858e+01
6.790999999999999659e+01
-3.060000000000000053e+00
-9.629999999999999716e+01
6.898999999999999488e+01
2.512000000000000099e+01
-5.111999999999999744e+01
1.320000000000000062e+00
5.204999999999999716e+01
-1.450000000000000000e+01
-8.554999999999999716e+01
6.718999999999999773e+01
1.894000000000000128e+01
-7.659999999999999432e+01
4.206000000000000227e+01
4.571999999999999886e+01
-3.560000000000000142e+01
-4.906000000000000227e+01
7.553000000000000114e+01
3.140000000000000124e+00
-8.103000000000000114e+01
6.092000000000000171e+01
1.962000000000000099e+01
-5.622999999999999687e+01
1.867999999999999972e+01
3.914999999999999858e+01
-2.605000000000000071e+01
-6.557999999999999829e+01
7.623999999999999488e+01
2.053000000000000114e+01
-7.296999999999999886e+01
5.721999999999999886e+01
2.560999999999999943e+01
-5.007000000000000028e+01
1.166999999999999993e+01
4.167999999999999972e+01
-2.089000000000000057e+01
-5.545000000000000284e+01
7.026000000000000512e+01
1.896000000000000085e+01
-1.010799999999999983e+02
5.781000000000000227e+01
2.028000000000000114e+01
-5.084000000000000341e+01
1.203999999999999915e+01
3.760000000000000142e+01
-2.550000000000000000e+01
-5.743999999999999773e+01
6.371999999999999886e+01
1.989999999999999991e+00
-9.448000000000000398e+01
7.140999999999999659e+01
4.467000000000000171e+01
-5.846000000000000085e+01
1.500000000000000000e+01
4.313000000000000256e+01
-3.425999999999999801e+01
-4.532000000000000028e+01
5.922999999999999687e+01
-1.350000000000000089e+00
-8.871999999999999886e+01
6.637000000000000455e+01
-3.569999999999999840e+00
-1.429499999999999886e+02
3.960000000000000142e+01
1.885999999999999943e+02
1.876999999999999957e+01
-8.559000000000000341e+01
4.242000000000000171e+01
-1.302999999999999936e+01
-9.814000000000000057e+01
7.084000000000000341e+01
2.821999999999999886e+01
-5.859000000000000341e+01
3.270000000000000018e+00
6.465999999999999659e+01
-8.189999999999999503e+00
-9.284000000000000341e+01
6.509999999999999432e+01
1.418999999999999950e+01
-5.896000000000000085e+01
2.255999999999999872e+01
4.472999999999999687e+01
-3.338000000000000256e+01
-7.129000000000000625e+01
7.598999999999999488e+01
9.130000000000000782e+00
-7.801999999999999602e+01
5.890999999999999659e+01
3.713000000000000256e+01
-4.684000000000000341e+01
-2.114000000000000057e+01
6.035000000000000142e+01
-1.468999999999999950e+01
-9.345999999999999375e+01
8.423999999999999488e+01
1.942999999999999972e+01
-6.909000000000000341e+01
4.454999999999999716e+01
4.642000000000000171e+01
-3.307000000000000028e+01
-4.475000000000000000e+01
3.314999999999999858e+01
1.508000000000000007e+01
-9.806999999999999318e+01
7.171999999999999886e+01
3.690999999999999659e+01
-5.785000000000000142e+01
2.228000000000000114e+01
5.836999999999999744e+01
-2.116000000000000014e+01
-6.685999999999999943e+01
5.214999999999999858e+01
-1.969999999999999973e+00
-8.389000000000000057e+01
6.471999999999999886e+01
2.635999999999999943e+01
-5.688000000000000256e+01
2.390000000000000124e+00
6.878000000000000114e+01
-7.389999999999999680e+00
-8.190000000000000568e+01
5.709000000000000341e+01
7.259999999999999787e+00
-8.079000000000000625e+01
6.099000000000000199e+01
3.907999999999999829e+01
-5.200000000000000000e+01
-1.942000000000000171e+01
7.209999999999999432e+01
-8.150000000000000355e+00
-1.118799999999999955e+02
7.679999999999999716e+01
3.257000000000000028e+01
-5.585000000000000142e+01
3.897999999999999687e+01
5.157000000000000028e+01
-3.137000000000000099e+01
-5.961999999999999744e+01
7.518000000000000682e+01
1.830000000000000071e+00
-8.751999999999999602e+01
6.806999999999999318e+01
3.399000000000000199e+01
-4.767999999999999972e+01
5.839999999999999858e+00
3.871999999999999886e+01
-2.787999999999999901e+01
-7.290000000000000568e+01
5.986999999999999744e+01
3.060000000000000053e+00
-8.939000000000000057e+01
6.959999999999999432e+01
4.578000000000000114e+01
-4.264999999999999858e+01
-9.399999999999999467e-01
5.418999999999999773e+01
-2.623999999999999844e+01
-7.023000000000000398e+01
6.482999999999999829e+01
2.859999999999999876e+00
-9.723999999999999488e+01
7.143000000000000682e+01
3.194999999999999929e+01
-6.257000000000000028e+01
1.006000000000000050e+01
6.887999999999999545e+01
-1.021000000000000085e+01
-8.717000000000000171e+01
6.440999999999999659e+01
2.080000000000000071e+00
-8.404999999999999716e+01
5.950000000000000000e+01
3.986999999999999744e+01
-4.957000000000000028e+01
-2.878000000000000114e+01
6.157999999999999829e+01
-6.284000000000000341e+01
-2.082700000000000102e+02
1.543499999999999943e+02
9.225000000000000000e+01
-3.527000000000000313e+01
7.548000000000000398e+01
7.770000000000000284e+01
-8.240000000000000213e+00
-5.946999999999999886e+01
6.812999999999999545e+01
-3.532000000000000028e+01
-1.011700000000000017e+02
7.418000000000000682e+01
3.757999999999999829e+01
-5.804999999999999716e+01
5.169999999999999929e+00
3.105999999999999872e+01
-3.356000000000000227e+01
-6.801999999999999602e+01
6.584000000000000341e+01
-6.299999999999999822e+00
-1.066700000000000017e+02
8.335999999999999943e+01
3.005000000000000071e+01
-6.284000000000000341e+01
2.766000000000000014e+01
5.736999999999999744e+01
-3.836999999999999744e+01
-6.353999999999999915e+01
7.095999999999999375e+01
-4.940000000000000391e+00
-1.155000000000000000e+02
9.500000000000000000e+01
4.620000000000000284e+01
-6.506000000000000227e+01
1.136999999999999922e+01
5.414999999999999858e+01
-2.635999999999999943e+01
-7.942000000000000171e+01
8.260999999999999943e+01
2.279999999999999805e+00
-1.109500000000000028e+02
7.262999999999999545e+01
5.196000000000000085e+01
-8.398000000000000398e+01
1.464000000000000057e+01
1.141700000000000017e+02
-3.930000000000000160e+00
-1.040400000000000063e+02
2.107999999999999829e+01
-5.657999999999999829e+01
-9.729000000000000625e+01
1.096700000000000017e+02
1.825000000000000000e+01
-6.642000000000000171e+01
7.435999999999999943e+01
5.796000000000000085e+01
-3.792000000000000171e+01
3.048999999999999844e+01
6.078999999999999915e+01
-3.918999999999999773e+01
-3.389000000000000057e+01
5.996999999999999886e+01
-4.185000000000000142e+01
-3.838000000000000256e+01
1.140699999999999932e+02
-5.414000000000000057e+01
-8.568999999999999773e+01
8.832999999999999829e+01
-2.120000000000000107e+00
-8.925000000000000000e+01
5.157999999999999829e+01
2.099999999999999922e-01
-4.088000000000000256e+01
6.050999999999999801e+01
-1.565000000000000036e+01
-6.099000000000000199e+01
5.786999999999999744e+01
2.669000000000000128e+01
-7.934000000000000341e+01
1.928999999999999915e+01
3.057000000000000028e+01
-1.832999999999999829e+01
-5.867999999999999972e+01
-3.468999999999999773e+01
-1.106500000000000057e+02
3.006600000000000250e+02
4.178000000000000114e+01
-7.328200000000000500e+02
1.296000000000000085e+01
2.757200000000000273e+02
1.715999999999999943e+02
8.276699999999999591e+02
-5.381599999999999682e+02
1.387299999999999898e+02
8.078000000000000114e+01
-2.414000000000000057e+01
2.696000000000000085e+01
-6.800000000000000000e+01
-7.806000000000000227e+01
1.281399999999999864e+02
1.070000000000000062e+00
3.421000000000000085e+01
3.705899999999999750e+02
-1.968700000000000045e+02
-5.989000000000000057e+01
-7.865000000000000568e+01
5.784000000000000341e+01
-1.420300000000000011e+02
6.926000000000000512e+01
4.579999999999999716e+01
5.921000000000000085e+01
6.650000000000000355e+00
4.099999999999999756e-01
-8.189999999999999503e+00
9.449999999999999289e+00
1.548000000000000043e+01
-9.551999999999999602e+01
4.929999999999999716e+01
1.092399999999999949e+02
-2.057700000000000102e+02
3.406000000000000227e+01
1.894000000000000128e+01
9.993999999999999773e+01
1.824000000000000057e+02
-6.458300000000000409e+02
1.168100000000000023e+02
1.029699999999999989e+02
-1.061299999999999955e+02
7.269999999999999574e+00
2.285000000000000142e+01
-7.620000000000000107e+00
2.476000000000000156e+01
1.110400000000000063e+02
7.004999999999999716e+01
-4.839999999999999858e+01
-1.341899999999999977e+02
-3.571999999999999886e+01
9.600000000000000000e+01
-3.393500000000000227e+02
3.141800000000000068e+02
1.690999999999999943e+02
9.199999999999999289e+00
-1.023000000000000043e+01
-3.809000000000000341e+01
2.776999999999999957e+01
-2.482899999999999920e+02
1.786599999999999966e+02
-4.143999999999999773e+01
-2.316399999999999864e+02
1.476699999999999875e+02
8.043999999999999773e+01
-7.900000000000000355e-01
-2.512999999999999901e+01
-7.679999999999999716e+00
-1.864999999999999858e+01
-6.059000000000000341e+01
-2.007999999999999829e+01
1.199000000000000057e+02
-2.209999999999999964e+00
7.943000000000000682e+01
-1.386399999999999864e+02
7.589999999999999858e+00
-7.579000000000000625e+01
1.066400000000000006e+02
5.571999999999999886e+01
1.483999999999999986e+01
2.332000000000000028e+01
-7.220000000000000284e+01
4.477000000000000313e+01
-5.469999999999999751e+00
-5.882000000000000028e+01
6.715000000000000568e+01
-5.942000000000000171e+01
-5.596000000000000085e+01
3.427000000000000313e+01
1.533000000000000007e+01
-5.081000000000000227e+01
3.253999999999999915e+01
8.240999999999999659e+01
-1.120000000000000000e+02
-1.762999999999999901e+01
-2.150000000000000000e+01
6.765999999999999659e+01
-4.025999999999999801e+01
3.552000000000000313e+01
-3.350000000000000089e+00
-5.475000000000000000e+01
4.820000000000000284e+01
2.346999999999999886e+01
4.299999999999999933e-01
5.889999999999999680e+00
-2.157000000000000028e+01
2.055999999999999872e+01
-5.746000000000000085e+01
9.676999999999999602e+01
8.029999999999999361e+00
-6.309000000000000341e+01
-3.707999999999999829e+01
-2.178000000000000114e+01
-2.530000000000000071e+01
5.975000000000000000e+01
4.314000000000000057e+01
1.671000000000000085e+01
7.199999999999999734e-01
2.273000000000000043e+01
6.950000000000000000e+01
-2.719200000000000159e+02
9.676999999999999602e+01
-1.787599999999999909e+02
1.275999999999999979e+01
2.103799999999999955e+02
3.962099999999999795e+02
4.060000000000000142e+01
-5.515599999999999454e+02
2.311699999999999875e+02
-8.235999999999999943e+01
1.775800000000000125e+02
3.775999999999999801e+01
-3.777000000000000313e+01
-4.525000000000000000e+01
1.178700000000000045e+02
-7.726999999999999602e+01
2.436299999999999955e+02
5.781000000000000227e+01
-9.910000000000000142e+00
-2.290200000000000102e+02
4.546000000000000085e+01
1.657999999999999829e+01
1.067399999999999949e+02
-8.706000000000000227e+01
-8.285999999999999943e+01
1.069000000000000057e+02
-1.303000000000000114e+02
3.720000000000000284e+01
-1.366999999999999886e+02
2.032199999999999989e+02
6.317999999999999972e+01
-6.959999999999999964e+00
-1.006000000000000050e+01
6.519999999999999574e+00
-2.919999999999999929e+01
-2.703000000000000114e+01
1.114000000000000057e+01
1.182500000000000000e+02
-6.068999999999999773e+01
-2.729999999999999982e+00
2.014000000000000057e+01
2.064999999999999858e+01
5.003999999999999915e+01
2.374900000000000091e+02
-2.635799999999999841e+02
2.123100000000000023e+02
1.713400000000000034e+02
1.489600000000000080e+02
-3.848299999999999841e+02
-1.022340000000000032e+03
3.592500000000000000e+02
3.074900000000000091e+02
-4.981499999999999773e+02
9.334000000000000341e+01
4.968500000000000227e+02
-8.257999999999999829e+01
-2.855600000000000023e+02
-2.622200000000000273e+02
8.598000000000000398e+01
-9.026999999999999602e+01
8.635999999999999943e+01
3.750500000000000114e+02
3.702300000000000182e+02
1.625000000000000000e+01
-1.319699999999999989e+02
1.355399999999999920e+02
-1.478999999999999915e+01
-5.940599999999999454e+02
4.167099999999999795e+02
2.158300000000000125e+02
-9.520000000000000284e+01
-2.885000000000000000e+02
-1.783700000000000045e+02
-7.764800000000000182e+02
3.328600000000000136e+02
1.803199999999999932e+02
2.334499999999999886e+02
8.400000000000000000e+01
-8.225000000000000000e+01
-1.235300000000000011e+02
1.271400000000000006e+02
5.660999999999999943e+01
9.439999999999999503e+00
1.439000000000000057e+01
-2.671999999999999886e+01
-3.968999999999999773e+01
-1.089000000000000057e+02
-1.770999999999999943e+02
3.243999999999999773e+01
4.510799999999999841e+02
3.928999999999999915e+01
-7.868999999999999773e+01
2.242000000000000171e+01
-2.466000000000000014e+01
-3.196000000000000085e+01
-3.005000000000000071e+01
7.839999999999999858e+00
3.742999999999999972e+01
1.000000000000000056e-01
1.559199999999999875e+02
3.217799999999999727e+02
-1.244099999999999966e+02
-4.498100000000000023e+02
-9.710000000000000853e+00
3.381399999999999864e+02
3.389999999999999858e+01
-3.761999999999999744e+01
7.131999999999999318e+01
-1.049599999999999937e+02
1.369099999999999966e+02
-2.314000000000000057e+01
-1.837899999999999920e+02
-1.541000000000000014e+01
1.633300000000000125e+02
-4.514999999999999858e+01
-9.204999999999999716e+01
7.468000000000000682e+01
6.432999999999999829e+01
-1.321000000000000085e+01
-3.649000000000000199e+01
-6.306000000000000227e+01
-1.518799999999999955e+02
-1.170499999999999972e+02
-5.440000000000000391e+00
2.280200000000000102e+02
2.761899999999999977e+02
-5.050000000000000000e+01
-3.306000000000000227e+01
-6.479999999999999716e+01
-1.648999999999999844e+01
8.426000000000000512e+01
8.584000000000000341e+01
-1.004200000000000017e+02
1.516000000000000014e+01
-1.820200000000000102e+02
6.099000000000000199e+01
1.486999999999999922e+01
-1.079500000000000028e+02
-6.088000000000000256e+01
1.595800000000000125e+02
-1.307700000000000102e+02
-2.094999999999999929e+01
1.987999999999999901e+01
7.754000000000000625e+01
-2.585999999999999943e+01
-6.224000000000000199e+01
1.417800000000000011e+02
-1.726599999999999966e+02
1.315000000000000000e+02
-7.190999999999999659e+01
2.810000000000000053e+00
1.034999999999999964e+01
-6.956000000000000227e+01
8.287000000000000455e+01
-1.532000000000000028e+01
-1.445300000000000011e+02
1.248100000000000023e+02
2.326999999999999957e+01
-2.235800000000000125e+02
1.283199999999999932e+02
1.927599999999999909e+02
-4.857000000000000028e+01
-4.695000000000000284e+01
2.251999999999999886e+02
-2.050900000000000034e+02
-1.066999999999999993e+01
2.917999999999999972e+01
1.216999999999999993e+01
-1.244999999999999929e+01
-3.649900000000000091e+02
1.629300000000000068e+02
2.102800000000000011e+02
-6.039999999999999858e+01
-1.936800000000000068e+02
1.456399999999999864e+02
7.415000000000000568e+01
3.223000000000000114e+02
1.427899999999999920e+02
-1.475000000000000000e+01
-1.189500000000000028e+02
1.496599999999999966e+02
-6.146000000000000227e+02
3.332699999999999818e+02
-1.641299999999999955e+02
-6.863899999999999864e+02
-6.393999999999999773e+01
-5.785999999999999943e+01
-2.281200000000000045e+02
7.401999999999999602e+01
3.119300000000000068e+02
7.040000000000000568e+01
-1.978300000000000125e+02
1.589399999999999977e+02
2.104399999999999977e+02
2.980899999999999750e+02
-1.268799999999999955e+02
2.479000000000000057e+02
-1.961299999999999955e+02
1.401399999999999864e+02
3.370899999999999750e+02
-4.157999999999999829e+01
-1.768199999999999932e+02
-4.387500000000000000e+02
3.108899999999999864e+02
3.689100000000000250e+02
-7.065000000000000568e+01
1.087500000000000000e+02
-4.683600000000000136e+02
-1.107019999999999982e+03
1.100670000000000073e+03
9.573999999999999488e+01
-7.878000000000000114e+01
3.533100000000000023e+02
-8.742000000000000171e+01
1.517599999999999909e+02
-4.181800000000000068e+02
2.191399999999999864e+02
-7.325000000000000000e+01
-1.956599999999999966e+02
1.461699999999999875e+02
8.420000000000000284e+01
-2.080000000000000071e+00
-7.915999999999999659e+01
1.252399999999999949e+02
-6.648999999999999488e+01
9.239000000000000057e+01
1.469999999999999929e+01
5.197999999999999687e+01
8.075000000000000000e+01
-4.542999999999999972e+01
5.652000000000000313e+01
-1.101599999999999966e+02
-7.889999999999999680e+00
-1.370000000000000107e+00
1.208000000000000007e+01
-1.107699999999999960e+02
6.220000000000000284e+01
4.728000000000000114e+01
5.999999999999999778e-01
-2.826999999999999957e+01
2.132999999999999829e+01
1.465000000000000000e+02
-6.425000000000000000e+01
-6.332000000000000028e+01
-6.040999999999999659e+01
1.307299999999999898e+02
8.009999999999999787e+00
-3.293999999999999773e+01
-3.278999999999999915e+01
1.762999999999999901e+01
1.580000000000000071e+00
-2.000000000000000000e+01
1.857999999999999829e+01
1.044999999999999929e+01
-1.382000000000000028e+01
1.211999999999999922e+01
1.646999999999999886e+01
-5.929999999999999716e+00
-1.391999999999999993e+01
1.914999999999999858e+01
-2.899999999999999800e-01
-2.167000000000000171e+01
1.937999999999999901e+01
3.009999999999999787e+00
-1.855999999999999872e+01
9.550000000000000711e+00
8.689999999999999503e+00
-1.101999999999999957e+01
-9.240000000000000213e+00
9.820000000000000284e+00
1.105000000000000071e+01
-3.472999999999999687e+01
2.246999999999999886e+01
9.779999999999999361e+00
-5.085999999999999943e+01
-5.046000000000000085e+01
1.485500000000000114e+02
-6.800000000000000000e+01
-1.264099999999999966e+02
-5.209999999999999964e+00
5.392000000000000171e+01
-1.541999999999999993e+01
1.837000000000000099e+01
2.428000000000000114e+01
-3.039999999999999858e+01
2.323000000000000043e+01
3.149999999999999911e+00
-2.135999999999999943e+01
2.107000000000000028e+01
1.600000000000000000e+01
-3.953000000000000114e+01
-7.629999999999999893e+00
2.000000000000000000e+01
-5.519999999999999574e+00
-2.162999999999999901e+01
2.257999999999999829e+01
1.486999999999999922e+01
-9.820000000000000284e+00
4.600000000000000200e-01
6.480000000000000426e+00
-6.290000000000000036e+00
-2.380999999999999872e+01
1.319999999999999929e+01
7.660000000000000142e+00
-1.876999999999999957e+01
1.217999999999999972e+01
9.160000000000000142e+00
-6.990000000000000213e+00
-1.882999999999999829e+01
1.766000000000000014e+01
3.109999999999999876e+00
-3.481000000000000227e+01
2.612000000000000099e+01
1.172000000000000064e+01
-1.076999999999999957e+01
1.449000000000000021e+01
7.190000000000000391e+00
-1.005000000000000071e+01
-1.839999999999999858e+01
1.710000000000000142e+01
3.479999999999999982e+00
-2.535999999999999943e+01
1.760999999999999943e+01
8.099999999999999645e+00
-2.010999999999999943e+01
1.973000000000000043e+01
1.533999999999999986e+01
-2.150000000000000000e+01
-1.908999999999999986e+01
5.999999999999999778e-01
2.010999999999999943e+01
-3.932000000000000028e+01
3.073999999999999844e+01
1.750000000000000000e+00
-3.119999999999999929e+01
2.692000000000000171e+01
7.690000000000000391e+00
-2.135000000000000142e+01
1.603999999999999915e+01
1.049000000000000021e+01
-1.128999999999999915e+01
4.360000000000000320e+00
2.175000000000000000e+01
-1.050000000000000044e+00
-2.671000000000000085e+01
1.269999999999999929e+01
4.450000000000000178e+00
-3.721000000000000085e+01
2.457000000000000028e+01
4.509999999999999787e+00
-1.880999999999999872e+01
1.236999999999999922e+01
1.356000000000000050e+01
-6.870000000000000107e+00
-1.882999999999999829e+01
2.225000000000000000e+01
-2.419999999999999929e+00
-4.107999999999999829e+01
3.432999999999999829e+01
8.109999999999999432e+00
-2.187999999999999901e+01
1.033999999999999986e+01
1.746999999999999886e+01
-5.339999999999999858e+00
-1.808999999999999986e+01
1.648999999999999844e+01
-1.989999999999999991e+00
-3.750999999999999801e+01
2.566000000000000014e+01
6.009999999999999787e+00
-1.830999999999999872e+01
1.465000000000000036e+01
1.127999999999999936e+01
-6.259999999999999787e+00
-2.342000000000000171e+01
2.010999999999999943e+01
