1593439820.00
64.000000
-0.00
-0.00
-0.00
-0.00
-0.00
-0.00
-0.00
-0.00
-0.00
-0.00
0.00
0.01
0.01
-0.00
-0.03
-0.05
-0.05
0.00
0.13
0.36
0.66
1.01
1.37
1.72
2.06
2.40
2.79
3.24
3.80
4.42
5.06
5.66
6.20
6.68
7.15
7.68
8.31
9.14
10.09
11.04
11.88
12.56
13.14
13.76
14.65
15.96
17.91
20.32
22.90
25.38
27.58
29.57
31.68
34.32
37.81
42.54
48.15
54.10
59.83
64.97
69.58
74.14
79.34
85.71
93.76
103.00
112.62
121.73
129.77
136.75
143.30
150.75
157.77
166.64
177.95
191.79
206.97
220.57
228.25
225.36
208.53
176.87
132.76
80.05
23.07
-34.94
-92.44
-149.16
-205.23
-260.37
-313.74
-363.87
-409.83
-450.91
-486.50
-515.74
-537.23
-549.22
-549.96
-538.37
-514.21
-478.67
-433.88
-382.45
-327.02
-269.84
-212.63
-156.66
-102.95
-52.37
-5.90
35.58
71.42
101.35
125.50
144.39
158.72
169.18
176.39
180.72
182.47
181.87
179.23
174.90
169.30
162.83
155.81
148.47
140.93
133.24
125.48
117.70
110.00
102.46
95.13
88.03
81.15
74.46
67.98
61.75
55.85
50.35
45.29
40.62
36.25
32.05
27.93
23.88
20.00
16.45
13.40
10.90
8.86
7.06
5.24
3.18
0.89
-1.46
-3.55
-5.09
-5.94
-6.27
-6.46
-6.95
-8.08
-9.86
-11.99
-13.97
-15.38
-15.99
-15.95
-15.65
-15.55
-16.07
-17.48
-19.97
-23.45
-27.35
-30.41
-30.91
-27.29
-18.91
-6.67
7.11
19.56
28.41
32.78
33.37
31.80
29.60
27.70
26.21
24.91
23.72
22.89
22.79
23.52
24.74
25.75
25.85
24.63
22.20
19.05
15.80
12.95
10.70
8.99
7.59
6.32
5.09
3.93
2.89
2.06
1.54
1.39
1.63
2.23
3.06
3.94
4.71
5.26
5.61
5.92
6.35
7.02
7.93
8.97
10.00
10.93
11.80
12.66
13.53
14.26
14.62
14.32
13.21
11.29
8.79
5.87
2.63
-0.83
-4.52
-8.35
-12.09
-15.40
-17.87
-19.19
-19.25
-18.15
-16.17
-13.69
-11.09
-8.66
-6.59
-4.97
-3.87
-3.28
-3.15
-3.33
-3.63
-3.91
-4.10
-4.26
-4.50
-4.94
-5.54
-6.16
-6.56
-6.58
-6.18
-5.48
-4.68
-3.96
-3.40
-3.00
-2.73
-2.62
-2.68
-2.94
-3.33
-3.73
-4.03
-4.16
-4.20
-4.32
-4.68
-5.33
-6.17
-7.01
-7.69
-8.10
-8.25
-8.22
-8.12
-8.08
-8.24
-8.71
-9.61
-10.96
-12.63
-14.35
-15.44
-15.35
-13.69
-10.39
-5.72
-0.15
5.79
11.63
17.08
21.98
26.21
29.66
32.24
33.85
34.44
34.10
32.97
31.28
29.28
27.12
24.94
22.75
20.54
18.27
15.96
13.64
11.40
9.35
7.50
5.80
4.14
2.40
0.51
-1.50
-3.52
-5.45
-7.23
-8.87
-10.48
-12.16
-14.00
-16.03
-18.19
-20.39
-22.48
-24.26
-25.58
-26.32
-26.51
-26.30
-26.02
-26.03
-26.64
-27.98
-29.86
-31.81
-33.15
-33.19
-31.37
-27.52
-21.81
-14.76
-7.07
0.58
7.68
13.90
19.16
23.49
26.95
29.57
31.36
32.27
32.28
31.47
30.01
28.10
25.93
23.64
21.29
18.91
16.59
14.45
12.65
11.25
10.20
9.32
8.38
7.19
5.70
3.97
2.14
0.34
-1.36
-2.98
-4.56
-6.16
-7.78
-9.39
-10.90
-12.29
-13.52
-14.63
-15.58
-16.38
-17.03
-17.59
-18.18
-18.99
-20.28
-22.18
-24.69
-27.56
-30.32
-32.42
-33.30
-32.61
-30.23
-26.37
-21.47
-16.04
-10.59
-5.48
-0.87
3.18
6.67
9.59
11.96
13.79
15.18
16.23
17.05
17.63
17.92
17.82
17.32
16.50
15.53
14.60
13.84
13.30
12.91
12.53
12.02
11.24
10.05
8.32
6.00
3.06
-0.43
-4.29
-8.28
-12.15
-15.68
-18.77
-21.40
-23.66
-25.68
-27.57
-29.33
-30.89
-32.09
-32.77
-32.89
-32.56
-32.06
-31.72
-31.77
-32.22
-32.81
-33.03
-32.33
-30.29
-26.72
-21.70
-15.55
-8.68
-1.48
5.71
12.59
18.91
24.47
29.11
32.82
35.77
38.23
40.48
42.69
44.82
46.65
47.93
48.50
48.38
47.80
47.04
46.33
45.73
45.17
44.45
43.41
41.94
40.03
37.74
35.12
32.22
29.01
25.47
21.61
17.52
13.36
9.32
5.53
2.01
-1.28
-4.37
-7.21
-9.73
-11.81
-13.43
-14.70
-15.83
-17.06
-18.54
-20.24
-21.84
-22.83
-22.60
-20.69
-16.93
-11.46
-4.68
2.92
10.89
18.79
26.21
32.61
37.46
40.31
40.99
39.70
36.90
33.18
29.03
24.74
20.41
16.00
11.51
6.95
2.39
-2.07
-6.34
-10.33
-14.01
-17.35
-20.28
-22.70
-24.47
-25.52
-25.85
-25.63
-25.11
-24.52
-23.99
-23.51
-22.98
-22.34
-21.57
-20.70
-19.77
-18.67
-17.24
-15.27
-12.64
-9.45
-5.97
-2.59
0.42
2.93
5.14
7.41
10.23
14.04
19.11
25.50
33.04
41.38
50.08
58.66
66.72
73.93
80.11
85.16
89.11
92.00
93.93
95.14
96.04
97.30
99.75
104.27
111.40
121.11
132.68
144.82
156.08
165.26
171.64
174.94
175.01
171.61
164.32
152.75
136.91
117.37
95.33
72.27
49.65
28.63
9.89
-6.29
-19.94
-31.30
-40.66
-48.34
-54.56
-59.57
-63.69
-67.44
-71.42
-76.23
-82.13
-88.98
-96.28
-103.37
-109.64
-114.67
-118.20
-120.05
-120.14
-118.54
-115.56
-111.68
-107.42
-103.08
-98.66
-93.80
-88.13
-81.45
-73.96
-66.23
-58.84
-52.10
-45.81
-39.42
-32.38
-24.55
-16.34
-8.51
-1.66
4.18
9.62
15.54
22.53
30.52
38.85
46.58
53.07
58.11
61.88
64.59
66.25
66.60
65.37
62.45
57.99
52.32
45.68
38.04
29.12
18.54
6.12
-7.96
-23.13
-38.55
-53.41
-67.18
-79.74
-91.35
-102.44
-113.37
-124.11
-134.24
-142.94
-149.24
-152.31
-151.72
-147.61
-140.63
-131.74
-121.79
-111.27
-100.21
-88.39
-75.71
-62.42
-49.18
-36.77
-25.70
-15.90
-6.79
2.34
11.84
21.35
29.83
35.98
38.86
38.29
34.88
29.72
23.84
17.84
11.86
5.80
-0.37
-6.45
-12.13
-17.15
-21.40
-24.88
-27.52
-29.14
-29.66
-29.48
-29.71
-32.09
-38.46
-49.98
-66.56
-86.72
-108.09
-128.16
-145.04
-157.84
-166.62
-171.97
-174.54
-174.59
-171.85
-165.72
-155.71
-141.98
-125.47
-107.76
-90.43
-74.36
-59.32
-44.16
-27.36
-7.95
13.94
37.04
59.26
78.42
92.92
102.09
106.44
107.49
107.37
108.25
111.60
117.63
125.10
131.62
134.44
131.42
121.62
105.57
84.95
61.98
38.90
17.51
-0.96
-15.90
-27.29
-35.69
-42.09
-47.69
-53.58
-60.36
-68.02
-75.95
-83.27
-89.19
-93.26
-95.49
-96.25
-96.06
-95.47
-94.87
-94.53
-94.52
-94.73
-94.87
-94.51
-93.16
-90.39
-85.89
-79.50
-71.15
-60.81
-48.51
-34.38
-18.80
-2.46
13.75
28.84
42.08
53.16
62.29
70.07
77.19
84.11
90.80
96.74
101.10
103.11
102.36
99.04
93.84
87.78
81.79
76.42
71.67
67.05
61.93
55.89
49.03
42.11
36.28
32.57
31.18
31.03
29.82
24.48
12.16
-8.85
-38.21
-73.26
-109.20
-139.93
-159.41
-163.20
-149.84
-121.45
-83.25
-42.06
-4.32
25.55
45.86
57.23
61.47
60.54
56.00
49.07
41.01
33.23
27.15
23.91
23.89
26.72
31.48
37.29
43.42
49.44
54.94
59.50
62.64
63.87
62.98
60.41
57.50
56.27
58.82
66.37
78.50
93.27
107.53
118.25
123.59
123.68
120.14
115.02
109.61
103.85
97.00
87.60
74.13
55.86
33.42
8.85
-15.03
-35.43
-50.70
-60.00
-65.12
-69.81
-77.99
-91.39
-108.70
-126.36
-140.21
-147.41
-145.06
-132.13
-108.40
-73.49
-26.12
34.61
107.25
187.11
266.44
338.65
397.34
437.73
457.66
458.64
444.91
421.48
392.83
348.29
287.27
218.96
157.15
111.20
83.61
71.49
67.34
64.48
57.40
44.42
24.27
-0.44
-26.82
-49.94
-63.67
-63.02
-46.38
-17.12
19.04
54.14
80.98
95.38
97.86
92.19
82.66
72.15
61.35
50.85
40.78
31.13
21.22
10.02
-4.20
-23.55
-49.62
-82.58
-120.06
-158.41
-193.98
-224.48
-249.18
-268.56
-283.45
-294.08
-299.70
-298.80
-290.26
-274.39
-253.52
-231.46
-212.55
-200.64
-198.44
-207.21
-226.59
-254.32
-285.84
-314.67
-333.59
-336.72
-321.65
-290.65
-249.89
-207.04
-168.28
-136.34
-110.44
-87.92
-66.51
-45.59
-25.85
-7.67
10.25
30.67
56.21
87.02
119.84
149.07
169.81
180.95
186.19
192.33
205.34
226.50
251.00
269.75
273.34
255.91
217.33
162.79
100.82
40.75
-9.27
-43.69
-60.29
-60.38
-48.10
-29.01
-8.43
9.98
24.48
34.58
40.24
41.51
39.06
35.04
33.17
37.54
50.53
70.93
93.50
110.53
114.56
101.38
71.88
31.60
-11.50
-50.20
-80.62
-102.96
-120.37
-136.28
-151.98
-165.58
-173.09
-170.87
-158.13
-138.02
-116.70
-100.73
-94.40
-98.09
-108.66
-121.31
-131.84
-138.06
-139.90
-138.23
-133.48
-124.81
-110.37
-88.41
-58.59
-22.63
15.80
52.08
82.01
102.96
114.42
117.76
115.43
109.92
102.78
94.15
82.97
67.85
48.05
24.39
-0.46
-22.45
-37.29
-41.94
-35.95
-21.80
-4.27
11.31
21.29
25.51
27.72
34.54
53.25
89.03
142.74
209.89
281.37
345.88
393.16
417.03
416.70
396.42
363.06
323.26
281.39
238.86
194.82
147.51
95.69
39.85
-16.79
-68.04
-105.81
-122.65
-115.10
-85.78
-42.97
2.77
43.02
74.27
97.61
115.56
128.63
134.00
127.32
106.25
73.01
34.00
-3.46
-34.93
-60.83
-85.06
-111.79
-142.01
-172.57
-198.06
-213.84
-218.57
-214.33
-204.72
-192.39
-178.09
-161.59
-143.89
-128.51
-120.64
-124.35
-139.66
-161.65
-182.44
-195.11
-196.94
-190.37
-181.03
-174.32
-172.76
-175.59
-180.33
-185.07
-189.60
-194.83
-201.04
-206.39
-206.82
-197.72
-176.22
-142.83
-101.59
-58.76
-20.64
8.27
26.33
34.79
37.03
37.23
38.86
43.44
49.92
55.16
55.49
48.80
36.04
21.22
9.79
6.08
11.07
21.88
33.19
39.97
40.11
35.54
31.33
33.04
43.76
62.44
84.28
102.95
113.28
113.45
105.49
94.32
86.15
87.01
101.93
134.19
184.45
249.70
322.75
393.07
449.35
482.74
489.51
471.85
436.32
391.06
343.18
297.27
255.34
217.64
183.57
152.16
122.28
92.67
62.45
31.28
-0.36
-31.42
-60.84
-87.93
-112.99
-137.68
-165.14
-199.33
-243.48
-297.95
-358.78
-417.82
-464.92
-491.44
-493.22
-471.34
-430.69
-377.25
-316.19
-251.76
-188.39
-131.80
-88.58
-64.11
-60.02
-72.92
-95.30
-118.25
-134.66
-141.17
-138.71
-131.59
-125.75
-126.96
-139.06
-162.76
-195.13
-230.34
-261.48
-282.86
-291.72
-288.50
-275.89
-257.14
-234.60
-209.25
-181.15
-150.36
-117.96
-86.09
-57.44
-34.28
-17.39
-5.66
3.60
13.47
26.19
42.33
60.75
79.66
97.97
116.25
136.60
161.35
191.32
224.67
257.03
282.89
297.68
299.38
289.07
270.27
247.38
224.23
203.16
185.12
170.24
158.55
150.22
145.37
143.55
143.32
142.45
138.68
130.88
119.63
106.87
94.60
83.26
71.03
54.51
30.71
-0.89
-37.47
-73.74
-104.05
-124.39
-133.13
-130.29
-116.32
-91.37
-55.87
-11.79
36.70
83.87
124.40
155.55
178.24
196.34
214.39
235.11
257.78
278.31
290.97
290.76
275.63
247.66
212.75
179.02
154.15
142.73
144.62
155.15
167.00
173.03
168.75
153.48
129.61
100.81
70.19
39.26
8.12
-23.83
-57.39
-93.75
-134.72
-182.21
-236.84
-296.13
-353.55
-399.59
-424.77
-423.09
-394.00
-341.75
-272.92
-194.29
-111.70
-30.87
41.47
97.53
129.85
133.60
108.46
59.09
-6.09
-76.50
-140.77
-187.42
-206.35
-191.19
-142.03
-66.92
19.18
97.52
151.01
169.83
154.94
117.46
73.76
38.28
18.22
12.26
12.68
10.98
2.99
-8.22
-14.88
-9.04
10.93
38.73
64.91
81.56
86.05
78.85
60.59
31.53
-7.92
-56.07
-109.38
-159.20
-195.43
-211.00
-204.60
-180.55
-146.03
-107.69
-69.44
-32.05
5.47
43.00
78.35
108.04
129.34
141.83
146.93
146.21
140.15
128.23
109.75
85.65
59.23
35.51
19.18
12.41
14.13
21.02
29.34
36.08
39.60
39.40
35.61
28.52
18.53
6.32
-6.82
-19.16
-29.31
-36.89
-42.94
-49.46
-58.62
-71.84
-89.10
-109.01
-129.30
-147.47
-161.28
-168.76
-168.45
-159.46
-141.96
-117.48
-88.86
-59.57
-32.73
-10.30
7.31
20.86
31.60
40.46
47.85
53.85
58.76
63.43
69.16
77.15
87.70
99.57
109.82
114.43
109.75
94.35
70.36
43.60
22.02
12.81
19.35
39.46
65.76
88.17
97.51
88.63
61.85
22.23
-22.51
-64.56
-97.87
-119.03
-127.34
-124.54
-114.41
-101.96
-92.42
-89.82
-95.92
-109.94
-129.23
-150.62
-171.75
-191.52
-209.54
-225.14
-236.72
-241.93
-238.59
-225.64
-203.54
-173.73
-137.87
-97.25
-52.89
-6.10
40.75
84.17
120.08
145.01
157.34
158.06
150.51
139.40
129.20
122.87
121.22
123.17
126.74
130.14
132.49
133.86
134.83
135.92
137.25
138.55
139.46
139.73
139.11
137.27
133.61
127.41
118.11
105.59
90.25
72.92
54.55
36.01
17.95
0.88
-14.81
-28.76
-40.86
-51.22
-60.18
-68.15
-75.27
-81.27
-85.52
-87.31
-86.15
-82.04
-75.46
-67.13
-57.84
-48.21
-38.68
-29.59
-21.24
-13.85
-7.63
-2.59
1.40
4.73
7.93
11.68
16.56
22.96
30.88
39.89
49.25
58.06
65.55
71.17
74.72
76.25
76.01
74.31
71.45
67.58
62.63
56.39
48.62
39.29
28.70
17.45
6.23
-4.36
-14.03
-22.64
-30.12
-36.39
-41.42
-45.37
-48.76
-52.31
-56.64
-61.87
-67.39
-71.92
-73.90
-71.96
-65.27
-53.75
-37.97
-19.02
1.70
22.75
42.84
60.89
76.04
87.47
94.21
95.17
89.44
76.71
57.74
34.46
9.69
-13.56
-32.71
-46.15
-53.24
-54.14
-49.49
-40.20
-27.44
-12.60
2.81
17.47
30.56
42.01
52.27
61.86
70.74
78.11
82.58
82.77
78.04
68.81
56.29
41.85
26.30
9.53
-9.26
-30.96
-55.75
-82.64
-109.31
-132.47
-148.56
-154.59
-148.96
-132.04
-106.13
-74.89
-42.44
-12.23
13.68
34.72
51.57
65.43
77.35
87.94
97.32
105.45
112.42
118.65
124.83
131.69
139.73
148.93
158.64
167.60
174.16
176.56
173.29
163.44
146.90
124.44
97.56
68.27
38.70
10.81
-14.03
-35.14
-52.58
-66.92
-78.92
-89.07
-97.38
-103.44
-106.63
-106.64
-103.73
-98.95
-93.92
-90.54
-90.58
-95.36
-105.44
-120.43
-138.87
-158.36
-175.93
-188.61
-194.13
-191.43
-180.81
-163.73
-142.32
-118.73
-94.63
-70.80
-47.10
-22.87
2.53
28.88
54.82
77.96
95.74
106.43
110.17
108.97
106.06
104.67
107.01
113.73
124.18
136.96
150.40
162.74
172.08
176.40
173.91
163.45
144.83
118.95
87.50
52.59
16.38
-19.06
-51.78
-80.11
-102.90
-119.81
-131.40
-138.98
-144.10
-148.03
-151.30
-153.44
-152.98
-147.77
-135.58
-115.31
-87.98
-57.22
-28.46
-7.02
4.12
5.72
1.97
-1.58
-0.76
5.30
14.10
21.49
24.08
20.94
13.85
6.19
1.47
2.19
9.56
23.42
42.30
63.36
82.71
96.18
100.63
95.11
81.25
62.63
43.24
26.12
12.56
2.54
-4.44
-8.54
-9.39
-6.55
-0.10
8.96
18.94
28.06
34.99
39.10
40.31
38.70
34.27
26.94
16.83
4.73
-7.68
-18.07
-24.05
-23.89
-17.06
-4.44
12.03
29.94
47.09
61.89
73.64
82.29
88.26
92.11
94.45
95.86
96.88
98.00
99.49
101.35
103.25
104.62
104.97
104.15
102.55
100.99
100.47
101.68
104.77
109.22
113.87
117.16
117.48
113.47
104.45
90.73
73.53
54.50
35.06
15.63
-4.76
-28.13
-56.55
-90.68
-128.55
-165.38
-194.77
-210.86
-210.59
-195.00
-168.89
-139.05
-111.84
-91.42
-79.14
-74.14
-74.51
-78.27
-83.65
-89.08
-93.06
-94.42
-92.77
-88.77
-84.04
-80.58
-80.13
-83.55
-90.63
-100.15
-110.23
-118.70
-123.56
-123.54
-118.57
-109.75
-98.91
-87.66
-76.40
-63.96
-47.97
-25.93
3.53
39.87
80.69
122.55
162.11
196.84
225.03
245.27
255.94
255.18
241.54
214.91
177.24
132.37
85.13
39.99
-0.06
-33.84
-61.48
-83.47
-99.90
-110.36
-114.35
-112.02
-104.48
-93.73
-82.01
-71.12
-62.02
-54.73
-48.84
-43.87
-39.64
-36.25
-33.91
-32.64
-32.19
-32.06
-31.71
-30.81
-29.30
-27.37
-25.30
-23.35
-21.64
-20.16
-18.80
-17.43
-15.99
-14.48
-13.01
-11.73
-10.84
-10.46
-10.59
-11.12
-11.84
-12.51
-12.88
-12.75
-12.03
-10.81
-9.29
-7.85
-6.85
-6.58
-7.13
-8.40
-10.12
-11.97
-13.70
-15.18
-16.49
-17.85
-19.51
-21.59
-23.97
-26.24
-27.77
-27.96
-26.44
-23.20
-18.57
-13.06
-7.25
-1.58
3.65
8.27
12.14
15.20
17.41
18.81
19.50
19.59
19.17
18.34
17.18
15.84
14.48
13.31
12.50
12.13
12.22
12.65
13.24
13.81
14.20
14.37
14.36
14.32
14.36
14.50
14.64
14.58
14.08
12.93
10.99
8.26
4.89
1.16
-2.57
-5.91
-8.60
-10.56
-11.94
-13.05
-14.26
-15.87
-18.07
-20.79
-23.71
-26.30
-27.94
-28.10
-26.49
-23.20
-18.54
-12.99
-7.02
-0.99
4.81
10.11
14.68
18.28
20.77
22.16
22.61
22.33
21.56
20.45
19.11
17.64
16.08
14.52
13.02
11.70
10.63
9.90
9.51
9.38
9.41
9.48
9.48
9.33
8.94
8.27
7.33
6.19
4.96
3.79
2.72
1.70
0.57
-0.85
-2.65
-4.69
-6.76
-8.60
-10.05
-11.17
-12.15
-13.31
-14.91
-17.12
-19.95
-23.26
-26.72
-29.88
-32.20
-33.13
-32.27
-29.46
-24.90
-19.08
-12.64
-6.21
-0.20
5.19
9.97
14.15
17.66
20.35
22.07
22.81
22.74
22.22
21.60
21.11
20.82
20.68
20.57
20.43
20.25
20.00
19.64
19.10
18.36
17.46
16.59
15.92
15.50
15.21
14.75
13.82
12.25
10.13
7.78
5.58
3.78
2.38
1.17
-0.13
-1.72
-3.62
-5.73
-7.91
-10.06
-12.18
-14.26
-16.29
-18.24
-20.16
-22.17
-24.46
-27.13
-30.04
-32.83
-34.89
-35.65
-34.69
-31.93
-27.55
-21.95
-15.59
-9.00
-2.65
3.10
7.98
11.88
14.84
16.99
18.47
19.40
19.82
19.74
19.21
18.38
17.45
16.64
16.10
15.83
15.76
15.79
15.83
15.89
15.95
15.94
15.70
15.05
13.90
12.34
10.64
9.07
7.77
6.66
5.51
4.03
2.12
-0.14
-2.50
-4.69
-6.55
-8.04
-9.21
-10.17
-11.08
-12.09
-13.34
-14.92
-16.88
-19.15
-21.60
-24.11
-26.48
-28.44
-29.61
-29.53
-27.79
-24.25
-19.14
-13.05
-6.73
-0.78
4.43
8.86
12.59
15.68
18.01
19.49
20.08
19.88
19.16
18.23
17.29
16.44
15.68
15.00
14.46
14.11
13.99
14.03
14.09
14.01
13.69
13.09
12.24
11.18
9.92
8.51
7.02
5.58
4.31
3.26
2.35
1.35
-0.02
-1.91
-4.24
-6.72
-8.96
-10.66
-11.77
-12.50
-13.21
-14.27
-15.96
-18.32
-21.24
-24.45
-27.57
-30.10
-31.53
-31.43
-29.58
-26.07
-21.27
-15.68
-9.74
-3.81
1.90
7.22
11.94
15.86
18.82
20.78
21.87
22.29
22.29
22.05
21.66
21.19
20.66
20.09
19.51
18.95
18.43
17.99
17.63
17.32
16.99
16.53
15.82
14.79
13.48
11.96
10.42
9.01
7.79
6.74
5.73
4.59
3.18
1.45
-0.55
-2.70
-4.88
-7.01
-9.03
-10.94
-12.70
-14.33
-15.88
-17.47
-19.32
-21.61
-24.42
-27.60
-30.82
-33.61
-35.51
-36.15
-35.39
-33.19
-29.65
-24.97
-19.38
-13.23
-6.92
-0.86
4.61
9.34
13.31
16.58
19.15
20.88
21.51
20.72
18.26
14.02
8.18
1.15
-6.38
-13.51
-19.31
-23.03
-24.33
-23.43
-21.00
-17.88
-14.73
-11.87
-9.19
-6.36
-3.15
0.46
4.25
7.88
11.03
13.51
15.22
16.09
16.04
15.01
13.04
10.25
6.88
3.13
-0.82
-4.93
-9.23
-13.76
-18.55
-23.52
-28.53
-33.31
-37.56
-40.87
-42.86
-43.20
-41.76
-38.66
-34.33
-29.31
-24.17
-19.25
-14.62
-10.17
-5.74
-1.26
3.18
7.34
10.92
13.73
15.68
16.87
17.49
17.79
18.05
18.42
18.98
19.64
20.31
20.89
21.34
21.72
22.06
22.37
22.60
22.67
22.50
22.07
21.37
20.45
19.33
18.05
16.66
15.19
13.70
12.17
10.62
9.04
7.42
5.79
4.14
2.42
0.56
-1.49
-3.78
-6.28
-8.94
-11.66
-14.29
-16.60
-18.30
-19.02
-18.46
-16.43
-12.95
-8.30
-2.91
2.71
8.06
12.73
16.46
19.11
20.67
21.24
21.00
20.19
19.09
17.96
16.98
16.24
15.71
15.30
14.86
14.29
13.55
12.70
11.79
10.86
9.91
8.87
7.71
6.49
5.32
4.39
3.80
3.53
3.41
3.13
2.44
1.19
-0.50
-2.37
-4.08
-5.38
-6.21
-6.72
-7.21
-7.96
-9.20
-11.00
-13.25
-15.64
-17.72
-18.93
-18.74
-16.83
-13.18
-8.13
-2.22
3.89
9.68
14.81
19.16
22.69
25.36
27.13
27.98
27.91
27.06
25.65
23.94
22.20
20.65
19.42
18.54
17.96
17.57
17.25
16.93
16.63
16.37
16.20
16.07
15.86
15.42
14.68
13.65
12.40
11.04
9.54
7.84
5.81
3.45
0.88
-1.71
-4.11
-6.19
-7.97
-9.52
-10.99
-12.53
-14.28
-16.34
-18.70
-21.16
-23.36
-24.76
-24.84
-23.26
-19.96
-15.23
-9.53
-3.47
2.43
7.80
12.41
16.17
19.04
21.03
22.17
22.56
22.32
21.64
20.64
19.39
17.95
16.34
14.68
13.19
12.09
11.53
11.51
11.85
12.28
12.56
12.51
12.11
11.40
10.42
9.22
7.83
6.24
4.45
2.50
0.40
-1.78
-3.99
-6.09
-7.99
-9.62
-10.97
-12.12
-13.20
-14.37
-15.77
-17.48
-19.50
-21.73
-23.94
-25.77
-26.79
-26.55
-24.71
-21.15
-16.03
-9.77
-2.96
3.77
9.87
14.96
18.86
21.56
23.12
23.69
23.44
22.61
21.41
20.07
18.69
17.26
15.68
13.88
11.85
9.78
7.93
6.52
5.61
5.04
4.51
3.80
2.86
1.89
1.25
1.25
1.99
3.29
4.72
5.79
6.05
5.24
3.28
0.27
-3.55
-7.83
-12.18
-16.27
-19.84
-22.85
-25.45
-27.87
-30.34
-32.92
-35.44
-37.48
-38.50
-38.01
-35.65
-31.37
-25.41
-18.27
-10.59
-3.05
3.83
9.67
14.28
17.59
19.65
20.54
20.44
19.60
18.29
16.74
15.11
13.44
11.75
10.05
8.41
6.91
5.65
4.66
3.96
3.50
3.27
3.23
3.27
3.20
2.81
1.88
0.31
-1.78
-4.13
-6.41
-8.35
-9.89
-11.10
-12.14
-13.15
-14.19
-15.16
-15.95
-16.51
-16.85
-17.13
-17.51
-18.12
-18.95
-19.87
-20.65
-21.00
-20.70
-19.62
-17.68
-14.91
-11.42
-7.40
-3.08
1.24
5.31
8.97
12.17
14.89
17.06
18.52
19.06
18.57
17.21
15.36
13.58
12.36
11.97
12.44
13.59
15.17
16.88
18.45
19.60
20.03
19.52
17.96
15.39
12.04
8.28
4.53
1.18
-1.48
-3.33
-4.40
-4.80
-4.73
-4.34
-3.76
-3.08
-2.34
-1.59
-0.89
-0.35
-0.14
-0.49
-1.65
-3.81
-6.97
-10.87
-15.07
-18.94
-21.87
-23.34
-23.05
-20.96
-17.29
-12.44
-6.93
-1.24
4.24
9.24
13.59
17.16
19.82
21.48
22.12
21.86
20.87
19.42
17.72
15.95
14.24
12.69
11.40
10.42
9.75
9.35
9.08
8.80
8.34
7.60
6.54
5.21
3.68
2.09
0.53
-0.96
-2.41
-3.87
-5.41
-7.03
-8.67
-10.26
-11.71
-12.96
-13.96
-14.71
-15.27
-15.67
-16.02
-16.43
-17.04
-17.98
-19.33
-21.06
-22.96
-24.65
-25.64
-25.42
-23.66
-20.28
-15.53
-9.87
-3.85
2.01
7.32
11.85
15.45
18.10
19.85
20.82
21.18
21.04
20.48
19.52
18.15
16.40
14.41
12.34
10.36
8.58
7.00
5.55
4.17
2.85
1.60
0.46
-0.59
-1.63
-2.79
-4.16
-5.71
-7.30
-8.75
-9.91
-10.73
-11.30
-11.83
-12.53
-13.55
-14.94
-16.57
-18.28
-19.88
-21.25
-22.36
-23.25
-24.00
-24.74
-25.62
-26.69
-27.96
-29.27
-30.39
-30.96
-30.63
-29.09
-26.22
-22.08
-16.94
-11.20
-5.35
0.17
4.98
8.91
11.94
14.17
15.78
16.92
17.62
17.86
17.59
16.80
15.58
14.14
12.74
11.64
10.99
10.88
11.29
12.20
13.54
15.15
16.79
18.16
19.00
19.16
18.68
17.75
16.60
15.32
13.88
12.08
9.73
6.74
3.22
-0.58
-4.30
-7.60
-10.27
-12.26
-13.67
-14.73
-15.69
-16.76
-17.98
-19.26
-20.35
-20.96
-20.79
-19.61
-17.34
-14.03
-9.87
-5.23
-0.53
3.80
7.38
10.01
11.61
12.24
12.04
11.18
9.82
8.14
6.32
4.57
3.10
2.08
1.60
1.59
1.92
2.39
2.87
3.33
3.82
4.40
5.05
5.62
5.91
5.74
5.04
3.93
2.59
1.20
-0.17
-1.57
-3.13
-4.98
-7.17
-9.67
-12.35
-15.00
-17.41
-19.38
-20.78
-21.56
-21.82
-21.71
-21.48
-21.38
-21.64
-22.36
-23.42
-24.53
-25.19
-24.90
-23.22
-20.03
-15.46
-9.95
-4.04
1.75
7.02
11.55
15.24
18.09
20.15
21.44
22.00
21.87
21.07
19.62
17.60
15.08
12.24
9.30
6.51
4.11
2.24
0.93
0.09
-0.46
-0.95
-1.57
-2.42
-3.54
-4.87
-6.31
-7.74
-9.03
-10.05
-10.74
-11.10
-11.22
-11.26
-11.40
-11.71
-12.18
-12.68
-13.05
-13.22
-13.22
-13.22
-13.43
-14.02
-15.03
-16.40
-17.93
-19.34
-20.28
-20.37
-19.33
-17.01
-13.48
-8.97
-3.85
1.48
6.72
11.66
16.18
20.23
23.72
26.54
28.60
29.88
30.41
30.37
29.97
29.40
28.77
28.09
27.33
26.47
25.53
24.57
23.62
22.67
21.66
20.60
19.53
18.52
17.57
16.55
15.25
13.46
11.11
8.35
5.49
2.84
0.59
-1.26
-2.85
-4.34
-5.81
-7.26
-8.65
-9.95
-11.30
-12.89
-14.99
-17.77
-21.20
-24.96
-28.49
-31.13
-32.28
-31.59
-29.00
-24.78
-19.39
-13.37
-7.22
-1.38
3.86
8.37
12.12
15.17
17.57
19.34
20.46
20.91
20.73
20.04
19.02
17.84
16.67
15.59
14.63
13.77
12.97
12.19
11.43
10.69
10.02
9.37
8.65
7.69
6.44
4.91
3.25
1.62
0.08
-1.50
-3.31
-5.56
-8.24
-11.14
-13.87
-16.07
-17.54
-18.28
-18.49
-18.46
-18.51
-18.90
-19.85
-21.44
-23.61
-26.13
-28.61
-30.50
-31.25
-30.44
-27.89
-23.70
-18.24
-12.00
-5.46
1.00
7.16
12.84
17.84
21.91
24.83
26.48
26.94
26.46
25.37
23.97
22.43
20.81
19.17
17.57
16.16
15.06
14.32
13.89
13.65
13.45
13.18
12.70
11.91
10.66
8.87
6.58
3.93
1.14
-1.56
-4.03
-6.19
-8.03
-9.60
-10.98
-12.29
-13.68
-15.23
-16.92
-18.63
-20.18
-21.45
-22.47
-23.44
-24.62
-26.24
-28.37
-30.83
-33.26
-35.18
-36.13
-35.77
-33.95
-30.73
-26.37
-21.22
-15.63
-9.91
-4.28
1.11
6.15
10.73
14.68
17.85
20.11
21.47
22.02
21.97
21.51
20.80
19.93
18.92
17.82
16.73
15.82
15.23
15.05
15.23
15.58
15.87
15.87
15.43
14.55
13.32
11.88
10.37
8.92
7.57
6.36
5.29
4.31
3.35
2.29
1.05
-0.41
-1.99
-3.52
-4.81
-5.84
-6.72
-7.70
-9.05
-10.91
-13.19
-15.61
-17.75
-19.14
-19.43
-18.35
-15.82
-11.95
-7.05
-1.57
3.93
8.97
13.23
16.64
19.28
21.34
22.90
23.94
24.36
24.03
22.93
21.18
19.04
16.83
14.83
13.18
11.89
10.90
10.11
9.44
8.84
8.23
7.56
6.71
5.62
4.25
2.67
0.95
-0.76
-2.40
-3.98
-5.56
-7.21
-8.95
-10.70
-12.34
-13.73
-14.82
-15.64
-16.31
-16.97
-17.75
-18.71
-19.86
-21.19
-22.66
-24.24
-25.84
-27.25
-28.16
-28.13
-26.80
-23.95
-19.59
-14.04
-7.81
-1.46
4.54
9.84
14.26
17.70
20.15
21.61
22.16
21.89
20.97
19.57
17.85
15.97
14.02
12.07
10.19
8.43
6.87
5.59
4.62
3.88
3.22
2.35
1.05
-0.82
-3.18
-5.76
-8.25
-10.34
-11.91
-13.02
-13.90
-14.80
-15.93
-17.39
-19.12
-20.96
-22.68
-24.07
-25.01
-25.50
-25.67
-25.71
-25.82
-26.14
-26.68
-27.33
-27.88
-28.07
-27.59
-26.17
-23.66
-20.04
-15.44
-10.12
-4.40
1.38
6.95
12.13
16.76
20.73
23.92
26.25
27.72
28.42
28.48
28.12
27.48
26.70
25.85
24.99
24.10
23.22
22.34
21.48
20.68
19.93
19.23
18.54
17.76
16.76
15.40
13.57
11.30
8.74
6.16
3.81
1.82
0.20
-1.20
-2.54
-3.94
-5.41
-6.89
-8.27
-9.45
-10.41
-11.23
-12.10
-13.29
-15.03
-17.36
-20.04
-22.55
-24.22
-24.46
-22.99
-19.90
-15.55
-10.45
-5.06
0.29
5.36
9.99
14.01
17.29
19.73
21.29
21.97
21.82
20.94
19.51
17.74
15.87
14.11
12.59
11.35
10.37
9.58
8.90
8.22
7.47
6.60
5.59
4.49
3.34
2.18
0.97
-0.32
-1.73
-3.24
-4.78
-6.28
-7.68
-9.00
-10.26
-11.49
-12.68
-13.82
-14.91
-15.96
-16.98
-18.00
-19.02
-20.08
-21.24
-22.63
-24.37
-26.44
-28.64
-30.55
-31.62
-31.40
-29.62
-26.33
-21.79
-16.42
-10.63
-4.75
0.95
6.28
11.04
15.02
18.07
20.11
21.13
21.26
20.68
19.60
18.21
16.59
14.79
12.80
10.68
8.57
6.64
5.08
3.96
3.19
2.53
1.74
0.65
-0.72
-2.24
-3.69
-4.95
-5.96
-6.78
-7.53
-8.28
-9.08
-9.91
-10.70
-11.38
-11.87
-12.17
-12.30
-12.32
-12.25
-12.16
-12.08
-12.09
-12.34
-12.99
-14.11
-15.57
-17.03
-17.93
-17.70
-15.93
-12.51
-7.65
-1.81
4.49
10.77
16.67
21.96
26.50
30.18
32.88
34.52
35.06
34.55
33.24
31.41
29.41
27.46
25.63
23.88
22.10
20.27
18.45
16.71
15.13
13.65
12.14
10.51
8.74
6.94
5.26
3.79
2.51
1.30
0.06
-1.28
-2.70
-4.14
-5.55
-6.98
-8.46
-10.03
-11.63
-13.15
-14.50
-15.68
-16.81
-18.11
-19.80
-22.01
-24.61
-27.21
-29.26
-30.12
-29.32
-26.69
-22.37
-16.83
-10.65
-4.40
1.51
6.87
11.60
15.63
18.90
21.26
22.62
22.89
22.15
20.60
18.51
16.19
13.90
11.79
9.95
8.45
7.33
6.59
6.20
6.02
5.88
5.60
5.04
4.15
3.01
1.71
0.41
-0.83
-2.02
-3.20
-4.45
-5.79
-7.23
-8.71
-10.17
-11.56
-12.83
-14.00
-15.07
-16.09
-17.10
-18.16
-19.37
-20.83
-22.62
-24.74
-27.04
-29.18
-30.74
-31.23
-30.27
-27.68
-23.50
-18.07
-11.85
-5.40
0.83
6.52
11.54
15.86
19.48
22.33
24.25
25.06
24.70
23.25
21.04
18.50
16.02
13.84
12.00
10.36
8.78
7.19
5.67
4.36
3.39
2.73
2.22
1.64
0.81
-0.32
-1.65
-3.03
-4.33
-5.48
-6.50
-7.41
-8.20
-8.81
-9.20
-9.41
-9.58
-9.86
-10.42
-11.22
-12.14
-12.93
-13.42
-13.60
-13.71
-14.07
-14.95
-16.42
-18.19
-19.75
-20.54
-20.06
-18.11
-14.73
-10.23
-4.97
0.66
6.34
11.86
17.08
21.89
26.17
29.79
32.55
34.35
35.15
35.05
34.22
32.85
31.10
29.06
26.82
24.49
22.22
20.15
18.37
16.92
15.74
14.74
13.73
12.52
10.98
9.02
6.73
4.30
2.03
0.19
-1.09
-1.84
-2.26
-2.64
-3.21
-4.08
-5.20
-6.44
-7.61
-8.65
-9.58
-10.57
-11.85
-13.67
-16.15
-19.17
-22.42
-25.30
-27.17
-27.41
-25.67
-21.97
-16.65
-10.33
-3.68
2.73
8.52
13.55
17.79
21.25
23.93
25.75
26.60
26.38
25.12
23.02
20.34
17.45
14.67
12.21
10.18
8.58
7.40
6.60
6.12
5.84
5.59
5.16
4.38
3.20
1.68
0.01
-1.55
-2.77
-3.52
-3.83
-3.90
-3.97
-4.27
-4.91
-5.86
-7.01
-8.20
-9.31
-10.22
-10.90
-11.39
-11.78
-12.28
-13.12
-14.49
-16.40
-18.57
-20.51
-21.64
-21.45
-19.77
-16.74
-12.81
-8.53
-4.42
-0.74
2.46
5.30
7.91
10.24
12.04
12.90
12.38
10.14
6.08
0.42
-6.38
-13.59
-20.37
-25.89
-29.54
-31.10
-30.75
-29.03
-26.64
-24.23
-22.18
-20.68
-19.71
-19.15
-18.86
-18.66
-18.33
-17.67
-16.54
-14.95
-13.08
-11.19
-9.51
-8.17
-7.13
-6.22
-5.29
-4.27
-3.21
-2.30
-1.75
-1.73
-2.29
-3.36
-4.70
-6.04
-7.05
-7.45
-7.03
-5.70
-3.44
-0.36
3.31
7.30
11.32
15.08
18.34
20.86
22.42
22.82
21.97
19.97
17.13
13.96
11.07
8.94
7.85
7.79
8.59
9.99
11.80
13.90
16.25
18.80
21.42
23.96
26.24
28.17
29.79
31.17
32.41
33.56
34.56
35.21
35.25
34.37
32.43
29.49
25.91
22.19
18.83
16.05
13.76
11.53
8.85
5.37
1.04
-3.88
-8.92
-13.60
-17.50
-20.27
-21.64
-21.36
-19.33
-15.63
-10.62
-4.89
0.88
6.06
10.20
13.09
14.68
15.10
14.52
13.12
11.10
8.68
6.12
3.69
1.69
0.41
-0.00
0.45
1.60
3.12
4.64
5.86
6.55
6.68
6.33
5.67
4.87
4.06
3.24
2.31
1.09
-0.52
-2.53
-4.76
-6.97
-8.91
-10.51
-11.86
-13.14
-14.53
-16.11
-17.88
-19.83
-21.95
-24.24
-26.53
-28.46
-29.47
-28.99
-26.65
-22.46
-16.81
-10.30
-3.51
3.11
9.27
14.79
19.47
23.10
25.47
26.50
26.26
25.00
23.04
20.72
18.29
15.91
13.64
11.48
9.44
7.53
5.80
4.28
2.96
1.76
0.57
-0.74
-2.25
-4.00
-5.87
-7.75
-9.49
-10.96
-12.14
-13.06
-13.85
-14.63
-15.52
-16.57
-17.75
-18.96
-20.08
-21.00
-21.62
-21.95
-22.03
-22.02
-22.13
-22.59
-23.54
-24.88
-26.24
-27.04
-26.64
-24.60
-20.83
-15.64
-9.61
-3.34
2.63
8.00
12.59
16.36
19.31
21.47
22.93
23.78
24.10
23.89
23.21
22.06
20.53
18.74
16.81
14.81
12.73
10.53
8.18
5.74
3.33
1.17
-0.57
-1.79
-2.51
-2.85
-2.97
-3.05
-3.19
-3.44
-3.79
-4.16
-4.50
-4.72
-4.77
-4.58
-4.16
-3.59
-2.97
-2.36
-1.77
-1.18
-0.58
-0.02
0.39
0.55
0.46
0.28
0.40
1.37
3.81
8.25
14.93
23.58
33.30
42.64
49.86
53.43
52.44
46.94
37.87
26.77
15.27
4.69
-4.21
-11.20
-16.44
-20.23
-22.85
-24.45
-25.00
-24.41
-22.63
-19.80
-16.32
-12.85
-10.15
-8.78
-8.87
-10.04
-11.56
-12.61
-12.63
-11.55
-9.67
-7.48
-5.39
-3.60
-2.17
-1.22
-1.04
-2.00
-4.45
-8.48
-13.82
-19.94
-26.21
-32.03
-36.92
-40.44
-42.18
-41.86
-39.46
-35.35
-30.21
-24.82
-19.71
-14.99
-10.42
-5.68
-0.71
4.18
8.33
11.12
12.23
11.77
10.19
8.02
5.61
3.11
0.59
-1.76
-3.56
-4.32
-3.68
-1.62
1.43
4.70
7.42
9.03
9.38
8.65
7.26
5.62
4.00
2.46
0.90
-0.92
-3.17
-5.84
-8.64
-11.01
-12.30
-12.03
-10.17
-7.20
-4.03
-1.72
-1.13
-2.61
-5.88
-10.10
-14.09
-16.78
-17.43
-15.90
-12.61
-8.24
-3.47
1.31
6.01
10.75
15.53
20.18
24.30
27.51
29.63
30.79
31.28
31.41
31.27
30.70
29.47
27.44
24.79
21.94
19.46
17.75
16.92
16.74
16.77
16.54
15.79
14.48
12.80
10.96
9.11
7.24
5.23
2.99
0.51
-2.06
-4.51
-6.62
-8.31
-9.65
-10.87
-12.24
-13.96
-16.05
-18.44
-20.95
-23.41
-25.71
-27.80
-29.59
-30.92
-31.48
-30.91
-28.92
-25.40
-20.48
-14.55
-8.12
-1.65
4.48
10.02
14.81
18.69
21.51
23.15
23.59
22.98
21.62
19.88
18.03
16.17
14.21
12.01
9.48
6.73
4.05
1.80
0.19
-0.76
-1.30
-1.79
-2.55
-3.75
-5.38
-7.28
-9.22
-10.97
-12.34
-13.27
-13.75
-13.87
-13.82
-13.76
-13.84
-14.08
-14.41
-14.68
-14.77
-14.63
-14.36
-14.16
-14.29
-14.85
-15.78
-16.75
-17.33
-17.04
-15.55
-12.74
-8.72
-3.80
1.60
7.08
12.30
17.06
21.26
24.89
27.91
30.25
31.78
32.37
31.95
30.62
28.64
26.32
23.99
21.88
20.07
18.55
17.19
15.87
14.50
13.06
11.58
10.18
8.90
7.73
6.60
5.37
3.94
2.31
0.58
-1.12
-2.67
-4.05
-5.34
-6.71
-8.24
-9.99
-11.86
-13.71
-15.32
-16.55
-17.32
-17.68
-17.81
-17.93
-18.22
-18.70
-19.21
-19.38
-18.74
-16.79
-13.18
-7.80
-0.88
6.99
14.93
21.91
26.99
29.54
29.40
26.90
22.75
17.83
12.90
8.50
4.83
1.84
-0.61
-2.62
-4.20
-5.23
-5.54
-4.94
-3.37
-0.84
2.46
6.19
9.82
12.78
14.62
15.19
14.79
14.08
13.84
14.56
16.25
18.37
20.12
20.77
19.99
17.84
14.61
10.54
5.66
-0.11
-6.79
-14.09
-21.47
-28.29
-34.02
-38.36
-41.17
-42.26
-41.39
-38.27
-32.84
-25.44
-16.85
-8.04
0.13
7.17
13.01
17.82
21.78
24.90
27.08
28.27
28.61
28.46
28.33
28.62
29.45
30.51
31.19
30.69
28.32
23.69
16.85
8.33
-0.98
-10.03
-17.85
-23.80
-27.58
-29.29
-29.13
-27.35
-24.15
-19.71
-14.40
-8.85
-3.88
-0.36
1.12
0.48
-1.80
-4.82
-7.61
-9.38
-9.82
-9.14
-7.91
-6.91
-6.93
-8.56
-12.21
-17.99
-25.73
-34.84
-44.34
-52.92
-59.14
-61.78
-60.23
-54.60
-45.76
-35.12
-24.21
-14.33
-6.30
-0.31
3.94
7.04
9.61
12.07
14.53
16.91
18.97
20.54
21.53
22.01
22.10
21.96
21.67
21.21
20.52
19.59
18.51
17.50
16.85
16.78
17.30
18.22
19.14
19.62
19.33
18.18
16.33
14.11
11.86
9.83
8.11
6.65
5.38
4.21
3.13
2.09
1.04
-0.11
-1.38
-2.71
-3.86
-4.63
-4.97
-5.03
-5.18
-5.75
-6.84
-8.22
-9.39
-9.80
-9.07
-7.13
-4.16
-0.53
3.39
7.27
10.84
13.91
16.32
17.95
18.75
18.74
18.05
16.79
15.15
13.26
11.26
9.24
7.26
5.35
3.48
1.65
-0.14
-1.79
-3.22
-4.30
-4.96
-5.23
-5.19
-5.01
-4.80
-4.67
-4.60
-4.58
-4.58
-4.59
-4.62
-4.68
-4.75
-4.81
-4.84
-4.81
-4.70
-4.53
-4.30
-4.03
-3.75
-3.53
-3.45
-3.60
-4.03
-4.70
-5.49
-6.19
-6.58
-6.44
-5.60
-3.97
-1.57
1.51
5.05
8.78
12.40
15.61
18.14
19.81
20.51
20.22
19.02
17.10
14.73
12.19
9.76
7.62
5.84
4.42
3.32
2.49
1.96
1.74
1.77
1.91
1.95
1.68
0.99
-0.07
-1.29
-2.42
-3.29
-3.88
-4.35
-4.90
-5.69
-6.74
-7.98
-9.26
-10.46
-11.48
-12.30
-12.92
-13.40
-13.91
-14.66
-15.88
-17.69
-19.97
-22.35
-24.23
-25.00
-24.18
-21.65
-17.62
-12.55
-7.05
-1.64
3.28
7.46
10.80
13.28
14.91
15.75
15.84
15.28
14.19
12.74
11.12
9.52
8.10
6.91
5.96
5.19
4.56
4.04
3.64
3.34
3.04
2.62
1.95
0.98
-0.21
-1.48
-2.65
-3.66
-4.52
-5.39
-6.43
-7.76
-9.41
-11.30
-13.24
-15.07
-16.69
-18.13
-19.54
-21.14
-23.12
-25.55
-28.27
-30.94
-33.07
-34.20
-33.99
-32.29
-29.16
-24.85
-19.73
-14.25
-8.85
-3.91
0.32
3.72
6.30
8.16
9.43
10.25
10.74
11.00
11.09
11.08
11.05
11.05
11.13
11.30
11.57
11.90
12.31
12.79
13.35
13.94
14.45
14.70
14.53
13.85
12.69
11.19
9.53
7.90
6.41
5.09
3.89
2.71
1.48
0.13
-1.34
-2.94
-4.64
-6.48
-8.49
-10.71
-13.10
-15.50
-17.66
-19.24
-19.94
-19.52
-17.90
-15.13
-11.38
-6.94
-2.14
2.63
7.06
10.86
13.87
15.97
17.17
17.52
17.13
16.22
14.99
13.61
12.21
10.83
9.47
8.12
6.83
5.65
4.68
4.03
3.79
3.96
4.48
5.19
5.94
6.58
7.02
7.25
7.26
7.02
6.45
5.48
4.14
2.57
0.98
-0.49
-1.80
-3.10
-4.57
-6.43
-8.78
-11.63
-14.83
-18.14
-21.20
-23.55
-24.72
-24.30
-22.10
-18.15
-12.81
-6.63
-0.28
5.62
10.64
14.53
17.26
18.95
19.75
19.84
19.34
18.36
17.03
15.49
13.86
12.27
10.81
9.54
8.52
7.81
7.42
7.36
7.53
7.78
7.89
7.69
7.07
6.06
4.78
3.44
2.20
1.15
0.20
-0.78
-1.96
-3.43
-5.13
-6.88
-8.47
-9.74
-10.65
-11.33
-12.03
-13.03
-14.57
-16.70
-19.28
-21.89
-23.97
-24.87
-24.11
-21.50
-17.23
-11.76
-5.67
0.62
6.99
13.58
20.69
28.47
36.76
44.93
52.00
56.79
58.30
55.93
49.72
40.39
29.12
17.32
6.20
-3.42
-11.22
-17.29
-21.84
-25.05
-26.90
-27.21
-25.80
-22.63
-17.95
-12.29
-6.40
-1.07
3.06
5.68
6.89
7.13
7.00
7.07
7.62
8.67
9.98
11.30
12.40
13.06
12.99
11.70
8.50
2.77
-5.69
-16.42
-28.15
-39.09
-47.33
-51.44
-50.74
-45.45
-36.49
-25.26
-13.39
-2.42
6.36
12.18
14.91
15.09
13.76
12.07
10.97
10.96
12.08
14.09
16.66
19.38
21.72
22.89
21.93
17.96
10.59
0.22
-11.91
-24.00
-34.29
-41.52
-45.25
-45.76
-43.79
-40.14
-35.44
-30.15
-24.63
-19.35
-14.77
-11.33
-9.14
-7.98
-7.30
-6.50
-5.20
-3.46
-1.70
-0.48
-0.18
-0.73
-1.60
-2.05
-1.52
0.10
2.29
4.19
4.88
3.81
1.03
-2.89
-7.08
-10.70
-13.19
-14.26
-13.85
-11.95
-8.61
-3.99
1.57
7.46
12.95
17.39
20.42
22.19
23.20
24.06
25.16
26.40
27.32
27.22
25.54
22.13
17.31
11.74
6.16
1.23
-2.62
-5.15
-6.29
-6.04
-4.46
-1.72
1.86
5.76
9.31
11.74
12.32
10.50
6.05
-0.81
-9.49
-19.06
-28.44
-36.64
-42.90
-46.72
-47.84
-46.18
-41.81
-34.98
-26.18
-16.17
-6.01
3.24
10.72
16.06
19.42
21.45
22.87
24.26
25.84
27.50
29.05
30.45
31.91
33.76
36.18
38.89
41.04
41.39
38.77
32.65
23.39
12.21
0.80
-9.27
-16.98
-21.94
-24.23
-24.09
-21.71
-17.32
-11.33
-4.51
2.05
7.17
9.98
10.10
7.72
3.43
-1.98
-7.74
-13.15
-17.69
-21.00
-22.93
-23.45
-22.69
-20.80
-17.97
-14.38
-10.20
-5.69
-1.06
3.55
8.17
12.98
18.24
24.12
30.57
37.22
43.39
48.19
50.67
50.11
46.18
39.15
29.83
19.46
9.36
0.70
-5.68
-9.30
-9.88
-7.36
-1.94
5.61
13.82
20.69
24.25
23.38
18.37
11.03
3.96
-0.43
-1.01
1.73
5.98
9.53
10.66
8.68
3.88
-2.80
-10.22
-17.28
-23.02
-26.56
-27.31
-25.20
-21.02
-16.45
-13.73
-14.97
-21.37
-32.63
-46.92
-61.32
-72.76
-78.94
-78.87
-72.97
-62.56
-49.30
-34.74
-20.15
-6.64
4.75
13.24
18.54
21.12
22.19
23.23
25.43
29.11
33.66
37.79
40.17
39.97
37.15
32.36
26.61
20.90
16.02
12.57
10.98
11.63
14.73
20.10
26.94
33.80
38.81
40.14
36.67
28.28
16.00
1.66
-12.62
-24.90
-33.88
-38.95
-40.15
-38.08
-33.67
-28.11
-22.67
-18.60
-16.95
-18.36
-22.80
-29.48
-36.93
-43.30
-46.88
-46.64
-42.49
-35.26
-26.17
-16.44
-6.83
2.36
11.06
19.15
26.36
32.28
36.50
38.79
39.10
37.54
34.35
29.89
24.66
19.26
14.33
10.43
8.02
7.38
8.62
11.60
15.89
20.78
25.38
28.83
30.44
29.84
26.88
21.66
14.50
6.00
-3.01
-11.53
-18.56
-23.40
-25.68
-25.43
-22.93
-18.66
-13.36
-7.98
-3.71
-1.61
-2.22
-5.21
-9.38
-13.10
-14.97
-14.42
-11.93
-8.72
-6.12
-4.94
-5.20
-6.23
-7.15
-7.27
-6.31
-4.31
-1.43
2.25
6.65
11.48
16.14
19.85
21.92
22.20
21.22
19.88
19.03
18.82
18.60
17.14
13.28
6.48
-2.81
-13.36
-23.63
-32.36
-38.79
-42.69
-44.09
-43.13
-39.99
-35.08
-29.19
-23.46
-19.09
-16.86
-16.80
-18.13
-19.61
-20.11
-19.12
-16.88
-14.23
-12.09
-11.02
-10.94
-11.22
-11.02
-9.64
-6.85
-2.85
1.90
6.97
12.19
17.60
23.38
29.58
35.91
41.77
46.42
49.23
49.89
48.59
45.89
42.64
39.75
38.00
37.89
39.51
42.52
46.15
49.31
50.68
49.04
43.50
33.83
20.64
5.27
-10.55
-25.14
-37.29
-46.44
-52.53
-55.77
-56.37
-54.55
-50.69
-45.50
-40.04
-35.43
-32.46
-31.23
-31.14
-31.21
-30.56
-28.84
-26.37
-23.87
-22.00
-20.90
-20.14
-18.82
-16.13
-11.69
-5.81
0.77
7.22
12.95
17.87
22.21
26.28
30.22
33.84
36.74
38.53
39.01
38.30
36.72
34.66
32.37
29.93
27.29
24.41
21.40
18.48
16.01
14.26
13.33
13.07
13.11
13.03
12.50
11.34
9.56
7.30
4.68
1.78
-1.44
-5.02
-8.93
-13.06
-17.17
-21.00
-24.36
-27.11
-29.20
-30.64
-31.46
-31.84
-31.97
-32.11
-32.36
-32.68
-32.82
-32.45
-31.35
-29.50
-27.04
-24.19
-21.13
-17.92
-14.56
-11.08
-7.61
-4.40
-1.81
-0.08
0.63
0.38
-0.62
-2.04
-3.47
-4.58
-5.15
-5.09
-4.50
-3.60
-2.60
-1.68
-0.87
-0.13
0.66
1.60
2.72
3.99
5.29
6.56
7.72
8.75
9.62
10.27
10.61
10.55
10.07
9.20
8.10
7.00
6.14
5.72
5.81
6.37
7.21
8.02
8.48
8.30
7.38
5.85
4.08
2.61
1.99
2.57
4.42
7.24
10.58
13.99
17.21
20.17
23.00
25.75
28.33
30.46
31.72
31.75
30.39
27.79
24.42
21.01
18.39
17.27
17.91
19.95
22.43
24.10
23.95
21.59
17.50
12.67
8.18
4.66
2.02
-0.32
-3.01
-6.38
-10.17
-13.64
-15.89
-16.15
-14.17
-10.28
-5.41
-0.93
1.66
1.08
-3.32
-11.39
-22.17
-34.15
-45.71
-55.40
-62.28
-65.89
-66.25
-63.70
-58.71
-51.80
-43.41
-33.96
-23.85
-13.66
-4.11
4.04
10.18
14.14
16.27
17.30
18.06
19.07
20.45
21.97
23.38
24.64
26.01
27.85
30.26
32.90
35.08
35.99
35.18
32.82
29.77
27.25
26.35
27.60
30.70
34.53
37.53
38.10
35.16
28.34
18.18
5.82
-7.29
-19.83
-30.84
-39.81
-46.51
-50.73
-52.21
-50.69
-46.27
-39.71
-32.47
-26.40
-23.02
-22.84
-25.02
-27.67
-28.66
-26.54
-21.09
-13.25
-4.50
3.87
11.28
17.81
23.72
28.90
32.67
33.93
31.79
26.05
17.50
7.61
-2.00
-10.07
-15.97
-19.65
-21.30
-21.06
-19.02
-15.36
-10.65
-5.91
-2.42
-1.23
-2.68
-6.18
-10.48
-14.16
-16.22
-16.44
-15.32
-13.68
-12.26
-11.42
-11.15
-11.26
-11.58
-12.07
-12.74
-13.56
-14.39
-15.06
-15.46
-15.67
-15.88
-16.30
-16.96
-17.56
-17.58
-16.39
-13.56
-9.02
-3.12
3.48
10.06
16.06
21.24
25.66
29.51
32.91
35.82
37.96
38.97
38.61
36.82
33.87
30.23
26.41
22.82
19.72
17.15
15.11
13.55
12.43
11.72
11.29
10.95
10.46
9.71
8.72
7.67
6.78
6.20
5.89
5.67
5.28
4.55
3.42
2.01
0.50
-0.93
-2.21
-3.37
-4.49
-5.69
-7.06
-8.68
-10.61
-12.85
-15.33
-17.85
-20.10
-21.70
-22.26
-21.51
-19.35
-15.90
-11.44
-6.40
-1.22
3.68
8.01
11.57
14.33
16.28
17.51
18.09
18.08
17.57
16.63
15.38
13.97
12.50
11.06
9.66
8.33
7.08
5.98
5.11
4.56
4.34
4.36
4.45
4.41
4.07
3.37
2.32
1.01
-0.45
-1.96
-3.48
-5.00
-6.57
-8.23
-10.03
-11.91
-13.75
-15.40
-16.70
-17.64
-18.33
-19.00
-19.89
-21.17
-22.88
-24.87
-26.88
-28.60
-29.66
-29.73
-28.55
-25.94
-21.95
-16.82
-10.93
-4.73
1.40
7.18
12.39
16.88
20.49
23.09
24.62
25.11
24.64
23.40
21.56
19.38
17.15
15.15
13.58
12.44
11.56
10.70
9.67
8.44
7.16
5.97
4.98
4.11
3.19
2.03
0.57
-1.12
-2.91
-4.60
-6.07
-7.29
-8.32
-9.31
-10.42
-11.76
-13.33
-15.04
-16.71
-18.18
-19.36
-20.26
-20.98
-21.63
-22.35
-23.29
-24.61
-26.47
-28.84
-31.47
-33.83
-35.21
-34.97
-32.79
-28.79
-23.44
-17.42
-11.27
-5.27
0.50
6.11
11.51
16.47
20.65
23.70
25.46
26.06
25.85
25.26
24.62
24.03
23.44
22.72
21.81
20.83
19.94
19.31
18.94
18.70
18.35
17.72
16.81
15.77
14.83
14.15
13.74
13.41
12.88
11.92
10.49
8.69
6.77
4.94
3.30
1.75
0.14
-1.64
-3.51
-5.28
-6.73
-7.82
-8.74
-9.86
-11.53
-13.85
-16.60
-19.24
-21.11
-21.64
-20.55
-17.87
-13.90
-9.11
-3.93
1.29
6.33
11.08
15.39
19.05
21.82
23.49
24.03
23.61
22.47
20.91
19.10
17.12
15.03
12.96
11.11
9.65
8.68
8.15
7.85
7.58
7.21
6.66
5.94
5.06
4.05
2.93
1.77
0.61
-0.56
-1.81
-3.26
-4.99
-6.92
-8.86
-10.59
-12.00
-13.11
-14.11
-15.17
-16.39
-17.73
-19.07
-20.32
-21.50
-22.74
-24.21
-26.01
-28.03
-29.91
-31.16
-31.27
-29.94
-27.11
-23.04
-18.11
-12.74
-7.26
-1.93
3.05
7.46
11.04
13.62
15.12
15.65
15.42
14.65
13.48
12.00
10.24
8.28
6.25
4.33
2.73
1.58
0.90
0.60
0.48
0.32
-0.02
-0.58
-1.24
-1.82
-2.16
-2.17
-1.90
-1.52
-1.21
-1.14
-1.34
-1.76
-2.26
-2.69
-2.96
-3.06
-3.04
-2.99
-2.97
-3.03
-3.17
-3.45
-3.96
-4.80
-6.00
-7.46
-9.00
-10.32
-11.11
-11.13
-10.19
-8.16
-5.00
-0.75
4.42
10.17
16.09
21.74
26.78
30.97
34.19
36.44
37.70
38.01
37.41
36.00
33.89
31.28
28.38
25.43
22.62
20.05
17.76
15.74
13.90
12.19
10.56
8.98
7.38
5.71
3.89
1.96
0.02
-1.73
-3.12
-4.12
-4.88
-5.69
-6.88
-8.64
-10.94
-13.52
-15.95
-17.85
-19.01
-19.46
-19.51
-19.59
-20.17
-21.52
-23.67
-26.34
-28.98
-30.98
-31.76
-30.94
-28.42
-24.39
-19.21
-13.36
-7.32
-1.45
3.95
8.71
12.70
15.89
18.27
19.91
20.83
21.00
20.38
18.94
16.76
14.09
11.29
8.70
6.57
4.92
3.65
2.60
1.68
0.88
0.22
-0.31
-0.80
-1.41
-2.33
-3.64
-5.30
-7.16
-8.99
-10.63
-12.03
-13.30
-14.59
-16.04
-17.67
-19.40
-21.12
-22.75
-24.36
-26.06
-27.97
-30.16
-32.65
-35.46
-38.61
-42.09
-45.66
-48.85
-51.01
-51.60
-50.45
-47.85
-44.49
-41.12
-38.43
-36.89
-36.88
-38.70
-42.57
-48.44
-55.75
-63.46
-70.18
-74.51
-75.43
-72.54
-66.10
-56.90
-45.99
-34.39
-22.92
-12.04
-1.95
7.33
15.71
22.99
28.83
32.96
35.29
35.96
35.35
33.84
31.75
29.28
26.57
23.71
20.79
17.82
14.78
11.53
7.89
3.66
-1.23
-6.69
-12.42
-17.94
-22.70
-26.23
-28.24
-28.66
-27.57
-25.00
-20.85
-14.89
-6.92
3.03
14.54
26.92
39.34
51.09
61.66
70.70
77.87
82.81
85.19
84.94
82.34
78.13
73.23
68.42
64.15
60.43
57.02
53.68
50.31
47.01
43.97
41.29
38.89
36.59
34.17
31.57
28.91
26.45
24.41
22.93
21.95
21.30
20.78
20.23
19.60
18.89
18.09
17.22
16.25
15.18
14.03
12.90
11.97
11.47
11.63
12.56
14.21
16.34
18.55
20.43
21.75
22.59
23.38
24.82
27.70
32.66
40.07
49.81
61.32
73.60
85.29
94.89
100.98
102.51
99.06
91.03
79.62
66.57
53.66
42.17
32.51
24.20
16.24
7.76
-1.55
-11.30
-20.65
-28.90
-35.87
-42.05
-48.33
-55.41
-63.39
-71.65
-79.09
-84.61
-87.57
-88.01
-86.51
-83.91
-80.84
-77.52
-73.79
-69.35
-64.12
-58.37
-52.71
-47.78
-43.99
-41.27
-39.23
-37.35
-35.35
-33.32
-31.64
-30.73
-30.71
-31.26
-31.63
-30.95
-28.56
-24.29
-18.49
-11.86
-5.13
1.16
6.80
11.78
16.16
19.96
23.08
25.37
26.76
27.31
27.15
26.49
25.47
24.22
22.86
21.54
20.44
19.72
19.46
19.58
19.92
20.20
20.17
19.67
18.69
17.33
15.82
14.38
13.17
12.24
11.47
10.63
9.50
7.93
5.94
3.71
1.50
-0.46
-2.08
-3.37
-4.52
-5.70
-7.09
-8.80
-10.88
-13.23
-15.59
-17.51
-18.49
-18.09
-16.13
-12.72
-8.25
-3.24
1.81
6.57
10.85
14.60
17.78
20.31
22.06
22.92
22.81
21.82
20.10
17.95
15.65
13.42
11.37
9.45
7.61
5.82
4.14
2.73
1.74
1.24
1.09
1.05
0.84
0.23
-0.82
-2.23
-3.84
-5.48
-7.06
-8.54
-9.92
-11.20
-12.32
-13.23
-13.93
-14.46
-14.96
-15.55
-16.33
-17.33
-18.47
-19.64
-20.75
-21.77
-22.76
-23.79
-24.83
-25.64
-25.83
-24.92
-22.56
-18.72
-13.70
-8.08
-2.45
2.71
7.18
10.89
13.89
16.19
17.76
18.52
18.44
17.55
16.02
14.04
11.85
9.64
7.53
5.57
3.75
2.06
0.53
-0.79
-1.82
-2.57
-3.13
-3.71
-4.49
-5.59
-6.94
-8.39
-9.72
-10.81
-11.65
-12.35
-13.08
-13.99
-15.16
-16.51
-17.83
-18.83
-19.20
-18.82
-17.77
-16.35
-14.99
-14.08
-13.90
-14.49
-15.70
-17.25
-18.74
-19.81
-20.10
-19.39
-17.60
-14.83
-11.32
-7.36
-3.20
0.92
4.86
8.48
11.71
14.54
17.01
19.19
21.10
22.70
23.87
24.48
24.47
23.87
22.83
21.54
20.22
19.03
18.07
17.40
17.05
16.96
17.00
16.97
16.64
15.84
14.51
12.78
10.91
9.16
7.70
6.47
5.27
3.89
2.23
0.43
-1.24
-2.52
-3.25
-3.53
-3.65
-3.94
-4.64
-5.87
-7.58
-9.60
-11.71
-13.59
-14.94
-15.41
-14.76
-12.86
-9.82
-5.91
-1.59
2.68
6.56
9.86
12.55
14.65
16.19
17.14
17.41
16.95
15.76
13.97
11.76
9.35
6.93
4.63
2.52
0.64
-1.08
-2.72
-4.36
-6.01
-7.54
-8.79
-9.57
-9.87
-9.83
-9.71
-9.76
-10.10
-10.67
-11.33
-11.96
-12.57
-13.30
-14.27
-15.46
-16.71
-17.77
-18.48
-18.86
-19.16
-19.67
-20.63
-22.10
-23.95
-25.99
-28.01
-29.86
-31.39
-32.39
-32.57
-31.62
-29.37
-25.84
-21.30
-16.25
-11.22
-6.69
-2.92
0.04
2.31
4.06
5.42
6.46
7.14
7.42
7.29
6.82
6.16
5.52
5.09
5.03
5.40
6.16
7.22
8.43
9.62
10.64
11.38
11.78
11.80
11.47
10.86
10.11
9.35
8.71
8.22
7.84
7.40
6.70
5.61
4.12
2.44
0.87
-0.29
-0.95
-1.32
-1.82
-2.93
-4.93
-7.76
-11.00
-14.05
-16.29
-17.29
-16.87
-15.10
-12.19
-8.44
-4.20
0.25
4.67
8.93
12.94
16.54
19.54
21.66
22.72
22.69
21.75
20.24
18.49
16.76
15.19
13.84
12.76
11.98
11.48
11.18
10.87
10.32
9.34
7.91
6.14
4.23
2.36
0.70
-0.67
-1.73
-2.47
-2.99
-3.41
-3.94
-4.73
-5.87
-7.29
-8.81
-10.18
-11.25
-12.06
-12.86
-14.03
-15.92
-18.65
-22.00
-25.40
-28.04
-29.13
-28.10
-24.78
-19.48
-12.85
-5.73
1.11
7.15
12.17
16.17
19.22
21.42
22.79
23.37
23.27
22.68
21.84
20.90
19.87
18.65
17.12
15.25
13.18
11.16
9.47
8.26
7.55
7.20
7.03
6.84
6.46
5.80
4.85
3.68
2.39
1.10
-0.16
-1.44
-2.88
-4.62
-6.66
-8.90
-11.08
-12.96
-14.35
-15.29
-15.92
-16.54
-17.42
-18.79
-20.72
-23.11
-25.65
-27.82
-29.02
-28.67
-26.41
-22.20
-16.42
-9.72
-2.87
3.50
9.01
13.57
17.26
20.17
22.31
23.65
24.12
23.75
22.68
21.11
19.29
17.41
15.62
14.05
12.80
11.90
11.34
10.95
10.57
10.01
9.20
8.18
7.07
6.00
5.00
4.05
3.02
1.80
0.35
-1.32
-3.10
-4.88
-6.59
-8.20
-9.75
-11.27
-12.75
-14.17
-15.49
-16.73
-17.98
-19.36
-21.00
-22.96
-25.18
-27.53
-29.81
-31.74
-32.95
-33.04
-31.64
-28.55
-23.87
-17.99
-11.53
-5.09
0.86
6.10
10.61
14.40
17.47
19.78
21.28
21.99
21.99
21.47
20.61
19.60
18.57
17.58
16.65
15.77
14.94
14.22
13.69
13.43
13.41
13.51
13.48
13.09
12.19
10.83
9.25
7.70
6.35
5.22
4.17
2.99
1.56
-0.09
-1.82
-3.40
-4.67
-5.55
-6.12
-6.54
-7.00
-7.71
-8.78
-10.25
-12.05
-13.99
-15.77
-17.02
-17.38
-16.60
-14.63
-11.60
-7.77
-3.47
1.06
5.64
10.14
14.46
18.46
21.93
24.63
26.29
26.73
25.94
24.05
21.42
18.52
15.76
13.38
11.43
9.77
8.25
6.83
5.56
4.63
4.16
4.16
4.48
4.86
5.04
4.82
4.14
3.00
1.48
-0.34
-2.32
-4.35
-6.35
-8.21
-9.88
-11.33
-12.53
-13.49
-14.23
-14.77
-15.19
-15.63
-16.37
-17.64
-19.61
-22.20
-25.05
-27.53
-28.97
-28.82
-26.83
-23.12
-18.08
-12.28
-6.28
-0.53
4.66
9.15
12.89
15.91
18.21
19.80
20.63
20.69
20.02
18.74
17.02
15.06
13.09
11.27
9.70
8.40
7.33
6.39
5.55
4.83
4.31
4.02
3.92
3.86
3.66
3.16
2.32
1.18
-0.15
-1.61
-3.14
-4.68
-6.18
-7.55
-8.71
-9.67
-10.48
-11.25
-12.04
-12.87
-13.74
-14.69
-15.78
-17.15
-18.85
-20.89
-23.18
-25.54
-27.72
-29.37
-30.08
-29.47
-27.26
-23.45
-18.34
-12.49
-6.55
-1.08
3.59
7.36
10.32
12.64
14.44
15.72
16.38
16.30
15.41
13.81
11.75
9.59
7.68
6.23
5.32
4.91
4.92
5.30
5.96
6.77
7.51
7.97
8.00
7.64
7.06
6.51
6.14
5.96
5.78
5.40
4.67
3.60
2.34
1.13
0.17
-0.46
-0.83
-1.12
-1.55
-2.26
-3.29
-4.59
-6.07
-7.67
-9.41
-11.27
-13.21
-15.07
-16.57
-17.35
-17.06
-15.48
-12.55
-8.40
-3.35
2.20
7.80
13.04
17.61
21.27
23.87
25.35
25.75
25.20
23.91
22.16
20.19
18.20
16.32
14.65
13.27
12.24
11.59
11.31
11.29
11.37
11.38
11.21
10.79
10.09
9.14
7.97
6.68
5.36
4.06
2.79
1.42
-0.18
-2.08
-4.22
-6.40
-8.39
-10.01
-11.24
-12.21
-13.07
-13.98
-15.02
-16.28
-17.89
-19.97
-22.56
-25.45
-28.21
-30.17
-30.73
-29.47
-26.36
-21.72
-16.06
-9.97
-3.93
1.74
6.83
11.24
14.86
17.63
19.46
20.31
20.24
19.39
18.02
16.40
14.76
13.23
11.84
10.53
9.28
8.13
7.20
6.64
6.50
6.68
6.91
6.88
6.32
5.15
3.46
1.56
-0.21
-1.63
-2.62
-3.30
-3.89
-4.65
-5.76
-7.30
-9.19
-11.30
-13.42
-15.35
-16.99
-18.34
-19.51
-20.69
-22.14
-24.01
-26.36
-29.06
-31.78
-34.05
-35.29
-35.01
-32.93
-29.08
-23.82
-17.71
-11.35
-5.23
0.39
5.40
9.80
13.55
16.54
18.55
19.38
18.96
17.43
15.17
12.71
10.60
9.21
8.63
8.77
9.38
10.30
11.40
12.62
13.83
14.83
15.38
15.31
14.59
13.34
11.80
10.16
8.57
7.10
5.82
4.78
4.04
3.61
3.36
3.14
2.74
2.03
0.98
-0.32
-1.77
-3.27
-4.83
-6.54
-8.47
-10.60
-12.70
-14.34
-15.01
-14.26
-11.90
-7.99
-2.91
2.84
8.69
14.14
18.76
22.29
24.60
25.73
25.86
25.17
23.85
22.02
19.74
17.15
14.44
11.86
9.61
7.82
6.48
5.50
4.84
4.46
4.39
4.60
4.92
5.09
4.88
4.14
2.94
1.48
0.00
-1.37
-2.66
-4.00
-5.51
-7.23
-9.01
-10.61
-11.83
-12.55
-12.82
-12.85
-12.89
-13.20
-14.02
-15.49
-17.63
-20.24
-22.93
-25.12
-26.22
-25.80
-23.70
-20.07
-15.25
-9.71
-3.89
1.80
7.03
11.57
15.25
18.07
20.04
21.25
21.75
21.55
20.71
19.30
17.51
15.57
13.68
11.98
10.50
9.24
8.16
7.18
6.17
4.97
3.41
1.44
-0.86
-3.23
-5.34
-6.83
-7.44
-7.04
-5.74
-3.82
-1.79
-0.23
0.33
-0.48
-2.73
-6.19
-10.35
-14.58
-18.30
-21.10
-22.87
-23.80
-24.31
-24.88
-25.89
-27.44
-29.35
-31.19
-32.42
-32.49
-30.99
-27.67
-22.53
-15.78
-7.87
0.68
9.26
17.39
24.68
30.84
35.60
38.67
39.76
38.70
35.55
30.68
24.77
18.65
13.16
8.93
6.28
5.24
5.55
6.88
8.80
10.95
13.03
14.80
16.13
16.94
17.29
17.34
17.31
17.42
17.81
18.45
19.15
19.60
19.44
18.33
16.07
12.67
8.37
3.55
-1.30
-5.78
-9.69
-13.09
-16.20
-19.34
-22.74
-26.42
-30.18
-33.60
-36.18
-37.44
-37.09
-35.07
-31.59
-27.12
-22.20
-17.31
-12.77
-8.73
-5.20
-2.20
0.23
2.02
3.16
3.68
3.75
3.60
3.48
3.56
3.88
4.32
4.65
4.62
4.06
2.97
1.53
0.03
-1.20
-1.95
-2.17
-1.92
-1.30
-0.40
0.72
1.94
3.07
3.85
4.06
3.62
2.64
1.42
0.27
-0.56
-1.00
-1.22
-1.54
-2.31
-3.80
-6.08
-9.00
-12.25
-15.35
-17.74
-18.89
-18.42
-16.18
-12.34
-7.35
-1.82
3.67
8.69
13.06
16.76
19.82
22.19
23.75
24.36
23.96
22.66
20.63
18.10
15.20
12.04
8.66
5.19
1.82
-1.18
-3.55
-5.12
-5.86
-5.91
-5.53
-4.98
-4.44
-4.05
-3.82
-3.78
-3.91
-4.21
-4.65
-5.19
-5.77
-6.37
-7.01
-7.66
-8.26
-8.73
-8.98
-9.07
-9.24
-9.89
-11.44
-14.06
-17.60
-21.51
-25.03
-27.39
-28.07
-26.88
-24.03
-19.93
-15.13
-10.08
-5.18
-0.67
3.25
6.47
8.94
10.68
11.78
12.29
12.28
11.78
10.92
10.02
9.66
10.52
13.23
18.05
24.67
32.21
39.40
44.91
47.71
47.41
44.26
38.96
32.46
25.54
18.71
12.19
5.93
-0.13
-6.04
-11.73
-17.10
-21.96
-26.02
-28.94
-30.38
-30.13
-28.33
-25.52
-22.55
-20.33
-19.48
-20.16
-21.97
-24.19
-25.98
-26.62
-25.65
-22.85
-18.23
-11.98
-4.54
3.49
11.37
18.37
23.96
27.95
30.48
31.98
32.90
33.58
34.11
34.36
34.03
32.84
30.63
27.49
23.83
20.37
17.97
17.44
19.16
22.90
27.68
32.02
34.32
33.39
28.83
21.08
11.22
0.56
-9.74
-18.94
-26.75
-33.21
-38.50
-42.78
-46.12
-48.45
-49.61
-49.43
-47.83
-44.95
-41.20
-37.22
-33.71
-31.18
-29.75
-29.08
-28.47
-27.13
-24.36
-19.82
-13.54
-5.88
2.54
10.98
18.70
25.04
29.60
32.27
33.28
33.15
32.52
31.98
31.87
32.21
32.68
32.76
31.96
29.95
26.74
22.66
18.26
14.11
10.61
7.88
5.76
3.90
1.91
-0.46
-3.24
-6.28
-9.31
-12.05
-14.36
-16.23
-17.75
-19.00
-20.03
-20.74
-20.90
-20.19
-18.35
-15.29
-11.30
-7.03
-3.41
-1.40
-1.66
-4.34
-9.01
-14.83
-20.74
-25.81
-29.32
-30.93
-30.58
-28.48
-24.98
-20.59
-15.77
-10.94
-6.43
-2.45
0.84
3.39
5.31
6.89
8.56
10.73
13.56
16.78
19.75
21.63
21.77
19.96
16.48
11.96
7.04
2.19
-2.34
-6.46
-10.05
-12.89
-14.57
-14.66
-12.94
-9.57
-5.21
-0.85
2.55
4.44
4.99
5.00
5.58
7.62
11.33
16.14
20.91
24.33
25.35
23.48
18.78
11.75
3.13
-6.14
-15.00
-22.24
-26.60
-27.03
-23.11
-15.36
-5.31
4.93
13.44
19.22
22.52
24.56
26.78
30.02
34.13
38.09
40.60
40.77
38.39
33.94
28.14
21.70
15.12
8.86
3.53
-0.03
-1.05
0.74
4.66
9.07
11.86
11.27
6.75
-0.80
-9.39
-16.82
-21.61
-23.45
-23.01
-21.33
-19.20
-16.84
-14.04
-10.51
-6.29
-1.78
2.39
5.64
7.67
8.44
8.03
6.47
3.68
-0.46
-5.90
-12.25
-18.73
-24.35
-28.26
-30.01
-29.65
-27.58
-24.27
-19.99
-14.80
-8.77
-2.16
4.50
10.61
15.78
20.10
24.06
28.25
32.95
37.77
41.75
43.74
42.91
39.13
32.96
25.27
16.82
7.92
-1.46
-11.25
-20.83
-28.91
-33.88
-34.59
-31.08
-24.85
-18.39
-14.13
-13.38
-15.82
-19.72
-22.88
-23.71
-21.82
-17.88
-12.99
-7.95
-2.94
2.16
7.19
11.26
12.83
10.31
2.94
-8.76
-22.88
-36.78
-47.82
-54.08
-54.86
-50.70
-43.15
-34.32
-26.27
-20.50
-17.52
-16.81
-17.17
-17.27
-16.22
-13.89
-10.79
-7.65
-4.97
-2.79
-0.77
1.46
3.94
6.37
8.20
9.12
9.23
9.08
9.35
10.36
11.92
13.36
13.96
13.36
11.80
9.98
8.68
8.40
9.15
10.55
12.06
13.29
14.11
14.65
15.12
15.59
15.89
15.58
14.05
10.87
5.96
-0.15
-6.34
-11.19
-13.36
-12.01
-7.14
0.48
9.55
18.65
26.63
32.80
36.89
38.95
39.13
37.57
34.39
29.72
23.76
16.92
9.74
2.90
-2.86
-6.87
-8.67
-8.17
-5.71
-2.11
1.59
4.43
5.82
5.83
5.07
4.46
4.84
6.68
9.93
14.16
18.77
23.04
26.22
27.48
26.01
21.23
13.05
2.09
-10.31
-22.35
-32.11
-38.01
-39.20
-35.81
-28.96
-20.54
-12.74
-7.40
-5.39
-6.31
-8.70
-10.60
-10.33
-7.01
-0.70
7.95
18.11
29.11
40.28
50.69
58.94
63.24
62.00
54.49
41.29
24.37
6.49
-9.39
-20.90
-26.72
-26.69
-21.77
-13.82
-5.10
2.24
6.74
8.07
6.96
4.92
3.53
3.89
6.40
10.78
16.34
22.18
27.33
30.70
31.13
27.49
19.08
5.99
-10.61
-28.47
-44.72
-56.56
-62.24
-61.66
-56.55
-49.90
-44.88
-43.65
-46.53
-52.07
-57.77
-61.12
-60.58
-55.84
-47.64
-37.18
-25.70
-14.30
-4.05
3.89
8.39
8.66
4.61
-2.83
-11.86
-20.13
-25.47
-26.50
-23.11
-16.42
-8.37
-1.04
4.21
7.06
8.19
8.78
9.80
11.61
13.89
16.07
17.84
19.39
21.24
23.82
26.94
29.64
30.45
28.02
21.72
11.97
0.11
-12.06
-22.86
-31.09
-36.17
-37.99
-36.73
-32.82
-26.92
-20.10
-13.71
-9.10
-7.17
-7.96
-10.54
-13.34
-14.63
-13.22
-8.69
-1.51
7.38
16.86
25.91
33.66
39.37
42.48
42.66
40.06
35.34
29.60
24.00
19.37
16.06
13.89
12.42
11.20
10.03
8.93
8.15
7.98
8.62
10.09
12.16
14.40
16.22
17.12
16.78
15.17
12.51
9.17
5.50
1.73
-2.02
-5.66
-9.14
-12.37
-15.30
-17.90
-20.21
-22.25
-24.08
-25.71
-27.19
-28.59
-30.01
-31.51
-33.06
-34.49
-35.46
-35.51
-34.22
-31.37
-26.96
-21.36
-15.14
-8.94
-3.27
1.56
5.47
8.54
10.81
12.31
12.98
12.82
11.88
10.34
8.44
6.45
4.64
3.21
2.37
2.27
2.94
4.35
6.37
8.85
11.66
14.74
17.94
21.06
23.75
25.61
26.35
25.88
24.38
22.22
19.76
17.25
14.80
12.37
9.90
7.43
5.04
2.90
1.12
-0.31
-1.55
-2.86
-4.52
-6.70
-9.38
-12.37
-15.33
-17.82
-19.41
-19.69
-18.36
-15.30
-10.67
-4.88
1.43
7.60
13.07
17.58
21.08
23.69
25.51
26.57
26.86
26.40
25.35
23.97
22.54
21.28
20.24
19.40
18.65
17.95
17.29
16.73
16.34
16.11
15.94
15.61
14.87
13.48
11.35
8.55
5.31
1.95
-1.22
-4.10
-6.78
-9.48
-12.37
-15.48
-18.59
-21.33
-23.38
-24.64
-25.34
-25.91
-26.81
-28.28
-30.30
-32.54
-34.61
-36.15
-36.89
-36.65
-35.19
-32.30
-27.81
-21.76
-14.46
-6.47
1.52
8.88
15.15
20.11
23.72
26.08
27.45
28.24
29.04
30.45
32.80
35.90
38.98
40.89
40.53
37.36
31.63
24.22
16.29
8.79
2.25
-3.27
-7.89
-11.75
-14.94
-17.56
-19.82
-22.00
-24.34
-26.88
-29.38
-31.46
-32.81
-33.29
-33.02
-32.25
-31.17
-29.89
-28.40
-26.68
-24.84
-23.13
-21.87
-21.35
-21.69
-22.77
-24.24
-25.61
-26.40
-26.21
-24.82
-22.16
-18.31
-13.46
-7.94
-2.12
3.57
8.71
12.95
16.10
18.09
19.02
19.07
18.46
17.42
16.13
14.72
13.26
11.80
10.38
9.04
7.84
6.79
5.92
5.22
4.68
4.35
4.27
4.47
4.85
5.24
5.44
5.33
4.99
4.63
4.48
4.60
4.84
4.89
4.49
3.57
2.32
1.06
0.05
-0.64
-1.18
-1.87
-3.05
-4.90
-7.46
-10.60
-14.02
-17.26
-19.81
-21.17
-20.96
-19.07
-15.62
-10.97
-5.54
0.17
5.75
10.83
15.16
18.63
21.22
23.01
24.12
24.68
24.76
24.45
23.85
23.08
22.29
21.62
21.15
20.84
20.58
20.17
19.38
18.05
16.11
13.67
10.94
8.19
5.67
3.53
1.81
0.41
-0.78
-1.89
-2.98
-4.06
-5.12
-6.15
-7.15
-8.13
-9.12
-10.17
-11.36
-12.82
-14.71
-17.11
-19.94
-22.84
-25.22
-26.38
-25.77
-23.18
-18.83
-13.23
-7.00
-0.69
5.36
10.97
16.08
20.59
24.34
27.12
28.76
29.18
28.45
26.84
24.69
22.37
20.08
17.87
15.64
13.34
11.02
8.92
7.39
6.61
6.55
6.83
6.91
6.31
4.80
2.49
-0.26
-2.96
-5.27
-7.05
-8.40
-9.53
-10.62
-11.73
-12.83
-13.82
-14.66
-15.38
-16.13
-17.05
-18.27
-19.84
-21.76
-24.01
-26.52
-29.07
-31.32
-32.73
-32.77
-31.05
-27.48
-22.37
-16.33
-10.11
-4.36
0.52
4.46
7.64
10.39
12.97
15.43
17.59
19.16
19.79
19.33
17.81
15.44
12.54
9.42
6.34
3.56
1.29
-0.28
-1.02
-0.94
-0.18
0.95
2.05
2.70
2.56
1.47
-0.54
-3.22
-6.21
-9.08
-11.41
-12.95
-13.58
-13.39
-12.59
-11.47
-10.34
-9.48
-9.08
-9.25
-10.02
-11.30
-12.96
-14.82
-16.66
-18.28
-19.53
-20.22
-20.20
-19.29
-17.35
-14.35
-10.41
-5.78
-0.76
4.39
9.49
14.42
19.10
23.40
27.19
30.28
32.50
33.74
33.95
33.13
31.31
28.66
25.43
22.00
18.78
16.12
14.20
13.01
12.40
12.18
12.16
12.13
11.87
11.17
9.86
7.95
5.63
3.28
1.24
-0.26
-1.31
-2.19
-3.23
-4.59
-6.18
-7.70
-8.80
-9.32
-9.35
-9.26
-9.47
-10.37
-12.12
-14.63
-17.60
-20.58
-23.02
-24.41
-24.32
-22.48
-18.84
-13.65
-7.38
-0.62
6.02
12.02
17.04
20.90
23.57
25.11
25.60
25.18
23.98
22.20
20.07
17.84
15.67
13.68
11.85
10.16
8.60
7.26
6.28
5.77
5.68
5.81
5.82
5.43
4.49
3.10
1.47
-0.08
-1.34
-2.23
-2.83
-3.34
-3.98
-4.94
-6.27
-7.90
-9.58
-11.07
-12.13
-12.73
-12.99
-13.20
-13.72
-14.86
-16.74
-19.30
-22.24
-25.13
-27.44
-28.67
-28.41
-26.44
-22.77
-17.66
-11.60
-5.18
1.04
6.61
11.31
15.08
17.98
20.07
21.40
21.97
21.78
20.88
19.39
17.50
15.46
13.52
11.87
10.59
9.61
8.81
8.07
7.33
6.62
6.05
5.66
5.41
5.12
4.54
3.51
2.00
0.17
-1.72
-3.44
-4.85
-5.97
-6.91
-7.85
-8.91
-10.18
-11.65
-13.20
-14.68
-15.93
-16.89
-17.62
-18.37
-19.46
-21.17
-23.57
-26.49
-29.55
-32.28
-34.20
-34.92
-34.16
-31.80
-27.91
-22.75
-16.74
-10.42
-4.30
1.22
5.95
9.84
12.96
15.41
17.24
18.46
19.02
18.93
18.28
17.26
16.12
15.11
14.35
13.83
13.44
13.14
12.92
12.85
12.99
13.29
13.58
13.60
13.15
12.18
10.83
9.34
7.98
6.89
6.07
5.40
4.68
3.72
2.42
0.82
-0.92
-2.60
-4.00
-5.03
-5.77
-6.45
-7.37
-8.78
-10.74
-13.16
-15.72
-18.01
-19.58
-20.04
-19.12
-16.71
-12.93
-8.05
-2.49
3.30
8.91
13.99
18.29
21.62
23.90
25.07
25.19
24.40
22.89
20.90
18.71
16.57
14.65
13.09
11.91
11.07
10.47
10.00
9.61
9.26
8.96
8.70
8.40
7.97
7.29
6.27
4.92
3.34
1.71
0.19
-1.18
-2.48
-3.91
-5.63
-7.66
-9.79
-11.71
-13.15
-14.03
-14.54
-15.09
-16.06
-17.72
-20.08
-22.91
-25.82
-28.34
-29.98
-30.35
-29.19
-26.45
-22.31
-17.16
-11.46
-5.70
-0.27
4.54
8.59
11.81
14.23
15.90
16.92
17.35
17.20
16.49
15.28
13.71
12.03
10.48
9.26
8.46
8.06
7.98
8.12
8.32
8.42
8.26
7.71
6.73
5.39
3.79
2.05
0.23
-1.65
-3.58
-5.55
-7.56
-9.64
-11.85
-14.19
-16.59
-18.83
-20.70
-22.04
-22.89
-23.49
-24.18
-25.27
-26.92
-29.05
-31.39
-33.51
-34.87
-34.98
-33.45
-30.17
-25.35
-19.43
-12.98
-6.50
-0.31
5.42
10.57
15.05
18.72
21.49
23.36
24.41
24.77
24.56
23.85
22.68
21.16
19.45
17.81
16.45
15.49
14.94
14.67
14.51
14.32
14.00
13.47
12.71
11.68
10.36
8.83
7.22
5.71
4.45
3.50
2.77
2.08
1.26
0.21
-1.02
-2.24
-3.28
-4.04
-4.61
-5.20
-6.12
-7.56
-9.52
-11.83
-14.10
-15.91
-16.89
-16.78
-15.50
-13.10
-9.70
-5.49
-0.69
4.46
9.67
14.61
18.95
22.39
24.70
25.76
25.59
24.36
22.33
19.86
17.33
15.04
13.17
11.78
10.78
10.07
9.60
9.35
9.31
9.41
9.50
9.38
8.87
7.95
6.73
5.41
4.14
2.98
1.84
0.60
-0.85
-2.53
-4.35
-6.19
-7.93
-9.49
-10.85
-12.03
-13.07
-14.09
-15.26
-16.81
-18.90
-21.55
-24.49
-27.18
-28.95
-29.17
-27.50
-23.96
-19.00
-13.25
-7.36
-1.82
3.14
7.45
11.13
14.19
16.53
18.02
18.59
18.26
17.23
15.77
14.16
12.62
11.28
10.13
9.15
8.34
7.72
7.38
7.32
7.49
7.71
7.73
7.34
6.40
4.95
3.16
1.28
-0.48
-2.00
-3.29
-4.50
-5.77
-7.18
-8.69
-10.19
-11.54
-12.69
-13.70
-14.69
-15.81
-17.10
-18.61
-20.30
-22.16
-24.10
-25.89
-27.08
-27.06
-25.28
-21.51
-16.03
-9.53
-2.87
3.22
8.38
12.62
16.13
19.05
21.34
22.79
23.20
22.52
20.94
18.83
16.59
14.49
12.60
10.89
9.26
7.69
6.27
5.07
4.15
3.48
2.91
2.25
1.35
0.11
-1.43
-3.18
-4.95
-6.56
-7.84
-8.78
-9.46
-10.09
-10.84
-11.80
-12.90
-13.92
-14.63
-14.89
-14.68
-14.19
-13.63
-13.25
-13.25
-13.73
-14.76
-16.29
-18.15
-19.98
-21.26
-21.41
-19.97
-16.77
-12.03
-6.23
0.03
6.20
11.89
16.89
21.07
24.37
26.74
28.14
28.63
28.29
27.25
25.67
23.75
21.70
19.73
17.98
16.53
15.40
14.59
14.10
13.95
14.07
14.31
14.45
14.29
13.74
12.88
11.91
11.05
10.38
9.84
9.18
8.14
6.50
4.26
1.59
-1.17
-3.64
-5.56
-6.90
-7.86
-8.84
-10.30
-12.51
-15.47
-18.87
-22.19
-24.87
-26.42
-26.58
-25.25
-22.55
-18.71
-14.03
-8.90
-3.70
1.22
5.56
9.13
11.83
13.63
14.57
14.68
14.10
13.00
11.61
10.15
8.73
7.40
6.06
4.67
3.20
1.72
0.30
-1.00
-2.29
-3.74
-5.55
-7.86
-10.62
-13.67
-16.71
-19.46
-21.81
-23.76
-25.50
-27.26
-29.27
-31.61
-34.18
-36.71
-38.89
-40.46
-41.38
-41.79
-41.98
-42.24
-42.70
-43.24
-43.47
-42.77
-40.43
-35.79
-28.41
-18.33
-6.19
6.93
19.94
32.42
45.12
59.90
78.99
103.83
134.06
167.30
199.82
227.89
249.07
262.86
270.41
273.64
274.24
273.20
270.80
267.05
262.04
256.05
249.28
241.64
232.69
221.86
208.77
193.58
176.96
159.79
142.81
126.30
110.13
94.01
77.76
61.56
45.89
31.25
17.92
5.98
-4.61
-13.69
-20.73
-24.97
-25.75
-22.99
-17.43
-10.58
-4.37
-0.70
-1.07
-6.43
-17.11
-32.79
-52.31
-73.77
-94.66
-112.44
-125.21
-132.21
-133.97
-132.04
-128.40
-124.81
-122.33
-121.17
-120.87
-120.60
-119.53
-117.08
-113.12
-107.95
-102.16
-96.54
-91.85
-88.54
-86.61
-85.46
-84.04
-81.14
-75.86
-68.09
-58.55
-48.62
-39.81
-33.21
-29.13
-27.15
-26.49
-26.44
-26.65
-27.28
-28.68
-31.09
-34.28
-37.55
-40.01
-41.18
-41.44
-42.13
-45.03
-51.55
-61.88
-74.70
-87.45
-97.09
-101.05
-97.95
-87.88
-72.36
-53.92
-35.68
-20.67
-11.08
-7.61
-9.16
-13.18
-16.63
-17.19
-14.08
-8.26
-1.80
3.21
5.51
5.08
2.74
-0.42
-3.73
-7.04
-10.46
-13.90
-16.82
-18.39
-18.14
-16.50
-14.98
-15.66
-20.15
-28.66
-39.72
-50.85
-59.69
-65.15
-67.82
-69.34
-71.40
-74.78
-79.09
-83.20
-85.94
-86.71
-85.53
-82.86
-79.33
-75.60
-72.40
-70.55
-70.67
-72.89
-76.42
-79.66
-80.54
-77.28
-69.03
-56.15
-40.13
-23.07
-7.15
5.89
15.14
20.73
23.70
25.66
28.26
32.48
38.25
44.38
49.08
50.69
48.34
42.21
33.28
22.72
11.34
-0.64
-13.47
-27.41
-42.46
-58.25
-74.19
-89.77
-104.60
-118.40
-130.69
-140.77
-147.80
-151.21
-151.17
-148.64
-145.08
-141.77
-139.23
-137.01
-134.04
-129.24
-122.01
-112.49
-101.27
-88.98
-75.97
-62.22
-47.49
-31.62
-14.65
3.07
20.87
37.89
53.18
65.93
75.63
82.31
86.48
89.07
91.12
93.58
97.01
101.49
106.58
111.50
115.30
117.18
116.75
114.09
109.66
104.04
97.63
90.50
82.39
72.89
61.71
48.79
34.29
18.53
1.81
-15.53
-33.19
-50.72
-67.50
-82.79
-95.82
-105.87
-112.40
-115.15
-114.14
-109.75
-102.78
-94.29
-85.43
-77.23
-70.32
-64.84
-60.48
-56.60
-52.45
-47.34
-40.67
-31.98
-21.00
-7.72
7.49
23.74
39.75
54.03
65.47
73.63
79.01
82.71
85.88
89.15
92.33
94.62
95.22
93.82
90.91
87.43
84.29
81.74
79.34
76.18
71.43
64.79
56.57
47.52
38.45
29.97
22.34
15.48
9.04
2.55
-4.38
-11.85
-19.53
-26.64
-32.19
-35.35
-35.65
-33.11
-28.11
-21.24
-13.15
-4.54
3.86
11.33
17.35
21.71
24.63
26.79
29.19
33.01
39.46
49.55
63.78
81.96
103.15
125.92
148.81
170.85
191.76
211.88
231.85
252.25
273.43
295.41
317.68
339.02
357.20
369.15
371.49
361.59
338.43
303.21
258.86
209.12
157.33
105.64
54.84
4.65
-45.63
-96.54
-147.84
-198.40
-246.13
-288.19
-321.58
-343.60
-352.49
-347.74
-330.32
-302.62
-268.33
-231.97
-198.33
-171.74
-155.38
-150.61
-156.60
-170.41
-187.49
-202.82
-212.14
-213.15
-206.09
-193.20
-177.43
-160.93
-144.12
-125.88
-104.67
-79.75
-51.92
-23.24
4.01
28.10
48.32
64.58
76.88
84.92
88.24
86.62
80.41
70.65
58.81
46.49
35.20
26.24
20.62
19.04
21.70
28.30
38.16
50.49
64.50
79.40
94.03
106.60
114.87
116.74
111.20
98.82
81.71
62.69
44.13
27.19
11.67
-3.36
-18.57
-33.66
-47.26
-57.56
-63.16
-63.82
-60.53
-55.07
-49.10
-43.45
-37.81
-31.01
-21.68
-8.97
7.02
25.35
44.77
64.22
83.10
101.27
118.97
136.63
154.79
173.87
193.66
212.82
228.64
237.50
235.98
222.24
196.87
162.91
124.77
86.82
52.17
22.22
-2.99
-24.04
-41.49
-55.48
-65.85
-72.23
-74.28
-71.90
-65.38
-55.59
-44.04
-32.95
-24.91
-22.11
-25.42
-33.46
-42.65
-48.31
-46.65
-36.68
-21.07
-5.20
5.14
6.20
-2.32
-17.62
-35.50
-52.37
-66.27
-76.73
-83.81
-87.26
-86.42
-80.86
-71.11
-58.89
-46.73
-36.93
-30.73
-27.84
-26.82
-25.80
-23.40
-19.13
-13.51
-7.57
-2.29
1.88
5.17
8.25
11.85
16.48
22.18
28.59
34.99
40.38
43.56
43.38
38.98
30.12
17.31
1.79
-14.79
-30.66
-44.21
-54.13
-59.40
-59.47
-54.32
-44.74
-32.20
-18.72
-6.27
3.65
10.27
13.54
13.84
11.64
7.32
1.28
-5.98
-13.67
-20.79
-26.37
-29.77
-30.90
-30.19
-28.36
-26.06
-23.66
-21.16
-18.39
-15.27
-11.95
-8.81
-6.28
-4.56
-3.59
-3.05
-2.53
-1.75
-0.63
0.72
2.08
3.26
4.16
4.71
4.93
4.83
4.44
3.81
2.99
2.03
0.96
-0.24
-1.61
-3.14
-4.80
-6.56
-8.40
-10.36
-12.54
-15.04
-17.99
-21.53
-25.77
-30.82
-36.67
-43.17
-50.00
-56.74
-63.03
-68.66
-73.66
-78.22
-82.65
-87.29
-92.42
-98.17
-104.35
-110.33
-115.15
-117.65
-116.74
-111.64
-101.98
-87.83
-69.65
-48.29
-24.92
-0.94
22.15
43.00
60.57
74.22
83.75
89.24
91.10
90.03
86.98
83.02
79.09
75.74
73.03
70.61
67.95
64.55
60.23
55.12
49.64
44.26
39.41
35.25
31.69
28.49
25.38
22.24
19.13
16.20
13.62
11.47
9.65
7.97
6.17
4.06
1.62
-1.07
-3.86
-6.55
-8.99
-11.03
-12.52
-13.23
-12.91
-11.41
-8.71
-5.11
-1.10
2.71
5.85
8.06
9.30
9.76
9.58
8.85
7.64
6.02
4.11
2.13
0.25
-1.43
-2.89
-4.18
-5.25
-6.01
-6.30
-6.05
-5.43
-4.76
-4.45
-4.75
-5.66
-6.88
-8.06
-8.90
-9.35
-9.56
-9.76
-10.10
-10.57
-11.08
-11.50
-11.82
-12.14
-12.58
-13.26
-14.17
-15.30
-16.60
-18.05
-19.50
-20.74
-21.37
-20.92
-19.01
-15.49
-10.54
-4.69
1.34
6.86
11.30
14.44
16.32
17.19
17.35
17.03
16.36
15.36
14.05
12.47
10.76
9.11
7.65
6.53
5.80
5.48
5.52
5.78
6.08
6.21
6.04
5.58
4.94
4.29
3.70
3.13
2.40
1.30
-0.29
-2.32
-4.60
-6.84
-8.85
-10.61
-12.24
-14.05
-16.34
-19.35
-23.10
-27.39
-31.74
-35.52
-38.02
-38.73
-37.36
-34.07
-29.29
-23.69
-17.87
-12.23
-6.94
-1.96
2.79
7.30
11.44
15.04
17.86
19.79
20.84
21.17
21.00
20.57
20.05
19.52
19.02
18.56
18.19
17.91
17.71
17.53
17.26
16.78
16.04
15.03
13.82
12.43
10.86
9.04
6.95
4.61
2.19
-0.10
-2.07
-3.61
-4.77
-5.72
-6.69
-7.96
-9.75
-12.25
-15.53
-19.47
-23.69
-27.53
-30.13
-30.65
-28.49
-23.54
-16.27
-7.59
1.38
9.69
16.73
22.28
26.36
29.06
30.34
30.15
28.54
25.79
22.50
19.36
16.93
15.51
15.02
15.24
15.97
17.14
18.85
21.11
23.69
26.03
27.35
26.93
24.37
19.80
13.77
7.05
0.30
-6.01
-11.75
-16.89
-21.42
-25.21
-28.10
-29.99
-30.98
-31.39
-31.66
-32.28
-33.61
-35.88
-39.11
-43.04
-47.19
-50.81
-53.14
-53.50
-51.56
-47.36
-41.28
-33.84
-25.60
-17.01
-8.41
-0.12
7.60
14.48
20.34
25.04
28.55
30.91
32.21
32.52
32.01
30.85
29.24
27.42
25.63
24.05
22.80
21.87
21.18
20.60
19.96
19.16
18.10
16.77
15.13
13.19
10.97
8.48
5.82
3.09
0.41
-2.12
-4.47
-6.65
-8.68
-10.61
-12.50
-14.46
-16.65
-19.26
-22.40
-26.06
-30.03
-33.92
-37.20
-39.32
-39.81
-38.34
-34.83
-29.39
-22.41
-14.46
-6.24
1.58
8.44
13.97
18.03
20.60
21.90
22.31
22.38
22.71
23.70
25.42
27.53
29.46
30.65
30.91
30.40
29.55
28.78
28.27
27.91
27.40
26.49
25.09
23.30
21.30
19.30
17.31
15.28
13.04
10.41
7.31
3.78
-0.00
-3.82
-7.46
-10.86
-14.12
-17.51
-21.31
-25.65
-30.36
-34.91
-38.50
-40.32
-39.81
-36.82
-31.65
-24.91
-17.23
-9.16
-1.04
6.89
14.42
21.33
27.33
32.15
35.63
37.77
38.70
38.68
38.01
37.01
35.96
35.04
34.38
33.99
33.78
33.61
33.32
32.81
32.02
30.94
29.59
27.97
26.08
23.90
21.38
18.53
15.43
12.19
8.95
5.80
2.71
-0.44
-3.78
-7.39
-11.19
-15.02
-18.77
-22.49
-26.42
-30.82
-35.71
-40.79
-45.36
-48.71
-50.26
-49.81
-47.42
-43.23
-37.36
-29.86
-20.89
-10.88
-0.52
9.34
17.98
24.99
30.34
34.23
36.98
38.83
39.97
40.53
40.66
40.50
40.17
39.72
39.22
38.70
38.21
37.80
37.50
37.27
36.97
36.42
35.46
34.03
32.20
30.14
28.06
26.09
24.17
22.11
19.67
16.67
13.11
9.10
4.90
0.72
-3.30
-7.14
-10.89
-14.72
-18.78
-23.15
-27.82
-32.52
-36.78
-39.98
-41.47
-40.84
-37.98
-33.18
-26.96
-19.93
-12.54
-5.10
2.27
9.52
16.48
22.91
28.42
32.69
35.50
36.91
37.15
36.61
35.65
34.54
33.38
32.13
30.73
29.16
27.48
25.79
24.14
22.48
20.70
18.73
16.56
14.30
12.07
9.93
7.85
5.74
3.51
1.15
-1.32
-3.85
-6.41
-8.99
-11.54
-13.96
-16.13
-18.01
-19.68
-21.35
-23.30
-25.72
-28.66
-32.05
-35.68
-39.29
-42.51
-44.86
-45.83
-45.02
-42.20
-37.52
-31.39
-24.41
-17.17
-10.08
-3.33
3.11
9.38
15.58
21.66
27.42
32.50
36.60
39.56
41.49
42.69
43.54
44.30
45.04
45.62
45.83
45.52
44.66
43.35
41.71
39.78
37.55
34.91
31.80
28.20
24.24
20.09
15.91
11.80
7.77
3.81
-0.08
-3.84
-7.37
-10.58
-13.46
-16.10
-18.64
-21.30
-24.23
-27.54
-31.25
-35.30
-39.54
-43.67
-47.24
-49.64
-50.26
-48.62
-44.59
-38.40
-30.64
-22.03
-13.22
-4.71
3.20
10.31
16.45
21.47
25.27
27.85
29.32
29.90
29.84
29.38
28.68
27.88
27.09
26.34
25.65
24.92
24.07
23.03
21.81
20.45
19.02
17.54
16.01
14.41
12.72
11.01
9.37
7.83
6.30
4.60
2.48
-0.17
-3.30
-6.68
-10.00
-13.01
-15.62
-17.93
-20.15
-22.55
-25.27
-28.32
-31.61
-34.86
-37.78
-40.07
-41.48
-41.78
-40.79
-38.26
-34.00
-27.90
-20.09
-11.02
-1.33
8.25
17.10
24.81
31.15
35.98
39.22
40.86
41.02
40.00
38.24
36.18
34.11
32.17
30.31
28.46
26.64
24.93
23.46
22.28
21.36
20.55
19.65
18.54
17.15
15.55
13.83
12.07
10.30
8.48
6.61
4.68
2.78
0.96
-0.77
-2.45
-4.22
-6.14
-8.22
-10.38
-12.50
-14.52
-16.47
-18.42
-20.50
-22.75
-25.08
-27.28
-29.03
-29.90
-29.53
-27.58
-23.92
-18.61
-11.98
-4.57
3.02
10.25
16.74
22.26
26.73
30.11
32.36
33.50
33.61
32.91
31.68
30.17
28.53
26.75
24.73
22.44
19.94
17.40
14.99
12.81
10.82
8.90
6.91
4.77
2.41
-0.14
-2.83
-5.54
-8.17
-10.62
-12.87
-14.93
-16.89
-18.80
-20.64
-22.37
-23.92
-25.28
-26.50
-27.66
-28.85
-30.11
-31.46
-32.96
-34.73
-36.85
-39.34
-42.02
-44.57
-46.56
-47.59
-47.43
-46.00
-43.38
-39.70
-35.08
-29.65
-23.55
-17.05
-10.51
-4.32
1.20
5.90
9.80
13.03
15.74
18.04
19.99
21.65
23.02
24.16
25.08
25.81
26.35
26.70
26.85
26.78
26.47
25.90
25.03
23.85
22.38
20.70
18.89
17.02
15.14
13.28
11.37
9.32
7.03
4.42
1.53
-1.53
-4.54
-7.35
-9.93
-12.40
-15.02
-18.02
-21.52
-25.43
-29.47
-33.13
-35.86
-37.10
-36.44
-33.76
-29.23
-23.34
-16.72
-9.95
-3.44
2.63
8.18
13.12
17.32
20.53
22.66
23.73
23.99
23.75
23.25
22.62
21.84
20.89
19.82
18.78
17.91
17.29
16.84
16.35
15.65
14.63
13.35
11.95
10.54
9.09
7.47
5.48
3.03
0.18
-2.85
-5.84
-8.66
-11.34
-14.04
-16.85
-19.79
-22.73
-25.46
-27.88
-30.00
-32.00
-34.13
-36.65
-39.70
-43.23
-46.95
-50.43
-53.07
-54.34
-53.84
-51.44
-47.26
-41.61
-34.97
-27.82
-20.59
-13.65
-7.27
-1.59
3.33
7.52
10.98
13.69
15.61
16.75
17.21
17.21
17.07
17.05
17.37
18.02
18.88
19.75
20.45
20.87
20.98
20.80
20.35
19.63
18.68
17.55
16.35
15.21
14.23
13.40
12.60
11.62
10.23
8.32
5.95
3.33
0.75
-1.54
-3.44
-5.09
-6.73
-8.59
-10.83
-13.41
-16.20
-19.01
-21.75
-24.29
-26.49
-28.05
-28.60
-27.75
-25.31
-21.38
-16.39
-10.93
-5.56
-0.61
3.82
7.83
11.54
14.98
18.03
20.49
22.19
23.08
23.32
23.14
22.81
22.51
22.25
22.00
21.62
21.05
20.29
19.41
18.46
17.47
16.36
15.01
13.39
11.54
9.66
7.95
6.59
5.53
4.59
3.48
1.99
0.08
-2.13
-4.40
-6.52
-8.35
-9.92
-11.33
-12.75
-14.33
-16.16
-18.27
-20.67
-23.31
-26.16
-29.09
-31.87
-34.11
-35.31
-35.00
-32.88
-28.93
-23.50
-17.14
-10.53
-4.24
1.38
6.21
10.35
13.97
17.20
20.01
22.24
23.66
24.11
23.63
22.46
20.97
19.54
18.42
17.67
17.20
16.88
16.60
16.31
16.01
15.69
15.29
14.73
13.90
12.81
11.46
9.95
8.31
6.55
4.65
2.54
0.19
-2.34
-4.94
-7.47
-9.81
-11.90
-13.81
-15.67
-17.62
-19.72
-21.99
-24.40
-26.93
-29.62
-32.49
-35.41
-38.09
-39.97
-40.44
-39.03
-35.62
-30.48
-24.23
-17.58
-11.07
-5.03
0.47
5.50
10.06
14.13
17.59
20.34
22.33
23.62
24.31
24.48
24.17
23.43
22.34
21.06
19.81
18.74
17.92
17.26
16.61
15.79
14.68
13.30
11.67
9.87
7.91
5.83
3.66
1.42
-0.86
-3.17
-5.52
-7.85
-10.11
-12.21
-14.09
-15.79
-17.42
-19.13
-21.01
-23.03
-25.10
-27.11
-29.09
-31.15
-33.47
-36.10
-38.89
-41.43
-43.13
-43.50
-42.23
-39.35
-35.14
-29.93
-24.04
-17.66
-10.93
-4.04
2.76
9.14
14.79
19.47
23.07
25.57
27.02
27.61
27.52
27.05
26.47
25.96
25.58
25.28
25.00
24.70
24.43
24.19
23.96
23.60
22.92
21.78
20.13
18.10
15.91
13.75
11.74
9.86
8.00
6.02
3.86
1.53
-0.86
-3.18
-5.27
-7.09
-8.61
-9.94
-11.25
-12.75
-14.64
-17.03
-19.84
-22.79
-25.48
-27.43
-28.25
-27.69
-25.67
-22.30
-17.82
-12.53
-6.79
-0.95
4.69
9.87
14.42
18.19
21.12
23.18
24.38
24.92
25.03
25.01
25.07
25.26
25.44
25.41
25.03
24.31
23.46
22.72
22.23
21.96
21.67
21.04
19.87
18.14
16.03
13.83
11.78
9.93
8.15
6.16
3.70
0.63
-3.00
-6.90
-10.70
-14.06
-16.73
-18.66
-19.93
-20.78
-21.52
-22.51
-24.07
-26.39
-29.47
-32.98
-36.39
-39.02
-40.25
-39.70
-37.32
-33.33
-28.12
-22.12
-15.67
-9.08
-2.57
3.61
9.22
14.02
17.81
20.48
22.08
22.78
22.82
22.47
21.98
21.47
21.02
20.63
20.27
19.95
19.62
19.19
18.56
17.65
16.36
14.69
12.72
10.58
8.42
6.38
4.54
2.88
1.29
-0.34
-2.10
-3.98
-5.92
-7.82
-9.70
-11.58
-13.49
-15.45
-17.38
-19.22
-20.94
-22.66
-24.61
-26.97
-29.80
-32.90
-35.84
-38.05
-39.02
-38.44
-36.27
-32.72
-28.18
-23.00
-17.49
-11.83
-6.08
-0.29
5.49
11.13
16.47
21.25
25.19
28.04
29.66
30.10
29.64
28.74
27.92
27.56
27.81
28.51
29.36
29.97
30.01
29.25
27.66
25.34
22.51
19.49
16.60
14.04
11.88
10.00
8.18
6.17
3.80
1.05
-1.95
-4.99
-7.88
-10.51
-12.89
-15.14
-17.42
-19.91
-22.77
-26.12
-30.07
-34.60
-39.59
-44.74
-49.55
-53.38
-55.63
-55.85
-53.90
-49.94
-44.46
-38.06
-31.35
-24.80
-18.69
-13.13
-8.14
-3.74
0.02
3.10
5.54
7.46
9.04
10.45
11.71
12.78
13.54
13.99
14.24
14.50
14.93
15.50
15.97
16.01
15.35
13.99
12.16
10.23
8.56
7.30
6.40
5.68
4.94
4.03
2.92
1.65
0.30
-1.08
-2.49
-4.01
-5.78
-7.96
-10.62
-13.66
-16.77
-19.46
-21.13
-21.17
-19.13
-14.77
-8.17
0.23
9.70
19.36
28.35
36.09
42.26
46.86
50.09
52.14
53.11
53.03
51.93
49.91
47.13
43.75
39.78
34.97
28.84
20.72
10.02
-3.62
-20.17
-39.08
-59.22
-78.78
-95.40
-106.52
-110.05
-105.13
-92.69
-75.38
-56.90
-41.06
-30.76
-27.48
-31.33
-41.36
-56.04
-73.59
-92.15
-109.91
-125.32
-137.24
-145.19
-149.23
-149.71
-146.98
-141.07
-131.72
-118.55
-101.41
-80.60
-56.96
-31.75
-6.39
17.76
39.62
58.51
74.22
87.02
97.64
107.01
115.94
124.84
133.60
141.68
148.49
153.62
157.01
158.98
160.11
161.13
162.84
165.90
170.65
176.90
183.91
190.53
195.69
198.84
200.17
200.59
201.33
203.53
207.70
213.44
219.22
222.49
220.21
209.64
189.22
159.15
121.32
78.54
33.48
-12.10
-57.54
-102.66
-146.96
-189.04
-226.78
-258.06
-281.38
-296.00
-301.56
-297.62
-283.72
-260.02
-228.15
-191.48
-154.56
-121.73
-95.84
-77.68
-66.37
-60.35
-58.23
-58.94
-61.64
-65.41
-69.25
-72.41
-74.68
-76.28
-77.40
-77.82
-76.82
-73.53
-67.33
-58.21
-46.68
-33.55
-19.69
-5.96
6.77
17.71
26.22
32.10
35.61
37.29
37.69
37.03
35.18
31.75
26.27
18.40
7.98
-4.93
-20.09
-36.91
-54.42
-71.28
-85.93
-96.84
-102.75
-102.96
-97.55
-87.42
-74.22
-59.99
-46.72
-35.89
-28.14
-23.26
-20.43
-18.55
-16.68
-14.24
-11.12
-7.70
-4.63
-2.67
-2.29
-3.47
-5.51
-7.14
-6.96
-3.98
2.00
10.15
18.95
26.72
32.24
35.16
35.97
35.56
34.75
33.91
32.98
31.74
30.12
28.38
26.92
26.04
25.71
25.57
25.15
24.02
22.04
19.27
15.94
12.33
8.75
5.50
2.91
1.31
0.97
2.06
4.59
8.38
13.15
18.55
24.21
29.85
35.22
40.05
44.07
47.00
48.71
49.33
49.32
49.37
50.23
52.37
55.88
60.36
65.13
69.33
72.14
72.85
71.03
66.55
59.64
50.78
40.61
29.66
18.32
6.77
-4.86
-16.33
-27.20
-36.83
-44.52
-49.79
-52.53
-53.07
-52.06
-50.24
-48.22
-46.30
-44.55
-42.87
-41.06
-38.87
-35.89
-31.59
-25.42
-17.12
-6.92
4.37
15.66
25.94
34.73
42.12
48.58
54.55
60.13
65.04
68.82
71.17
72.21
72.42
72.50
72.94
73.94
75.22
76.31
76.76
76.41
75.52
74.59
74.08
74.21
74.78
75.36
75.52
75.13
74.45
73.92
73.90
74.40
75.02
75.22
74.54
72.84
70.29
66.98
62.65
56.57
47.75
35.42
19.48
0.66
-19.61
-39.73
-58.34
-74.68
-88.44
-99.60
-108.10
-113.81
-116.59
-116.52
-114.00
-109.66
-104.17
-97.98
-91.31
-84.18
-76.61
-68.82
-61.28
-54.55
-49.05
-44.77
-41.19
-37.39
-32.32
-25.19
-15.73
-4.28
8.35
21.15
33.15
43.66
52.26
58.80
63.36
66.23
67.83
68.55
68.66
68.22
67.07
65.13
62.54
59.77
57.49
56.29
56.32
57.25
58.38
59.05
58.96
58.39
58.07
58.96
61.90
67.18
74.39
82.11
88.05
89.27
82.98
67.42
42.74
11.33
-22.59
-54.14
-79.21
-95.74
-104.10
-106.70
-106.77
-107.13
-109.20
-112.86
-116.81
-119.53
-119.98
-118.08
-114.52
-110.29
-106.16
-102.34
-98.61
-94.57
-90.02
-85.04
-79.87
-74.65
-69.26
-63.28
-56.20
-47.69
-37.86
-27.26
-16.80
-7.46
0.08
5.67
9.77
13.18
16.66
20.52
24.47
27.75
29.60
29.66
28.26
26.23
24.60
24.11
24.90
26.58
28.51
30.15
31.32
32.18
33.07
34.26
35.83
37.61
39.31
40.61
41.19
40.83
39.40
36.89
33.48
29.52
25.47
21.80
18.86
16.81
15.67
15.31
15.59
16.42
17.74
19.56
21.87
24.59
27.60
30.76
33.90
36.89
39.54
41.64
42.88
42.98
41.67
38.80
34.34
28.34
20.93
12.26
2.46
-8.37
-20.13
-32.73
-45.92
-59.25
-71.96
-82.94
-91.00
-95.19
-95.12
-91.11
-84.15
-75.45
-66.05
-56.52
-46.97
-37.22
-27.15
-16.89
-6.80
2.70
11.31
18.89
25.40
30.78
34.98
38.02
40.08
41.54
42.80
44.15
45.61
47.01
48.08
48.64
48.61
47.99
46.83
45.21
43.29
41.29
39.46
37.92
36.63
35.37
33.83
31.81
29.23
26.09
22.40
18.11
13.18
7.61
1.53
-4.88
-11.54
-18.49
-25.90
-33.89
-42.36
-50.81
-58.45
-64.37
-67.91
-68.82
-67.33
-63.97
-59.32
-53.79
-47.58
-40.71
-33.20
-25.25
-17.21
-9.54
-2.65
3.22
8.06
12.05
15.46
18.54
21.41
23.99
26.09
27.43
27.86
27.37
26.16
24.52
22.74
21.01
19.37
17.76
16.01
13.98
11.53
8.55
5.02
1.01
-3.30
-7.59
-11.53
-14.85
-17.45
-19.37
-20.87
-22.30
-23.98
-26.13
-28.75
-31.64
-34.41
-36.63
-37.88
-37.89
-36.56
-33.95
-30.25
-25.75
-20.75
-15.55
-10.35
-5.28
-0.40
4.26
8.64
12.67
16.29
19.48
22.23
24.53
26.36
27.66
28.38
28.56
28.32
27.83
27.19
26.40
25.33
23.84
21.83
19.30
16.32
13.07
9.74
6.58
3.84
1.75
0.47
0.01
0.26
1.05
2.31
4.02
6.21
8.80
11.52
13.95
15.65
16.37
16.28
15.97
16.36
18.42
22.83
29.69
38.56
48.64
59.13
69.47
79.43
89.04
98.49
108.02
118.06
129.29
142.58
158.64
177.54
198.41
219.52
238.82
254.53
265.59
271.60
272.55
268.48
259.42
245.61
227.76
207.04
184.79
162.04
139.13
115.69
91.05
64.79
37.19
9.26
-17.49
-41.61
-62.11
-78.80
-92.19
-103.24
-112.96
-122.06
-130.70
-138.69
-145.58
-150.98
-154.70
-156.75
-157.28
-156.42
-154.35
-151.21
-147.30
-143.09
-139.33
-136.80
-136.14
-137.48
-140.27
-143.30
-145.03
-144.06
-139.59
-131.62
-120.97
-108.93
-96.95
-86.20
-77.45
-70.95
-66.56
-63.84
-62.34
-61.66
-61.57
-61.94
-62.64
-63.41
-63.83
-63.44
-61.92
-59.25
-55.80
-52.13
-48.82
-46.20
-44.34
-43.13
-42.47
-42.42
-43.26
-45.38
-49.05
-54.21
-60.40
-66.74
-72.10
-75.26
-75.18
-71.27
-63.61
-53.04
-41.03
-29.25
-19.17
-11.70
-7.02
-4.64
-3.78
-3.75
-4.25
-5.47
-7.86
-11.76
-17.06
-23.01
-28.49
-32.40
-34.17
-33.95
-32.52
-30.88
-29.72
-29.12
-28.67
-27.69
-25.76
-22.96
-19.91
-17.55
-16.72
-17.82
-20.59
-24.25
-27.75
-30.20
-31.16
-30.76
-29.51
-28.01
-26.66
-25.40
-23.71
-20.69
-15.43
-7.37
3.13
14.54
24.24
29.07
26.27
14.51
-5.59
-31.45
-59.27
-85.04
-105.42
-118.35
-123.24
-120.71
-112.30
-99.93
-85.46
-70.26
-55.15
-40.37
-26.01
-12.21
0.59
11.78
20.91
27.88
32.96
36.65
39.34
41.10
41.73
40.98
38.74
35.27
31.11
26.90
23.10
19.81
16.83
13.81
10.54
7.09
3.78
0.99
-1.02
-2.23
-2.84
-3.13
-3.27
-3.32
-3.25
-3.02
-2.71
-2.48
-2.60
-3.31
-4.85
-7.26
-10.46
-14.13
-17.79
-20.86
-22.71
-22.84
-20.94
-16.90
-10.86
-3.04
6.48
17.84
31.41
47.54
66.11
86.21
106.06
123.47
136.46
143.99
146.35
144.87
141.38
137.48
134.05
131.25
128.82
126.56
124.45
122.67
121.30
120.14
118.69
116.32
112.63
107.64
101.79
95.74
90.06
85.03
80.52
76.09
71.28
65.76
59.44
52.33
44.30
34.94
23.71
10.33
-4.88
-20.79
-35.75
-48.12
-56.87
-61.78
-63.41
-62.82
-61.26
-60.08
-60.65
-64.07
-70.77
-80.10
-90.16
-98.31
-102.05
-99.94
-92.07
-79.94
-65.75
-51.71
-39.59
-30.50
-25.09
-23.55
-25.57
-30.12
-35.50
-39.61
-40.50
-37.13
-29.86
-20.46
-11.63
-6.02
-5.32
-9.59
-17.40
-26.46
-34.63
-40.74
-44.67
-47.02
-48.34
-48.67
-47.54
-44.51
-39.74
-34.32
-29.90
-28.02
-29.34
-33.38
-38.77
-43.94
-47.74
-49.76
-50.25
-49.68
-48.32
-46.00
-42.16
-36.15
-27.64
-16.88
-4.79
7.18
17.45
24.64
27.98
27.49
24.00
18.85
13.56
9.42
7.18
6.94
8.27
10.48
12.94
15.26
17.30
18.98
20.13
20.41
19.44
16.97
13.09
8.25
3.16
-1.45
-5.09
-7.59
-9.16
-10.18
-11.06
-12.06
-13.29
-14.74
-16.41
-18.39
-20.94
-24.36
-28.89
-34.45
-40.56
-46.35
-50.81
-53.08
-52.76
-50.03
-45.48
-39.85
-33.70
-27.25
-20.42
-13.04
-5.12
2.98
10.54
16.70
20.67
22.01
20.74
17.34
12.54
7.14
1.82
-2.85
-6.37
-8.28
-8.20
-6.03
-2.08
2.94
8.19
12.93
16.81
19.88
22.29
24.10
25.10
24.94
23.30
20.16
15.76
10.56
5.02
-0.45
-5.60
-10.30
-14.51
-18.33
-21.93
-25.46
-28.90
-31.97
-34.10
-34.59
-32.87
-28.72
-22.43
-14.69
-6.38
1.75
9.26
15.99
22.03
27.47
32.27
36.30
39.37
41.34
42.23
42.16
41.35
39.98
38.22
36.22
34.08
31.90
29.74
27.61
25.56
23.68
22.16
21.20
20.92
21.31
22.17
23.24
24.30
25.30
26.38
27.78
29.70
32.18
34.99
37.73
39.94
41.21
41.25
39.88
37.03
32.67
26.86
19.85
12.12
4.31
-2.83
-8.56
-12.18
-13.10
-10.86
-5.34
3.08
13.46
24.31
34.04
41.34
45.65
47.16
46.71
45.46
44.53
44.81
46.65
49.67
52.55
53.27
49.51
39.59
23.19
1.85
-21.28
-42.27
-57.52
-64.79
-63.62
-55.25
-42.05
-26.83
-12.22
-0.29
7.59
10.82
9.43
4.05
-4.27
-14.22
-24.46
-33.93
-42.02
-48.55
-53.62
-57.32
-59.54
-59.88
-57.84
-53.06
-45.56
-35.82
-24.66
-13.02
-1.73
8.68
17.94
26.01
33.00
39.10
44.55
49.56
54.28
58.70
62.66
65.81
67.66
67.64
65.17
59.82
51.43
40.24
26.99
12.79
-1.04
-13.30
-23.14
-30.19
-34.57
-36.67
-36.95
-35.82
-33.56
-30.40
-26.55
-22.27
-17.80
-13.39
-9.22
-5.55
-2.76
-1.38
-2.03
-5.16
-10.75
-18.09
-25.89
-32.55
-36.67
-37.44
-34.90
-29.78
-23.15
-15.96
-8.74
-1.60
5.53
12.62
19.41
25.47
30.44
34.22
36.95
38.88
40.09
40.45
39.71
37.74
34.70
31.03
27.27
23.80
20.66
17.64
14.34
10.41
5.59
-0.14
-6.58
-13.32
-19.86
-25.78
-30.92
-35.43
-39.70
-44.18
-49.16
-54.61
-60.33
-65.98
-71.20
-75.62
-78.79
-80.17
-79.26
-75.75
-69.71
-61.59
-52.07
-41.88
-31.57
-21.48
-11.80
-2.69
5.58
12.61
17.98
21.33
22.59
22.05
20.34
18.32
16.84
16.53
17.73
20.45
24.41
29.16
34.13
38.71
42.31
44.57
45.40
45.06
44.06
42.93
41.97
41.15
40.08
38.24
35.17
30.67
24.82
17.94
10.42
2.66
-5.10
-12.74
-20.29
-27.85
-35.49
-43.17
-50.66
-57.48
-62.99
-66.47
-67.31
-65.07
-59.64
-51.24
-40.37
-27.76
-14.28
-0.77
12.03
23.53
33.34
41.29
47.32
51.56
54.26
55.78
56.53
56.87
56.98
56.92
56.58
55.84
54.68
53.23
51.72
50.39
49.39
48.66
48.08
47.43
46.53
45.31
43.73
41.87
39.80
37.60
35.39
33.25
31.26
29.39
27.56
25.62
23.42
20.88
18.04
15.07
12.26
9.96
8.54
8.33
9.50
12.09
15.98
20.98
26.79
33.13
39.66
46.13
52.29
58.05
63.47
68.68
73.83
78.87
83.52
87.33
89.95
91.24
91.38
90.68
89.33
87.19
83.82
78.68
71.31
61.45
48.91
33.52
15.01
-6.71
-31.39
-58.15
-85.48
-111.52
-134.40
-152.65
-165.43
-172.57
-174.44
-171.76
-165.46
-156.55
-146.09
-134.95
-123.78
-112.75
-101.68
-90.22
-78.27
-66.22
-55.07
-46.08
-40.27
-37.91
-38.40
-40.56
-43.18
-45.61
-47.94
-50.75
-54.47
-58.82
-62.58
-63.97
-61.16
-52.70
-37.76
-16.25
11.02
41.96
73.15
100.35
119.70
129.16
129.43
123.53
115.32
107.64
101.28
95.26
88.19
79.64
70.51
62.35
56.21
52.04
48.94
46.08
43.47
42.06
43.17
47.66
55.49
65.69
76.71
86.77
94.08
97.09
94.79
87.04
74.77
59.78
44.21
29.89
17.89
8.49
1.44
-3.59
-6.83
-8.38
-8.39
-7.13
-5.06
-2.72
-0.52
1.31
2.79
4.14
5.61
7.21
8.58
8.99
7.63
4.04
-1.61
-8.48
-15.30
-20.94
-24.82
-27.09
-28.45
-29.85
-32.00
-35.26
-39.54
-44.54
-49.88
-55.25
-60.38
-64.99
-68.69
-70.99
-71.42
-69.67
-65.78
-60.10
-53.12
-45.19
-36.46
-26.89
-16.51
-5.65
4.92
14.22
21.33
25.73
27.45
27.00
25.11
22.57
20.01
17.89
16.51
15.99
16.37
17.63
19.73
22.60
26.07
29.76
33.01
34.99
34.83
31.97
26.18
17.75
7.28
-4.37
-16.35
-27.92
-38.54
-47.91
-55.98
-62.94
-69.07
-74.67
-79.85
-84.45
-88.05
-90.01
-89.73
-86.74
-80.95
-72.67
-62.58
-51.54
-40.44
-29.97
-20.57
-12.43
-5.59
-0.02
4.31
7.41
9.34
10.25
10.36
9.97
9.34
8.65
7.96
7.23
6.34
5.21
3.83
2.28
0.78
-0.37
-0.95
-0.88
-0.31
0.36
0.68
0.33
-0.78
-2.50
-4.60
-6.99
-9.80
-13.33
-17.85
-23.38
-29.58
-35.83
-41.36
-45.47
-47.68
-47.73
-45.56
-41.32
-35.31
-27.96
-19.81
-11.41
-3.24
4.36
11.25
17.32
22.50
26.61
29.47
30.93
31.04
30.10
28.57
26.96
25.60
24.58
23.77
22.92
21.84
20.49
19.00
17.55
16.29
15.20
14.08
12.60
10.45
7.50
3.80
-0.36
-4.59
-8.57
-12.11
-15.27
-18.29
-21.53
-25.35
-29.96
-35.33
-41.14
-46.77
-51.39
-54.16
-54.43
-51.91
-46.73
-39.38
-30.63
-21.20
-11.72
-2.64
5.80
13.45
20.20
25.90
30.35
33.40
34.94
35.11
34.23
32.75
31.11
29.63
28.43
27.46
26.58
25.70
24.78
23.85
22.97
22.11
21.17
20.01
18.51
16.62
14.44
12.07
9.68
7.34
5.02
2.62
-0.01
-3.01
-6.47
-10.30
-14.32
-18.22
-21.67
-24.49
-26.69
-28.57
-30.60
-33.26
-36.85
-41.41
-46.60
-51.88
-56.47
-59.54
-60.31
-58.18
-52.93
-44.77
-34.42
-22.91
-11.37
-0.69
8.65
16.55
23.21
28.90
33.72
37.62
40.41
41.88
42.01
41.00
39.22
37.19
35.32
33.89
32.96
32.41
31.99
31.51
30.77
29.72
28.36
26.80
25.15
23.48
21.83
20.15
18.39
16.48
14.33
11.96
9.34
6.53
3.57
0.54
-2.47
-5.42
-8.34
-11.27
-14.31
-17.46
-20.65
-23.72
-26.51
-28.95
-31.19
-33.53
-36.32
-39.85
-44.12
-48.73
-52.94
-55.76
-56.32
-54.10
-49.11
-41.85
-33.07
-23.55
-13.90
-4.51
4.31
12.28
19.09
24.50
28.41
30.91
32.27
32.74
32.59
31.99
31.05
29.91
28.71
27.63
26.81
26.31
26.05
25.89
25.66
25.21
24.53
23.63
22.56
21.28
19.68
17.63
15.12
12.30
9.45
6.88
4.72
2.88
1.13
-0.85
-3.24
-6.07
-9.25
-12.62
-15.99
-19.27
-22.39
-25.36
-28.32
-31.52
-35.22
-39.54
-44.25
-48.67
-51.80
-52.58
-50.30
-44.91
-36.96
-27.45
-17.41
-7.60
1.55
9.93
17.46
23.99
29.27
33.06
35.28
36.12
35.91
35.05
33.86
32.52
31.13
29.73
28.44
27.32
26.35
25.40
24.26
22.77
20.92
18.93
17.17
15.94
15.33
15.14
14.96
14.32
12.94
10.80
8.13
5.31
2.69
0.44
-1.52
-3.42
-5.53
-8.02
-10.86
-13.85
-16.68
-19.11
-21.06
-22.68
-24.30
-26.26
-28.86
-32.23
-36.28
-40.72
-45.04
-48.59
-50.61
-50.46
-47.71
-42.37
-34.85
-25.89
-16.38
-7.10
1.41
8.89
15.30
20.65
24.92
28.06
30.05
30.98
31.07
30.63
29.97
29.24
28.53
27.82
27.08
26.30
25.54
24.81
24.10
23.38
22.62
21.81
20.95
19.99
18.79
17.20
15.11
12.56
9.70
6.70
3.73
0.90
-1.76
-4.24
-6.53
-8.68
-10.76
-12.87
-15.12
-17.51
-19.97
-22.35
-24.50
-26.42
-28.25
-30.36
-33.13
-36.87
-41.53
-46.64
-51.30
-54.45
-55.19
-53.08
-48.33
-41.57
-33.62
-25.18
-16.63
-8.19
-0.01
7.64
14.40
19.91
23.98
26.62
28.12
28.77
28.85
28.55
27.94
27.06
26.00
24.89
23.85
23.05
22.55
22.30
22.16
21.92
21.39
20.46
19.15
17.56
15.86
14.17
12.53
10.88
9.08
7.07
4.84
2.48
0.08
-2.30
-4.69
-7.21
-9.91
-12.79
-15.69
-18.43
-20.86
-22.99
-25.00
-27.19
-29.85
-33.20
-37.21
-41.55
-45.67
-48.81
-50.25
-49.47
-46.31
-40.96
-33.86
-25.56
-16.55
-7.24
2.01
10.80
18.72
25.32
30.28
33.52
35.20
35.62
35.17
34.20
32.98
31.71
30.56
29.61
28.89
28.35
27.88
27.35
26.70
25.95
25.19
24.49
23.80
22.94
21.71
19.92
17.53
14.71
11.72
8.84
6.19
3.73
1.28
-1.33
-4.16
-7.11
-9.98
-12.63
-15.06
-17.44
-20.08
-23.26
-27.12
-31.72
-36.90
-42.40
-47.78
-52.55
-56.08
-57.86
-57.45
-54.70
-49.68
-42.71
-34.30
-25.08
-15.74
-6.84
1.19
8.16
14.05
18.92
22.79
25.57
27.20
27.71
27.33
26.46
25.51
24.72
24.09
23.48
22.70
21.69
20.57
19.52
18.72
18.19
17.81
17.36
16.64
15.54
14.11
12.43
10.63
8.76
6.80
4.66
2.23
-0.51
-3.55
-6.79
-10.06
-13.24
-16.22
-19.02
-21.83
-24.89
-28.48
-32.73
-37.44
-42.15
-46.13
-48.67
-49.17
-47.35
-43.21
-36.99
-29.09
-20.03
-10.37
-0.76
8.15
15.86
22.05
26.64
29.81
31.81
32.92
33.34
33.14
32.36
31.04
29.33
27.47
25.80
24.55
23.83
23.50
23.29
22.91
22.19
21.09
19.69
18.09
16.31
14.34
12.11
9.59
6.77
3.69
0.38
-3.11
-6.76
-10.56
-14.44
-18.37
-22.31
-26.21
-30.13
-34.26
-38.90
-44.34
-50.62
-57.31
-63.50
-67.98
-69.67
-67.98
-63.04
-55.52
-46.34
-36.28
-25.77
-15.00
-4.08
6.71
16.85
25.69
32.74
37.80
41.04
42.94
44.02
44.69
45.08
45.08
44.51
43.31
41.63
39.81
38.23
37.20
36.73
36.62
36.42
35.70
34.13
31.62
28.30
24.52
20.57
16.64
12.75
8.75
4.52
0.05
-4.53
-9.06
-13.48
-17.87
-22.39
-27.13
-32.00
-36.84
-41.54
-46.18
-51.04
-56.32
-61.89
-67.09
-70.83
-71.97
-69.72
-63.94
-55.18
-44.37
-32.52
-20.43
-8.57
2.79
13.45
23.12
31.46
38.15
43.02
46.15
47.84
48.50
48.52
48.18
47.64
46.89
45.90
44.68
43.29
41.92
40.77
39.99
39.51
39.08
38.32
36.87
34.59
31.61
28.23
24.74
21.22
17.54
13.52
9.09
4.45
-0.06
-4.11
-7.63
-10.90
-14.36
-18.42
-23.19
-28.54
-34.16
-39.84
-45.60
-51.55
-57.71
-63.73
-68.83
-71.97
-72.21
-69.02
-62.48
-53.22
-42.25
-30.65
-19.29
-8.80
0.50
8.47
15.07
20.25
23.97
26.29
27.46
27.94
28.28
28.96
30.27
32.18
34.54
37.16
40.01
43.18
46.80
50.74
54.65
57.87
59.78
60.06
58.82
56.58
54.00
51.49
49.01
46.08
42.01
36.26
28.74
19.84
10.27
0.73
-8.32
-16.78
-24.82
-32.75
-40.82
-49.14
-57.64
-66.01
-73.77
-80.26
-84.82
-86.77
-85.65
-81.29
-73.86
-63.89
-52.17
-39.63
-27.15
-15.41
-4.82
4.44
12.37
19.03
24.52
28.96
32.61
35.80
38.87
42.11
45.60
49.23
52.72
55.77
58.15
59.78
60.77
61.30
61.62
61.81
61.83
61.48
60.54
58.87
56.40
53.20
49.28
44.60
38.98
32.26
24.37
15.42
5.73
-4.25
-14.10
-23.48
-32.22
-40.41
-48.29
-56.24
-64.60
-73.49
-82.67
-91.45
-98.88
-103.87
-105.52
-103.32
-97.23
-87.67
-75.35
-61.13
-45.82
-30.17
-14.77
-0.09
13.48
25.64
36.16
44.84
51.60
56.47
59.62
61.35
62.06
62.20
62.16
62.23
62.53
63.01
63.51
63.76
63.49
62.47
60.63
58.01
54.70
50.81
46.42
41.57
36.32
30.79
25.15
19.61
14.24
8.99
3.65
-1.98
-7.94
-14.03
-19.88
-25.17
-29.75
-33.80
-37.75
-42.07
-47.13
-52.92
-59.09
-64.98
-69.76
-72.62
-72.94
-70.36
-64.87
-56.73
-46.44
-34.70
-22.33
-10.17
1.02
10.67
18.47
24.40
28.62
31.36
32.78
32.92
31.75
29.30
25.75
21.46
16.93
12.67
9.13
6.53
4.94
4.27
4.44
5.46
7.41
10.36
14.28
18.88
23.61
27.83
30.92
32.53
32.62
31.41
29.23
26.40
23.17
19.75
16.34
13.03
9.76
6.16
1.56
-4.87
-13.74
-25.19
-38.59
-52.66
-65.77
-76.34
-83.25
-86.03
-84.84
-80.30
-73.16
-64.19
-54.01
-43.14
-32.07
-21.33
-11.41
-2.75
4.37
9.92
14.10
17.31
19.97
22.43
24.84
27.16
29.25
30.94
32.26
33.35
34.42
35.60
36.79
37.66
37.83
37.11
35.58
33.62
31.66
29.94
28.39
26.71
24.52
21.59
17.98
13.92
9.72
5.63
1.75
-1.88
-5.36
-8.90
-12.82
-17.55
-23.47
-30.68
-38.90
-47.33
-54.92
-60.61
-63.63
-63.71
-61.01
-55.94
-48.84
-39.79
-28.67
-15.33
0.17
17.26
34.91
52.03
67.88
82.73
97.93
115.70
138.29
167.16
202.20
241.45
281.33
317.24
344.48
359.19
359.04
343.64
314.41
274.04
225.56
171.52
113.57
52.79
-9.51
-71.01
-128.29
-177.56
-215.95
-242.60
-258.82
-267.43
-271.38
-272.64
-271.91
-269.00
-263.73
-256.58
-248.69
-241.36
-235.34
-230.46
-225.67
-219.55
-210.88
-199.01
-184.06
-166.64
-147.53
-127.38
-106.50
-84.97
-62.94
-40.82
-19.43
0.11
16.76
29.87
39.42
45.92
50.20
53.07
55.07
56.38
57.03
57.05
56.62
56.04
55.56
55.26
54.94
54.31
53.13
51.33
49.02
46.28
43.11
39.41
35.06
30.16
25.05
20.18
15.91
12.38
9.40
6.66
3.97
1.29
-1.25
-3.64
-6.17
-9.41
-14.01
-20.36
-28.37
-37.37
-46.31
-54.10
-59.87
-63.08
-63.56
-61.33
-56.50
-49.29
-39.98
-28.91
-16.43
-2.94
11.13
25.11
38.06
48.87
56.46
60.27
60.44
57.90
54.02
50.22
47.55
46.54
47.14
48.96
51.39
53.69
55.16
55.19
53.41
49.82
44.75
38.71
32.20
25.44
18.34
10.61
2.02
-7.35
-17.13
-26.69
-35.46
-43.06
-49.32
-54.16
-57.35
-58.53
-57.46
-54.31
-49.96
-45.98
-44.25
-46.34
-52.86
-63.06
-74.98
-86.03
-93.80
-96.80
-94.86
-88.85
-80.18
-70.06
-59.18
-47.66
-35.40
-22.34
-8.62
5.49
19.64
33.47
46.67
58.97
70.14
80.12
89.08
97.31
104.97
111.96
117.80
121.84
123.57
122.96
120.47
116.99
113.48
110.76
109.18
108.55
108.09
106.79
103.67
98.22
90.65
81.95
73.55
66.79
62.27
59.50
56.98
52.91
46.00
36.12
24.28
12.01
0.43
-10.50
-21.92
-35.31
-51.41
-69.43
-87.24
-102.38
-113.30
-120.16
-124.55
-128.33
-132.37
-135.85
-136.62
-132.43
-122.26
-106.93
-88.70
-70.29
-53.65
-39.46
-27.36
-16.63
-6.89
1.69
8.54
13.20
15.69
16.60
16.84
17.28
18.45
20.43
22.91
25.46
27.74
29.59
31.04
32.18
33.07
33.71
33.96
33.70
32.86
31.44
29.50
27.07
24.18
20.78
16.90
12.61
8.10
3.65
-0.59
-4.67
-8.97
-14.00
-20.21
-27.53
-35.28
-42.16
-46.67
-47.68
-44.73
-38.10
-28.33
-15.77
-0.28
18.38
39.83
62.41
83.25
99.17
107.89
108.86
103.11
92.34
77.80
60.19
40.30
19.99
2.33
-9.53
-14.16
-12.87
-9.34
-7.67
-10.13
-16.03
-22.45
-26.13
-25.43
-20.99
-14.92
-9.34
-5.26
-2.35
0.26
3.04
5.78
7.73
8.16
6.71
3.45
-1.27
-7.00
-13.41
-20.41
-28.11
-36.74
-46.51
-57.27
-68.33
-78.42
-85.90
-89.30
-87.83
-81.65
-71.96
-60.47
-48.87
-38.38
-29.49
-22.19
-16.29
-11.73
-8.67
-7.38
-7.98
-10.19
-13.27
-16.30
-18.49
-19.54
-19.67
-19.40
-19.25
-19.36
-19.54
-19.37
-18.52
-16.90
-14.74
-12.38
-10.15
-8.31
-7.03
-6.44
-6.49
-6.89
-6.95
-5.76
-2.53
2.95
9.96
17.06
22.40
24.46
22.56
17.05
9.15
0.50
-7.26
-12.86
-15.51
-14.95
-11.39
-5.40
2.26
10.75
19.27
27.23
34.27
40.37
45.67
50.34
54.37
57.49
59.19
58.97
56.59
52.26
46.63
40.62
35.16
30.93
28.20
26.88
26.59
26.81
27.04
26.81
25.80
23.88
21.10
17.70
14.03
10.38
6.82
3.19
-0.93
-5.87
-11.72
-18.11
-24.37
-29.83
-34.17
-37.61
-40.81
-44.52
-49.20
-54.76
-60.56
-65.63
-68.91
-69.51
-66.87
-60.78
-51.47
-39.55
-25.94
-11.75
1.94
14.28
24.77
33.27
39.94
45.14
49.24
52.59
55.38
57.68
59.44
60.54
60.83
60.18
58.48
55.71
51.93
47.36
42.32
37.13
32.06
27.23
22.63
18.12
13.59
9.02
4.44
-0.00
-4.19
-8.03
-11.48
-14.51
-17.13
-19.26
-20.85
-21.91
-22.55
-23.14
-24.19
-26.29
-29.83
-34.82
-40.79
-46.90
-52.19
-55.82
-57.29
-56.47
-53.52
-48.75
-42.53
-35.20
-27.10
-18.59
-9.99
-1.62
6.24
13.33
19.42
24.34
28.07
30.77
32.84
34.79
37.07
39.89
43.06
46.04
48.10
48.59
47.28
44.39
40.58
36.56
32.85
29.61
26.64
23.69
20.62
17.55
14.72
12.25
9.96
7.44
4.18
-0.10
-5.27
-10.89
-16.38
-21.30
-25.47
-28.90
-31.64
-33.57
-34.40
-33.71
-31.28
-27.26
-22.12
-16.58
-11.23
-6.39
-2.08
1.86
5.50
8.67
11.04
12.31
12.37
11.47
10.13
8.92
8.36
8.68
9.88
11.78
14.07
16.37
18.38
19.79
20.43
20.21
19.23
17.68
15.89
14.19
12.85
11.97
11.48
11.15
10.72
9.95
8.70
6.97
4.84
2.41
-0.16
-2.78
-5.45
-8.22
-11.22
-14.48
-17.88
-21.07
-23.51
-24.69
-24.25
-22.04
-18.16
-12.84
-6.35
1.01
8.91
16.95
24.70
31.76
37.83
42.77
46.58
49.40
51.41
52.80
53.72
54.22
54.24
53.62
52.13
49.60
45.96
41.39
36.18
30.76
25.51
20.68
16.40
12.67
9.39
6.43
3.61
0.73
-2.39
-5.87
-9.73
-13.91
-18.33
-22.97
-27.96
-33.51
-39.83
-47.02
-54.94
-63.20
-71.29
-78.63
-84.77
-89.36
-92.20
-93.14
-92.03
-88.74
-83.22
-75.55
-66.05
-55.22
-43.65
-31.95
-20.62
-9.97
-0.24
8.45
16.02
22.44
27.71
31.86
34.99
37.21
38.61
39.27
39.21
38.47
37.11
35.31
33.33
31.47
29.92
28.66
27.47
26.01
23.95
21.23
18.07
14.92
12.34
10.68
10.02
10.10
10.49
10.71
10.49
9.85
9.01
8.27
7.78
7.45
6.90
5.63
3.25
-0.32
-4.81
-9.72
-14.47
-18.60
-21.80
-23.89
-24.77
-24.31
-22.44
-19.17
-14.67
-9.22
-3.23
2.90
8.77
14.07
18.50
21.87
24.09
25.23
25.56
25.42
25.17
25.01
24.93
24.79
24.42
23.75
22.85
21.92
21.17
20.69
20.42
20.15
19.63
18.66
17.22
15.42
13.47
11.62
9.99
8.59
7.33
6.04
4.66
3.13
1.47
-0.30
-2.17
-4.12
-6.14
-8.20
-10.30
-12.46
-14.74
-17.09
-19.41
-21.43
-22.82
-23.28
-22.71
-21.22
-19.05
-16.48
-13.60
-10.39
-6.75
-2.68
1.65
5.91
9.71
12.80
15.09
16.72
17.90
18.81
19.50
19.89
19.86
19.37
18.46
17.31
16.12
15.07
14.27
13.67
13.18
12.68
12.08
11.32
10.37
9.27
8.09
6.95
5.97
5.19
4.54
3.85
2.97
1.80
0.44
-0.94
-2.19
-3.23
-4.14
-5.03
-6.02
-7.19
-8.59
-10.25
-12.17
-14.26
-16.28
-17.91
-18.84
-18.89
-18.08
-16.59
-14.51
-11.80
-8.24
-3.53
2.49
9.63
17.34
24.80
31.08
35.43
37.49
37.33
35.42
32.42
28.95
25.42
22.04
18.89
16.06
13.73
12.10
11.20
10.72
10.00
8.20
4.70
-0.60
-7.15
-13.97
-20.06
-24.76
-28.00
-30.17
-31.74
-33.02
-33.93
-34.16
-33.46
-31.84
-29.64
-27.42
-25.67
-24.65
-24.31
-24.42
-24.66
-24.84
-24.90
-24.89
-24.82
-24.65
-24.22
-23.27
-21.58
-19.01
-15.61
-11.55
-7.14
-2.73
1.37
4.89
7.67
9.67
10.94
11.63
11.91
11.90
11.65
11.15
10.40
9.48
8.54
7.77
7.34
7.27
7.47
7.76
7.99
8.09
8.10
8.10
8.18
8.36
8.56
8.63
8.39
7.63
6.18
3.92
0.87
-2.82
-6.81
-10.67
-14.00
-16.59
-18.49
-20.03
-21.70
-23.92
-26.96
-30.81
-35.22
-39.77
-43.90
-47.05
-48.70
-48.50
-46.34
-42.49
-37.41
-31.67
-25.72
-19.74
-13.66
-7.37
-0.85
5.70
11.89
17.37
21.88
25.32
27.75
29.18
29.62
29.08
27.71
25.84
23.95
22.47
21.64
21.40
21.47
21.55
21.47
21.21
20.91
20.66
20.44
20.13
19.60
18.78
17.68
16.34
14.77
12.90
10.69
8.10
5.23
2.26
-0.61
-3.23
-5.55
-7.64
-9.66
-11.81
-14.30
-17.29
-20.77
-24.55
-28.25
-31.38
-33.41
-33.97
-32.88
-30.20
-26.17
-21.16
-15.59
-9.85
-4.31
0.78
5.23
9.00
12.09
14.57
16.47
17.80
18.56
18.76
18.45
17.77
16.88
15.94
15.08
14.34
13.71
13.07
12.33
11.36
10.12
8.66
7.10
5.57
4.16
2.84
1.48
-0.04
-1.74
-3.50
-5.11
-6.30
-6.84
-6.59
-5.53
-3.74
-1.46
0.97
3.08
4.39
4.53
3.38
1.11
-1.83
-4.85
-7.36
-8.91
-9.27
-8.39
-6.40
-3.56
-0.17
3.40
6.77
9.63
11.73
12.99
13.44
13.17
12.27
10.76
8.61
5.80
2.46
-1.10
-4.46
-7.24
-9.24
-10.45
-11.02
-11.18
-11.10
-10.89
-10.69
-10.67
-11.03
-11.86
-13.10
-14.51
-15.70
-16.44
-16.65
-16.54
-16.49
-16.79
-17.55
-18.59
-19.64
-20.39
-20.79
-20.95
-21.19
-21.78
-22.91
-24.53
-26.46
-28.44
-30.25
-31.73
-32.71
-32.92
-32.05
-29.74
-25.73
-19.93
-12.52
-3.89
5.37
14.55
22.83
29.49
34.01
36.23
36.39
35.04
32.85
30.45
28.29
26.59
25.40
24.64
24.14
23.66
22.93
21.79
20.23
18.39
16.51
14.84
13.49
12.47
11.62
10.78
9.79
8.56
7.00
5.08
2.76
0.04
-3.06
-6.43
-9.92
-13.41
-16.76
-19.91
-22.77
-25.27
-27.32
-28.89
-30.07
-31.02
-31.94
-32.91
-33.79
-34.24
-33.82
-32.22
-29.32
-25.26
-20.41
-15.23
-10.16
-5.56
-1.70
1.25
3.19
4.08
4.04
3.28
2.10
0.84
-0.24
-1.04
-1.63
-2.19
-2.90
-3.84
-4.96
-6.13
-7.21
-8.10
-8.77
-9.25
-9.56
-9.73
-9.80
-9.80
-9.80
-9.86
-10.02
-10.23
-10.47
-10.63
-10.66
-10.46
-9.97
-9.11
-7.86
-6.25
-4.42
-2.60
-1.04
0.09
0.67
0.79
0.63
0.47
0.61
1.39
3.11
5.99
10.01
14.95
20.36
25.71
30.59
34.72
38.00
40.40
41.90
42.38
41.66
39.56
35.99
31.03
24.93
18.15
11.29
4.99
-0.16
-3.81
-5.93
-6.81
-6.94
-6.83
-6.89
-7.37
-8.32
-9.69
-11.40
-13.32
-15.28
-17.08
-18.48
-19.27
-19.34
-18.76
-17.76
-16.68
-15.84
-15.42
-15.39
-15.57
-15.73
-15.73
-15.58
-15.43
-15.44
-15.66
-15.95
-15.93
-15.17
-13.34
-10.34
-6.43
-2.08
2.22
6.07
9.43
12.50
15.63
19.11
23.01
27.10
30.94
34.05
36.11
37.04
36.97
36.15
34.85
33.27
31.53
29.67
27.69
25.51
23.03
20.17
16.89
13.26
9.44
5.60
1.86
-1.70
-5.01
-7.96
-10.45
-12.50
-14.25
-16.00
-18.00
-20.35
-22.84
-25.11
-26.76
-27.59
-27.70
-27.47
-27.31
-27.49
-28.04
-28.69
-29.01
-28.59
-27.13
-24.55
-21.04
-16.93
-12.62
-8.47
-4.67
-1.26
1.84
4.72
7.40
9.76
11.54
12.45
12.27
10.99
8.85
6.26
3.73
1.68
0.37
-0.08
0.24
1.18
2.51
3.96
5.27
6.24
6.73
6.70
6.22
5.42
4.50
3.66
2.96
2.37
1.69
0.73
-0.68
-2.51
-4.63
-6.82
-8.93
-10.95
-13.04
-15.41
-18.27
-21.68
-25.52
-29.46
-33.04
-35.70
-36.98
-36.62
-34.64
-31.27
-26.83
-21.57
-15.59
-8.85
-1.42
6.47
14.36
21.67
27.93
32.87
36.50
39.03
40.70
41.73
42.26
42.35
42.09
41.53
40.77
39.84
38.79
37.61
36.29
34.77
33.02
31.01
28.75
26.32
23.87
21.61
19.73
18.33
17.34
16.55
15.62
14.24
12.19
9.40
6.00
2.18
-1.92
-6.20
-10.73
-15.64
-21.13
-27.33
-34.23
-41.61
-49.04
-55.89
-61.48
-65.23
-66.77
-66.00
-63.08
-58.40
-52.40
-45.54
-38.27
-31.00
-24.03
-17.56
-11.61
-6.05
-0.62
4.87
10.49
16.09
21.39
26.13
30.30
34.20
38.36
43.37
49.66
57.32
66.14
75.69
85.53
95.32
104.92
114.46
124.36
135.20
147.43
161.08
175.57
189.62
201.61
209.98
213.75
212.72
207.36
198.41
186.43
171.63
153.91
133.28
110.24
86.07
62.76
42.56
27.56
19.06
17.21
20.78
27.14
32.70
33.63
27.13
12.41
-8.70
-32.18
-53.20
-67.91
-74.78
-74.92
-71.22
-66.82
-63.79
-62.61
-62.40
-61.84
-59.92
-56.38
-51.64
-46.52
-42.00
-39.06
-38.56
-41.07
-46.63
-54.44
-62.92
-70.04
-73.90
-73.46
-68.91
-61.60
-53.58
-46.86
-42.82
-41.85
-43.38
-46.23
-48.97
-50.32
-49.49
-46.35
-41.41
-35.63
-29.94
-24.83
-20.05
-14.55
-6.82
4.66
20.88
41.91
66.75
93.50
119.64
142.57
160.14
171.07
175.23
173.58
167.86
160.01
151.51
142.99
134.09
123.74
110.63
93.82
73.05
48.95
22.92
-3.14
-27.31
-48.07
-64.62
-76.92
-85.50
-91.18
-94.83
-97.41
-99.98
-103.79
-109.98
-119.15
-130.85
-143.51
-155.01
-163.50
-168.32
-170.27
-171.23
-173.30
-177.88
-185.14
-194.14
-203.32
-211.12
-216.55
-219.32
-219.72
-218.14
-214.68
-208.91
-199.88
-186.41
-167.53
-142.94
-113.34
-80.41
-46.51
-14.26
14.00
36.60
52.76
62.56
66.88
67.18
65.23
62.78
61.22
61.51
64.02
68.58
74.46
80.46
85.27
87.74
87.28
83.76
77.49
68.98
58.63
46.47
32.11
14.76
-6.49
-32.38
-63.06
-97.68
-134.10
-168.98
-198.34
-218.60
-227.74
-226.11
-216.31
-201.98
-186.31
-170.91
-155.36
-137.98
-117.05
-91.50
-60.91
-24.89
17.09
65.00
116.93
168.15
211.87
241.42
252.88
246.64
226.39
196.70
160.84
120.43
77.38
36.44
6.24
-2.89
16.39
63.64
128.76
194.33
241.52
256.37
233.69
177.18
96.41
3.08
-91.36
-176.13
-241.07
-277.37
-280.07
-250.91
-199.56
-141.45
-92.41
-62.49
-52.13
-52.99
-52.97
-42.34
-18.12
15.72
51.56
82.53
105.41
120.59
130.03
134.85
134.33
126.86
111.67
89.77
63.61
35.48
6.49
-23.59
-55.12
-87.12
-116.67
-139.41
-151.27
-150.19
-137.18
-115.78
-90.69
-65.96
-44.29
-27.28
-16.62
-14.82
-25.02
-49.84
-90.16
-144.41
-208.81
-278.05
-345.87
-405.51
-450.16
-473.91
-473.29
-448.89
-405.64
-351.55
-294.98
-242.19
-195.99
-156.36
-121.85
-91.02
-62.99
-37.16
-12.72
11.44
36.24
61.91
87.82
112.90
136.49
159.45
184.50
215.39
254.99
303.23
356.15
406.89
447.91
473.55
481.53
472.82
450.71
419.92
386.26
356.40
336.67
330.96
338.29
351.94
361.23
355.49
328.35
280.04
216.45
145.80
75.06
8.16
-53.99
-111.69
-164.91
-212.74
-253.94
-287.81
-314.77
-335.75
-351.44
-361.63
-365.62
-363.38
-356.63
-348.84
-343.77
-343.45
-346.47
-347.89
-340.97
-320.32
-284.95
-239.52
-192.87
-154.45
-130.26
-120.29
-119.04
-118.39
-111.45
-95.29
-71.17
-42.46
-11.99
19.59
53.46
90.60
129.71
166.99
197.50
217.76
227.30
228.75
226.35
223.74
222.52
221.94
219.86
214.18
204.07
190.34
175.03
160.44
148.12
138.31
130.02
121.72
112.14
100.75
87.83
74.14
60.37
46.94
33.84
20.97
8.33
-3.80
-14.88
-24.24
-31.16
-35.12
-36.01
-34.30
-31.12
-27.96
-26.23
-26.80
-29.80
-34.75
-40.97
-47.87
-54.98
-61.75
-67.38
-70.94
-71.74
-69.94
-66.68
-63.83
-63.23
-65.86
-71.36
-78.32
-85.02
-90.38
-94.73
-99.79
-108.07
-121.72
-141.41
-165.58
-190.35
-210.28
-219.76
-214.61
-193.75
-159.93
-119.46
-80.40
-49.81
-31.20
-23.32
-20.82
-16.72
-5.48
14.63
41.11
68.40
90.26
101.94
101.45
89.61
69.32
44.49
19.14
-3.11
-19.56
-28.63
-30.05
-24.72
-14.34
-0.77
14.31
29.64
44.30
57.49
68.69
77.89
85.86
94.00
103.62
115.03
126.97
136.98
142.76
143.66
141.51
140.07
143.24
153.17
169.03
187.52
204.35
216.13
221.63
221.81
218.85
214.87
210.82
206.25
199.69
189.56
174.94
155.98
133.77
109.79
85.21
60.61
36.01
11.34
-13.15
-36.84
-59.00
-79.34
-98.06
-115.60
-131.94
-146.10
-156.31
-160.81
-158.96
-151.80
-141.80
-131.70
-123.17
-115.97
-108.18
-97.30
-81.66
-61.28
-37.99
-14.57
6.32
22.92
34.69
41.93
45.40
45.99
44.84
43.35
43.24
46.28
53.74
65.97
82.16
100.51
118.64
134.16
145.24
150.95
151.38
147.55
141.05
133.48
125.98
118.86
111.50
102.42
89.52
70.64
44.18
9.92
-30.43
-73.13
-113.16
-145.47
-166.51
-175.23
-173.28
-164.14
-151.79
-139.41
-128.59
-119.35
-110.63
-100.95
-89.03
-74.06
-55.87
-34.91
-12.18
10.93
32.84
52.04
67.38
78.27
84.88
88.00
88.87
88.80
88.73
89.04
89.38
88.98
86.94
82.60
75.83
67.01
56.88
46.19
35.45
24.71
13.61
1.63
-11.47
-25.25
-38.41
-49.02
-55.08
-55.22
-49.32
-38.61
-25.25
-11.71
0.04
8.93
14.86
18.31
19.94
20.24
19.51
17.94
15.73
13.05
9.99
6.45
2.20
-2.98
-9.15
-16.08
-23.31
-30.22
-36.05
-39.84
-40.46
-36.87
-28.57
-16.11
-1.19
13.67
25.94
33.97
37.40
37.07
34.40
30.59
26.24
21.31
15.61
9.18
2.70
-2.68
-5.68
-5.40
-1.64
4.97
13.24
21.84
29.70
36.24
41.24
44.71
46.61
46.85
45.42
42.50
38.62
34.50
30.78
27.82
25.62
23.85
22.13
20.14
17.71
14.81
11.52
7.99
4.44
1.12
-1.74
-3.95
-5.34
-5.62
-4.32
-0.78
5.56
14.82
26.38
38.77
50.19
59.03
64.55
67.12
68.06
69.03
71.39
75.79
81.95
89.00
95.74
101.18
104.91
107.35
109.87
114.51
123.24
136.99
154.89
173.92
189.71
197.92
195.84
183.56
164.27
143.37
126.71
118.54
119.73
127.30
135.44
137.88
130.55
113.22
89.38
64.37
42.73
26.36
14.26
3.85
-7.19
-19.68
-32.96
-45.90
-57.86
-69.19
-80.79
-93.26
-106.39
-119.14
-129.99
-137.74
-141.93
-142.96
-141.88
-139.90
-137.88
-136.09
-134.23
-131.67
-127.87
-122.53
-115.71
-107.83
-99.53
-91.58
-84.60
-78.93
-74.34
-70.10
-65.25
-59.03
-51.35
-42.92
-34.85
-28.16
-23.19
-19.43
-15.98
-12.08
-7.59
-2.93
1.25
4.65
7.56
10.68
14.65
19.36
23.64
25.58
23.29
15.69
2.84
-14.27
-34.29
-55.91
-77.86
-98.75
-116.90
-130.66
-139.02
-142.03
-140.98
-137.89
-134.68
-132.54
-131.69
-131.74
-132.31
-133.34
-135.07
-137.84
-141.77
-146.59
-151.65
-155.94
-158.11
-156.64
-150.04
-137.22
-117.88
-92.77
-63.59
-32.55
-1.72
27.86
56.37
84.79
113.64
141.75
165.76
181.10
184.20
174.53
155.27
131.81
108.90
88.41
68.80
46.92
20.76
-8.76
-38.04
-62.86
-80.91
-92.79
-101.26
-109.24
-118.00
-126.77
-133.74
-137.53
-138.23
-137.32
-136.75
-137.82
-140.55
-143.54
-144.74
-142.31
-135.46
-124.67
-111.51
-97.93
-85.53
-75.19
-66.86
-59.72
-52.49
-43.56
-31.33
-14.63
6.74
31.66
57.75
82.01
101.81
115.74
124.00
127.89
129.00
128.26
125.63
120.30
111.41
98.78
83.23
66.50
50.58
36.99
26.16
17.30
8.75
-1.15
-13.27
-27.20
-41.26
-53.20
-61.08
-64.01
-62.39
-57.62
-51.30
-44.62
-38.00
-31.15
-23.59
-15.12
-6.05
2.84
10.65
16.77
21.18
24.37
27.11
29.95
32.98
35.71
37.42
37.60
36.24
33.99
31.77
30.42
30.26
31.06
32.25
33.27
33.78
33.73
33.22
32.33
31.04
29.27
26.98
24.22
21.21
18.24
15.58
13.44
11.95
11.18
11.13
11.60
12.18
12.13
10.65
7.11
1.42
-5.80
-13.38
-19.93
-24.39
-26.35
-26.11
-24.33
-21.70
-18.53
-14.83
-10.37
-5.07
0.97
7.36
13.61
19.26
23.97
27.58
30.10
31.68
32.49
32.68
32.32
31.46
30.16
28.61
27.09
25.86
25.04
24.43
23.67
22.35
20.35
17.85
15.34
13.35
12.20
11.87
11.99
12.02
11.46
10.00
7.62
4.47
0.89
-2.74
-6.03
-8.64
-10.32
-11.11
-11.39
-11.86
-13.30
-16.27
-20.80
-26.23
-31.54
-35.66
-37.94
-38.38
-37.49
-35.94
-34.18
-32.28
-29.91
-26.69
-22.34
-16.92
-10.70
-4.14
2.32
8.42
14.00
19.14
24.02
28.94
34.31
40.52
47.84
56.24
65.39
74.72
83.83
92.84
102.59
114.32
128.96
146.47
165.47
183.47
197.77
206.39
208.80
206.03
200.30
194.20
190.02
189.23
192.46
199.53
209.74
221.81
233.85
243.39
247.59
243.86
230.62
207.79
176.81
139.95
99.50
57.18
14.26
-27.93
-67.45
-101.81
-128.75
-147.08
-157.30
-161.35
-161.77
-160.68
-159.19
-157.40
-154.86
-151.10
-145.89
-139.21
-131.08
-121.43
-110.17
-97.33
-83.23
-68.53
-54.21
-41.26
-30.45
-22.01
-15.56
-10.23
-5.02
0.73
7.04
13.34
18.72
22.43
24.23
24.54
24.30
24.70
26.98
32.14
40.79
52.89
67.52
82.80
96.11
104.67
106.30
100.00
86.13
66.10
41.71
14.63
-13.85
-42.69
-70.69
-96.33
-117.90
-133.85
-143.42
-146.82
-145.23
-140.27
-133.42
-125.66
-117.34
-108.55
-99.51
-90.71
-82.88
-76.53
-71.68
-67.79
-64.03
-59.63
-54.19
-47.52
-39.44
-29.60
-17.49
-2.79
14.22
32.59
50.85
67.50
81.35
91.59
97.72
99.40
96.54
89.54
79.46
67.84
56.17
45.28
35.18
25.25
14.94
4.34
-5.72
-14.12
-20.19
-24.31
-28.02
-33.46
-42.51
-55.96
-73.05
-91.61
-108.76
-121.90
-129.65
-132.40
-132.17
-132.05
-135.20
-143.97
-159.28
-180.19
-203.88
-225.86
-240.96
-244.81
-235.60
-215.10
-188.31
-161.61
-140.25
-126.46
-119.27
-116.00
-114.35
-113.86
-115.62
-120.84
-129.04
-137.48
-142.13
-139.74
-129.49
-113.34
-94.67
-76.30
-59.03
-41.65
-22.05
1.20
28.17
57.79
88.74
120.17
151.77
183.10
212.95
239.17
259.30
271.53
275.40
271.95
263.38
252.45
241.96
234.27
230.93
232.33
237.55
244.47
250.37
252.56
249.01
238.65
221.56
199.18
174.34
150.96
133.07
123.38
121.88
125.73
130.35
131.68
128.16
121.21
113.97
109.15
107.17
105.97
102.52
94.96
83.89
72.20
63.36
59.58
60.69
64.34
67.21
66.29
59.77
47.29
29.71
8.61
-14.31
-37.55
-60.01
-80.76
-98.75
-112.83
-122.04
-126.13
-126.04
-123.86
-122.10
-122.91
-127.33
-135.15
-145.08
-155.15
-163.22
-167.44
-166.71
-161.18
-152.58
-144.02
-139.11
-140.72
-149.84
-165.06
-183.06
-199.71
-211.52
-216.71
-215.50
-209.72
-201.80
-193.67
-185.99
-178.17
-169.10
-158.04
-145.36
-132.30
-120.24
-109.77
-100.47
-91.29
-81.45
-71.20
-61.71
-54.40
-50.10
-48.61
-49.07
-50.59
-52.89
-56.22
-60.89
-66.74
-73.09
-79.18
-84.70
-90.04
-95.97
-103.13
-111.63
-121.18
-131.46
-142.54
-154.81
-168.64
-183.70
-198.76
-211.79
-220.57
-223.40
-219.49
-209.02
-192.94
-172.56
-149.23
-124.12
-98.14
-72.04
-46.57
-22.69
-1.49
16.22
30.24
41.24
50.49
59.30
68.35
77.48
85.89
92.75
97.74
101.15
103.59
105.46
106.74
107.07
106.13
103.98
101.04
97.73
94.20
90.21
85.32
79.24
72.07
64.22
56.28
48.71
41.68
35.08
28.61
21.91
14.65
6.61
-2.29
-11.82
-21.36
-29.91
-36.23
-39.17
-38.05
-32.79
-24.00
-12.62
0.39
14.28
28.61
43.12
57.49
71.22
83.64
94.04
101.97
107.29
110.22
111.17
110.58
108.88
106.40
103.51
100.55
97.84
95.52
93.47
91.26
88.39
84.47
79.45
73.77
68.09
63.11
59.12
55.89
52.70
48.70
43.35
36.68
29.27
21.89
15.14
9.06
3.21
-3.16
-10.64
-19.46
-29.34
-39.67
-49.62
-58.24
-64.64
-67.97
-67.61
-63.29
-55.16
-43.77
-29.97
-14.66
1.26
17.05
32.10
45.96
58.24
68.62
76.89
82.96
86.87
88.87
89.35
88.80
87.68
86.30
84.79
83.05
80.90
78.20
74.94
71.29
67.52
63.90
60.59
57.58
54.68
51.59
48.03
43.86
39.21
34.47
30.11
26.48
23.61
21.14
18.47
15.06
10.64
5.29
-0.67
-6.96
-13.51
-20.50
-28.18
-36.49
-44.81
-52.03
-56.85
-58.18
-55.60
-49.41
-40.49
-29.93
-18.61
-7.07
4.44
15.77
26.68
36.83
45.85
53.51
59.78
64.80
68.81
72.01
74.55
76.55
78.12
79.36
80.43
81.43
82.47
83.60
84.73
85.67
86.14
85.88
84.81
83.09
81.11
79.29
77.83
76.59
75.15
72.98
69.79
65.68
61.12
56.73
53.01
50.11
47.82
45.71
43.34
40.41
36.83
32.63
27.95
23.05
18.33
14.29
11.44
10.06
10.14
11.31
13.15
15.38
18.05
21.51
26.14
32.14
39.25
46.81
53.89
59.58
63.22
64.61
63.93
61.75
58.75
55.62
52.78
50.38
48.31
46.25
43.83
40.69
36.63
31.59
25.80
19.82
14.41
10.35
8.10
7.57
8.06
8.58
8.36
7.32
6.19
6.15
8.20
12.64
18.90
25.88
32.59
38.52
43.72
48.32
52.06
54.09
53.40
49.56
43.29
36.34
30.74
27.80
27.43
28.22
28.15
25.57
19.79
11.17
0.71
-10.46
-21.32
-31.10
-39.09
-44.79
-48.05
-49.31
-49.56
-50.03
-51.64
-54.58
-58.32
-62.00
-64.94
-67.12
-69.12
-71.64
-74.91
-78.40
-81.03
-81.74
-80.26
-77.27
-74.01
-71.41
-69.54
-67.37
-63.53
-56.98
-47.57
-35.99
-23.22
-10.27
1.98
12.52
20.23
24.04
23.45
18.77
10.84
0.33
-12.91
-29.85
-51.60
-78.26
-108.38
-139.09
-167.23
-190.31
-207.12
-217.66
-222.57
-222.76
-219.33
-213.57
-206.81
-200.04
-193.46
-186.22
-176.94
-164.36
-148.21
-129.46
-110.06
-92.14
-77.25
-65.93
-57.68
-51.42
-45.90
-40.13
-33.45
-25.58
-16.42
-6.04
5.40
17.49
29.57
40.73
49.96
56.47
59.84
60.24
58.23
54.54
49.75
44.16
37.78
30.46
22.06
12.61
2.22
-8.86
-20.35
-31.87
-42.88
-52.81
-61.22
-68.23
-74.53
-81.21
-89.22
-98.68
-108.69
-117.48
-123.14
-124.39
-121.03
-113.88
-104.29
-93.64
-83.05
-73.30
-65.03
-58.66
-54.16
-50.87
-47.39
-41.91
-32.80
-19.07
-0.64
21.86
47.44
75.08
103.78
132.46
159.71
183.92
203.43
217.03
224.29
225.75
222.70
216.80
209.68
202.47
195.76
189.40
182.59
174.03
162.31
146.57
127.00
105.20
83.65
64.84
50.17
39.17
29.54
18.21
2.69
-17.55
-40.64
-62.84
-79.86
-88.47
-87.45
-77.81
-62.11
-43.33
-23.97
-5.64
10.78
24.60
35.04
41.34
43.26
41.41
37.30
32.71
29.05
26.63
24.79
22.23
17.84
11.22
2.79
-6.41
-15.29
-23.09
-29.53
-34.79
-39.33
-43.73
-48.64
-54.68
-62.22
-71.24
-81.13
-90.82
-99.09
-104.96
-107.97
-108.31
-106.57
-103.48
-99.65
-95.46
-91.17
-87.06
-83.46
-80.66
-78.69
-77.11
-75.00
-71.26
-64.96
-55.81
-44.33
-31.67
-19.18
-7.92
1.62
9.50
15.98
21.18
24.95
26.96
26.93
24.91
21.23
16.37
10.80
4.78
-1.60
-8.38
-15.63
-23.37
-31.59
-40.20
-48.97
-57.57
-65.52
-72.39
-77.93
-82.21
-85.62
-88.70
-91.96
-95.61
-99.44
-102.77
-104.56
-103.81
-99.79
-92.35
-81.96
-69.55
-56.24
-43.02
-30.52
-18.94
-8.04
2.82
14.54
28.07
43.99
62.26
81.93
101.36
118.60
132.09
141.18
146.34
149.00
151.01
154.19
159.76
168.26
179.49
192.74
206.96
220.95
233.58
243.97
251.69
256.98
260.64
263.74
266.90
269.61
269.88
264.79
251.64
229.51
200.00
167.10
136.05
111.78
97.65
94.81
102.06
116.10
132.07
144.37
147.86
139.16
117.65
85.57
46.97
6.13
-34.07
-72.99
-112.15
-154.20
-201.21
-253.03
-306.20
-354.13
-388.61
-402.48
-392.28
-359.63
-310.77
-254.50
-199.40
-151.98
-115.88
-92.38
-81.04
-80.06
-86.23
-95.13
-101.80
-102.08
-93.94
-78.19
-58.04
-38.01
-22.33
-13.59
-12.28
-17.12
-25.96
-36.98
-49.19
-62.36
-76.41
-90.72
-104.03
-115.02
-123.05
-128.67
-133.36
-138.61
-144.88
-151.26
-155.95
-157.16
-153.88
-145.83
-132.90
-114.29
-88.38
-53.34
-8.33
45.44
104.33
162.97
215.47
256.79
283.57
294.28
288.98
269.01
236.84
196.08
151.12
106.66
66.75
33.99
9.24
-8.15
-19.70
-27.02
-31.13
-32.25
-29.61
-21.78
-7.00
16.14
48.07
87.61
131.78
176.07
215.23
244.21
259.10
257.73
240.03
208.05
165.84
118.91
73.27
34.09
4.48
-15.02
-26.09
-31.41
-33.38
-33.26
-31.07
-26.45
-19.58
-11.44
-3.79
1.74
4.34
4.39
3.26
2.66
3.93
7.35
11.93
15.69
16.39
12.55
4.25
-6.88
-18.26
-27.51
-33.27
-35.46
-34.74
-31.63
-25.78
-16.17
-2.04
15.90
34.83
50.31
57.82
54.49
40.38
18.51
-6.35
-29.36
-47.14
-58.53
-64.37
-66.61
-67.40
-68.36
-70.37
-73.67
-78.16
-83.61
-89.87
-96.89
-104.55
-112.48
-120.13
-127.02
-133.13
-138.96
-145.38
-152.86
-160.98
-168.17
-172.08
-170.47
-161.94
-146.35
-124.59
-97.93
-67.52
-34.40
0.22
34.49
66.02
92.54
112.64
126.28
134.48
138.46
138.94
136.01
129.72
121.09
112.51
107.44
109.17
119.41
137.56
160.86
185.54
208.21
226.86
240.92
250.59
255.88
256.02
249.34
233.92
208.33
172.41
127.52
76.42
22.93
-28.51
-73.29
-106.97
-125.92
-128.13
-114.11
-87.38
-54.17
-22.06
2.18
14.66
15.65
9.34
2.05
-0.38
4.87
16.31
28.59
34.70
28.83
8.89
-22.71
-60.01
-95.82
-124.35
-142.79
-151.46
-152.58
-148.67
-141.53
-132.23
-121.69
-111.32
-102.97
-98.26
-97.68
-100.18
-103.48
-104.98
-102.82
-96.52
-86.83
-75.28
-63.31
-51.81
-40.91
-30.42
-20.33
-11.29
-4.62
-1.93
-4.41
-12.15
-23.99
-37.82
-51.19
-62.10
-69.50
-73.40
-74.65
-74.37
-73.40
-71.97
-69.85
-66.59
-62.11
-56.91
-52.08
-48.68
-47.36
-47.72
-48.60
-48.50
-46.33
-41.63
-34.45
-24.90
-12.84
2.18
20.95
44.23
72.48
105.34
141.09
176.49
206.92
227.29
233.36
223.17
198.02
162.45
123.21
87.34
60.13
43.56
36.04
33.46
31.12
25.81
16.90
6.39
-2.38
-6.23
-3.36
6.11
20.27
36.02
49.99
59.59
63.79
63.26
59.71
54.59
48.08
38.93
25.37
6.67
-15.84
-38.97
-58.97
-73.25
-81.36
-84.71
-85.20
-83.91
-80.56
-74.32
-65.20
-55.24
-48.47
-49.59
-61.93
-85.89
-118.94
-156.87
-195.59
-232.24
-264.78
-290.90
-307.26
-310.11
-297.27
-270.06
-233.70
-195.56
-162.12
-136.26
-116.67
-99.34
-80.28
-57.73
-32.68
-7.80
14.40
32.77
47.67
60.08
70.72
79.59
86.37
91.15
94.79
98.67
103.93
110.70
118.09
124.73
129.71
133.05
135.78
139.23
144.24
150.69
157.64
163.77
167.96
169.50
168.02
163.29
155.08
143.29
128.20
110.49
91.02
70.40
48.60
24.90
-1.59
-31.21
-63.07
-95.06
-124.44
-148.90
-167.43
-180.47
-189.28
-195.02
-197.83
-196.71
-190.11
-176.91
-157.34
-133.14
-107.08
-81.92
-59.51
-40.33
-23.72
-8.73
5.17
17.49
26.92
32.06
32.23
28.00
21.08
13.68
7.65
3.97
2.85
4.42
9.47
19.69
37.23
63.68
99.22
142.58
191.82
244.98
300.32
355.60
407.28
450.41
479.78
491.95
486.90
468.30
442.05
413.77
386.79
361.51
336.42
309.81
281.03
250.66
219.74
188.80
157.36
124.20
88.15
48.69
6.17
-38.70
-85.27
-133.09
-181.34
-228.15
-270.32
-303.96
-325.78
-334.42
-330.88
-317.98
-299.03
-276.69
-252.52
-227.39
-202.17
-178.08
-156.47
-138.21
-123.14
-110.22
-98.06
-85.70
-73.08
-60.99
-50.68
-43.29
-39.40
-38.93
-41.35
-45.97
-52.29
-60.07
-69.17
-79.12
-88.70
-95.85
-98.09
-93.46
-81.50
-64.08
-45.12
-29.54
-21.54
-23.01
-32.88
-47.62
-62.76
-74.42
-80.48
-80.68
-76.04
-68.15
-58.58
-48.84
-40.46
-35.04
-33.92
-37.78
-46.10
-57.13
-68.24
-76.71
-80.74
-80.25
-77.18
-74.89
-76.78
-84.79
-98.35
-114.53
-129.44
-140.32
-147.04
-152.07
-158.85
-169.07
-180.95
-189.09
-186.35
-166.63
-127.31
-70.39
-2.03
68.83
132.50
180.41
206.44
207.97
186.25
146.27
95.95
44.55
0.56
-30.38
-46.84
-51.72
-50.79
-50.16
-53.65
-61.25
-69.64
-74.43
-72.95
-66.08
-57.76
-52.81
-54.16
-61.10
-69.60
-74.26
-70.67
-57.06
-34.64
-6.76
22.70
50.62
75.61
98.06
119.56
141.59
164.46
186.44
204.10
213.59
212.40
200.61
180.83
156.96
132.27
108.20
84.17
58.91
31.89
4.19
-21.79
-43.51
-59.62
-70.72
-79.00
-87.18
-97.07
-108.68
-120.17
-128.66
-131.56
-127.72
-117.91
-104.46
-90.32
-77.86
-68.13
-60.67
-54.02
-46.53
-37.23
-26.35
-15.25
-5.79
0.67
4.04
5.75
8.25
14.11
25.03
41.28
61.89
85.31
110.05
134.85
158.36
178.57
192.84
198.48
193.83
179.26
157.52
132.91
109.99
92.07
80.21
73.17
68.37
63.26
56.23
46.87
35.84
24.58
15.63
12.90
21.48
46.23
89.48
148.90
216.90
282.36
334.07
364.64
372.55
361.82
339.29
311.34
281.75
251.52
220.37
188.59
157.98
131.27
110.89
97.40
89.01
82.40
74.20
62.55
47.81
32.31
19.12
10.82
8.58
11.90
19.02
27.57
35.23
40.25
41.48
38.10
29.28
13.98
-8.72
-38.79
-74.54
-112.37
-147.53
-175.45
-193.23
-200.49
-199.23
-192.95
-185.39
-179.79
-178.34
-182.23
-191.73
-206.05
-223.01
-238.86
-248.43
-246.14
-227.75
-192.08
-142.21
-85.13
-30.04
14.40
42.51
52.92
48.29
33.74
15.01
-2.95
-16.57
-23.84
-24.14
-18.36
-8.74
1.42
8.61
9.98
4.12
-8.73
-26.87
-47.73
-68.53
-86.71
-100.47
-108.98
-112.59
-112.78
-111.79
-112.07
-115.35
-122.18
-131.68
-142.04
-151.35
-158.64
-164.52
-171.16
-181.44
-197.43
-219.10
-243.60
-265.97
-280.74
-283.88
-274.21
-253.47
-225.26
-193.54
-161.22
-129.70
-99.07
-68.50
-36.71
-2.24
36.06
78.12
121.81
162.70
195.05
213.44
214.92
200.09
172.89
139.26
105.52
76.99
57.39
48.59
50.36
60.40
74.67
88.58
98.74
104.79
110.11
120.72
142.64
178.75
226.78
279.50
327.23
361.34
377.16
374.88
358.17
331.74
299.20
262.49
222.85
182.22
144.20
113.27
93.39
86.39
91.34
105.01
123.02
141.09
155.80
164.90
167.30
162.93
152.51
137.32
118.74
97.88
75.42
51.65
26.75
0.80
-26.22
-54.64
-85.24
-119.10
-157.11
-199.44
-245.17
-292.22
-337.79
-379.02
-413.73
-440.89
-460.67
-474.19
-482.85
-487.76
-489.36
-487.55
-481.93
-472.36
-459.27
-443.73
-427.19
-410.93
-395.50
-380.34
-363.89
-344.05
-319.09
-288.25
-252.19
-212.76
-172.31
-132.81
-95.23
-59.28
-23.79
12.70
51.05
91.07
131.38
169.81
204.03
232.13
253.15
266.97
274.22
276.06
274.07
270.06
265.80
262.37
259.57
255.73
248.34
235.25
215.71
190.68
162.10
131.70
100.15
67.18
32.56
-2.73
-35.98
-63.28
-80.85
-86.56
-80.82
-66.61
-48.58
-31.64
-19.49
-13.73
-13.56
-16.41
-19.19
-19.47
-16.41
-10.60
-3.47
3.58
9.80
15.24
20.45
26.12
32.86
41.01
50.54
60.78
70.44
77.71
80.72
78.21
70.08
57.61
43.09
29.04
17.43
9.32
5.06
4.68
8.24
15.88
27.50
42.42
59.16
75.63
89.59
99.33
104.18
104.66
102.30
98.82
95.49
92.71
90.20
87.67
85.59
85.49
89.42
98.84
113.52
131.27
148.79
163.26
173.61
180.83
187.24
195.00
205.01
216.75
228.96
240.75
252.10
263.41
274.55
284.06
289.31
287.63
277.86
261.28
241.23
221.62
205.09
191.92
180.44
168.26
153.91
137.40
119.84
102.38
85.52
69.16
53.44
39.36
28.62
22.59
21.11
21.88
21.14
15.22
1.94
-18.71
-45.26
-76.04
-110.12
-147.24
-186.90
-227.47
-266.02
-299.29
-325.08
-343.10
-354.65
-361.34
-363.66
-360.44
-349.46
-329.03
-299.38
-263.04
-224.06
-186.43
-152.62
-123.11
-96.80
-72.18
-48.27
-25.06
-3.26
16.31
33.31
48.02
61.13
73.29
84.75
95.30
104.45
111.79
117.19
120.90
123.28
124.54
124.47
122.52
118.08
110.88
101.16
89.59
76.93
63.70
50.11
36.25
22.37
8.83
-3.96
-15.94
-27.37
-38.65
-49.67
-59.50
-66.50
-68.96
-65.95
-57.88
-46.41
-33.74
-21.75
-11.43
-2.77
4.84
12.02
19.02
25.58
31.23
35.61
38.70
40.86
42.73
44.84
47.45
50.41
53.16
54.93
54.92
52.46
47.06
38.34
26.08
10.06
-9.75
-33.20
-59.76
-88.45
-117.88
-146.50
-173.04
-196.74
-217.47
-235.45
-251.04
-264.34
-275.31
-283.79
-289.71
-293.02
-293.53
-290.60
-283.15
-270.02
-250.41
-224.33
-192.61
-156.51
-117.40
-76.62
-35.63
3.95
40.50
72.87
100.73
124.51
144.88
162.15
176.05
186.08
192.18
195.29
197.11
199.41
203.14
208.04
212.97
216.73
218.72
219.12
218.43
216.82
213.83
208.53
200.09
188.28
173.64
157.10
139.34
120.46
100.02
77.60
53.42
28.63
4.95
-16.03
-33.66
-48.41
-61.48
-74.06
-86.64
-98.92
-110.12
-119.53
-126.94
-132.60
-136.95
-140.21
-142.15
-142.07
-139.07
-132.42
-121.84
-107.80
-91.32
-73.85
-56.84
-41.44
-28.30
-17.55
-8.97
-2.10
3.50
8.23
12.34
15.97
19.14
21.87
24.19
26.25
28.21
30.23
32.35
34.45
36.35
37.82
38.71
38.88
38.22
36.61
34.05
30.68
26.86
22.99
19.48
16.52
14.00
11.69
9.31
6.76
4.05
1.26
-1.55
-4.34
-7.10
-9.94
-13.01
-16.59
-20.91
-26.11
-32.16
-38.76
-45.38
-51.50
-57.02
-62.29
-67.82
-73.92
-80.44
-86.63
-91.32
-93.00
-90.51
-83.68
-73.26
-60.53
-46.75
-32.98
-19.98
-8.27
2.57
12.96
22.69
31.00
37.08
40.65
41.98
41.75
40.75
41.01
44.02
49.73
56.58
62.64
66.53
67.73
66.22
62.20
57.73
54.72
53.99
55.42
59.03
65.54
75.69
89.42
94.60
82.74
53.77
15.92
-21.25
-51.98
-74.51
-89.49
-98.54
-101.95
-99.35
-90.14
-75.30
-57.97
-42.28
-31.66
-27.83
-30.30
-40.06
-53.96
-68.29
-80.80
-91.19
-99.99
-107.27
-112.32
-114.03
-111.70
-104.41
-92.46
-77.46
-61.62
-46.67
-33.31
-21.50
-11.07
-2.20
5.32
11.44
15.99
18.75
19.83
19.56
18.30
16.23
13.31
9.81
6.08
2.53
-0.50
-2.69
-3.85
-4.03
-3.49
-2.62
-1.69
-0.88
-0.18
0.49
1.24
2.07
2.81
3.22
2.97
1.91
0.01
-2.50
-5.32
-8.06
-10.43
-12.32
-13.77
-14.95
-16.08
-17.38
-19.04
-21.21
-24.00
-27.43
-31.29
-35.09
-38.16
-39.75
-39.31
-36.62
-31.90
-25.65
-18.51
-11.04
-3.56
3.78
10.92
17.74
23.98
29.31
33.46
36.32
38.05
39.02
39.62
40.19
40.86
41.61
42.28
42.70
42.72
42.27
41.39
40.16
38.78
37.44
36.30
35.40
34.63
33.76
32.56
30.84
28.54
25.72
22.54
19.17
15.78
12.54
9.53
6.81
4.40
2.23
0.19
-1.91
-4.30
-7.19
-10.74
-14.95
-19.65
-24.47
-28.90
-32.28
-34.02
-33.62
-30.90
-25.99
-19.33
-11.54
-3.26
5.02
12.98
20.49
27.40
33.47
38.35
41.72
43.46
43.75
43.01
41.79
40.49
39.32
38.28
37.28
36.28
35.33
34.51
33.87
33.34
32.79
32.08
31.17
30.08
28.85
27.42
25.63
23.29
20.28
16.73
12.96
9.37
6.24
3.66
1.45
-0.63
-2.75
-4.98
-7.27
-9.56
-11.84
-14.16
-16.59
-19.16
-21.82
-24.46
-26.87
-28.76
-29.72
-29.37
-27.43
-23.83
-18.82
-12.81
-6.30
0.29
6.68
12.68
18.15
22.85
26.56
29.08
30.42
30.77
30.51
30.02
29.58
29.20
28.74
28.03
27.00
25.76
24.54
23.52
22.74
21.99
21.01
19.59
17.76
15.74
13.83
12.24
11.00
9.96
8.89
7.60
6.02
4.16
2.08
-0.14
-2.44
-4.76
-7.05
-9.24
-11.32
-13.32
-15.33
-17.47
-19.77
-22.17
-24.43
-26.12
-26.78
-26.00
-23.63
-19.80
-14.91
-9.51
-4.09
0.99
5.53
9.43
12.65
15.12
16.84
17.82
18.18
18.08
17.71
17.20
16.59
15.90
15.10
14.17
13.13
12.07
11.13
10.46
10.15
10.16
10.31
10.33
9.98
9.15
7.88
6.32
4.65
2.95
1.22
-0.56
-2.36
-4.06
-5.56
-6.78
-7.83
-8.95
-10.43
-12.48
-15.11
-18.08
-20.95
-23.21
-24.37
-24.16
-22.53
-19.70
-15.99
-11.76
-7.32
-2.86
1.43
5.40
8.86
11.64
13.62
14.79
15.24
15.13
14.69
14.07
13.39
12.64
11.79
10.79
9.63
8.45
7.41
6.69
6.36
6.33
6.43
6.44
6.21
5.67
4.84
3.74
2.39
0.83
-0.88
-2.68
-4.47
-6.21
-7.87
-9.42
-10.85
-12.16
-13.42
-14.76
-16.30
-18.11
-20.13
-22.14
-23.84
-24.91
-25.07
-24.13
-22.00
-18.74
-14.59
-9.91
-5.13
-0.64
3.36
6.83
9.83
12.42
14.59
16.26
17.35
17.89
17.98
17.80
17.52
17.24
17.01
16.82
16.68
16.56
16.47
16.37
16.17
15.81
15.19
14.33
13.33
12.34
11.53
10.98
10.61
10.20
9.46
8.25
6.59
4.71
2.90
1.33
0.00
-1.24
-2.59
-4.15
-5.91
-7.77
-9.68
-11.66
-13.68
-15.59
-17.08
-17.77
-17.45
-16.20
-14.38
-12.41
-10.52
-8.59
-6.32
-3.41
0.17
4.18
8.13
11.59
14.33
16.31
17.63
18.40
18.67
18.52
18.04
17.34
16.52
15.58
14.53
13.36
12.11
10.92
9.89
9.01
8.22
7.32
6.17
4.74
3.07
1.32
-0.40
-2.02
-3.56
-5.07
-6.62
-8.27
-9.99
-11.73
-13.38
-14.86
-16.12
-17.18
-18.12
-19.03
-20.01
-21.14
-22.53
-24.18
-26.01
-27.76
-29.02
-29.33
-28.34
-25.95
-22.39
-18.03
-13.34
-8.62
-4.06
0.30
4.37
8.05
11.15
13.55
15.22
16.28
16.89
17.20
17.28
17.13
16.74
16.14
15.43
14.72
14.08
13.55
13.03
12.38
11.48
10.30
8.93
7.56
6.35
5.39
4.59
3.75
2.64
1.12
-0.78
-2.91
-5.07
-7.07
-8.84
-10.38
-11.74
-13.00
-14.27
-15.66
-17.30
-19.29
-21.58
-23.97
-26.12
-27.61
-28.11
-27.42
-25.53
-22.57
-18.80
-14.48
-9.87
-5.18
-0.64
3.61
7.41
10.66
13.32
15.38
16.89
17.93
18.59
18.90
18.91
18.59
17.95
16.96
15.66
14.20
12.73
11.47
10.59
10.11
9.91
9.74
9.32
8.46
7.14
5.52
3.81
2.22
0.80
-0.50
-1.82
-3.25
-4.83
-6.48
-8.10
-9.59
-10.97
-12.28
-13.64
-15.12
-16.77
-18.60
-20.61
-22.77
-25.03
-27.21
-29.04
-30.13
-30.14
-28.88
-26.35
-22.76
-18.40
-13.55
-8.47
-3.39
1.44
5.81
9.54
12.64
15.23
17.46
19.36
20.84
21.68
21.75
21.07
19.89
18.52
17.25
16.16
15.19
14.20
13.08
11.82
10.47
9.12
7.76
6.33
4.78
3.08
1.34
-0.27
-1.58
-2.48
-3.04
-3.44
-3.96
-4.85
-6.27
-8.20
-10.48
-12.86
-15.06
-16.92
-18.40
-19.63
-20.79
-22.09
-23.65
-25.44
-27.31
-29.01
-30.19
-30.53
-29.76
-27.75
-24.51
-20.26
-15.33
-10.12
-4.96
-0.04
4.56
8.86
12.82
16.35
19.30
21.50
22.93
23.67
23.90
23.83
23.57
23.15
22.52
21.66
20.60
19.48
18.41
17.50
16.80
16.25
15.75
15.13
14.19
12.80
10.93
8.71
6.37
4.25
2.56
1.37
0.52
-0.27
-1.31
-2.75
-4.56
-6.57
-8.53
-10.27
-11.75
-13.06
-14.37
-15.87
-17.67
-19.80
-22.24
-24.86
-27.48
-29.80
-31.45
-32.02
-31.21
-28.90
-25.28
-20.76
-15.83
-10.90
-6.19
-1.76
2.40
6.26
9.69
12.56
14.77
16.37
17.50
18.31
18.88
19.20
19.23
18.94
18.38
17.66
16.88
16.12
15.37
14.62
13.83
13.02
12.21
11.40
10.55
9.54
8.25
6.63
4.72
2.66
0.62
-1.27
-2.98
-4.56
-6.10
-7.66
-9.28
-10.93
-12.58
-14.21
-15.81
-17.35
-18.83
-20.26
-21.69
-23.15
-24.67
-26.17
-27.52
-28.50
-28.86
-28.44
-27.11
-24.86
-21.79
-18.03
-13.80
-9.28
-4.71
-0.25
3.93
7.66
10.79
13.19
14.86
15.93
16.60
17.08
17.48
17.77
17.82
17.48
16.73
15.71
14.66
13.79
13.23
12.89
12.55
11.95
10.93
9.48
7.77
6.01
4.35
2.84
1.35
-0.25
-2.04
-4.00
-6.02
-7.96
-9.77
-11.49
-13.20
-14.95
-16.77
-18.62
-20.52
-22.49
-24.60
-26.81
-28.96
-30.72
-31.72
-31.66
-30.45
-28.21
-25.20
-21.71
-17.98
-14.14
-10.26
-6.43
-2.76
0.57
3.39
5.58
7.13
8.14
8.80
9.28
9.68
10.00
10.14
10.00
9.53
8.75
7.74
6.54
5.11
3.36
1.18
-1.41
-4.30
-7.30
-10.25
-13.06
-15.67
-17.98
-19.78
-20.79
-20.71
-19.41
-16.99
-13.79
-10.21
-6.65
-3.38
-0.52
1.91
3.93
5.57
6.79
7.52
7.71
