1.593439820000000000e+09
-2.999999999999999889e-02
5.059999999999999609e+00
1.791000000000000014e+01
7.934000000000000341e+01
2.282500000000000000e+02
-4.865000000000000000e+02
-5.900000000000000355e+00
1.558100000000000023e+02
4.528999999999999915e+01
-3.549999999999999822e+00
-1.748000000000000043e+01
2.769999999999999929e+01
8.990000000000000213e+00
5.919999999999999929e+00
5.870000000000000107e+00
-4.969999999999999751e+00
-5.480000000000000426e+00
-5.330000000000000071e+00
-1.534999999999999964e+01
3.128000000000000114e+01
-1.500000000000000000e+00
-2.630000000000000071e+01
1.390000000000000036e+01
1.444999999999999929e+01
-9.390000000000000568e+00
-3.242000000000000171e+01
1.623000000000000043e+01
8.320000000000000284e+00
-3.277000000000000313e+01
5.709999999999999964e+00
4.703999999999999915e+01
9.320000000000000284e+00
-2.260000000000000142e+01
2.903000000000000114e+01
-2.585000000000000142e+01
-5.969999999999999751e+00
8.010999999999999943e+01
1.716399999999999864e+02
-4.065999999999999659e+01
-1.201400000000000006e+02
-3.238000000000000256e+01
6.625000000000000000e+01
-7.973999999999999488e+01
-8.839000000000000057e+01
2.971999999999999886e+01
-3.209000000000000341e+01
-1.419799999999999898e+02
1.074899999999999949e+02
-1.590000000000000036e+01
-9.487000000000000455e+01
1.375000000000000000e+01
8.179000000000000625e+01
-3.821000000000000085e+01
5.600000000000000000e+01
6.297999999999999687e+01
9.700000000000000000e+01
-1.402100000000000080e+02
4.449100000000000250e+02
-2.682000000000000028e+01
4.078000000000000114e+01
-2.996999999999999886e+02
-3.216499999999999773e+02
1.198400000000000034e+02
-9.269999999999999574e+00
5.053000000000000114e+01
-1.730900000000000034e+02
-1.103700000000000045e+02
4.804999999999999716e+01
1.427400000000000091e+02
-1.678999999999999915e+01
7.301000000000000512e+01
-1.615900000000000034e+02
-1.850699999999999932e+02
3.722999999999999687e+01
3.553999999999999915e+01
2.496999999999999886e+02
9.267000000000000171e+01
-4.914399999999999977e+02
-1.411699999999999875e+02
-2.092500000000000000e+02
1.162500000000000000e+02
1.585500000000000114e+02
-3.746999999999999886e+01
2.143899999999999864e+02
1.687500000000000000e+02
-4.247699999999999818e+02
-1.407700000000000102e+02
1.267999999999999972e+01
-1.093799999999999955e+02
1.469300000000000068e+02
3.560999999999999943e+01
-1.612800000000000011e+02
5.875999999999999801e+01
6.576000000000000512e+01
-9.592000000000000171e+01
-5.289000000000000057e+01
1.324900000000000091e+02
5.454999999999999716e+01
-7.545999999999999375e+01
3.087999999999999901e+01
2.869999999999999929e+01
-7.390000000000000568e+01
5.774000000000000199e+01
5.227000000000000313e+01
-1.093100000000000023e+02
9.731999999999999318e+01
9.756000000000000227e+01
-9.392000000000000171e+01
-9.462999999999999545e+01
1.241800000000000068e+02
-1.029000000000000057e+02
4.120000000000000107e+00
4.229999999999999716e+01
-1.000000000000000056e-01
-1.705999999999999872e+01
1.032500000000000000e+02
7.353000000000000114e+01
-1.118400000000000034e+02
-9.062999999999999545e+01
8.068999999999999773e+01
-6.147999999999999687e+01
-3.390999999999999659e+01
-1.300999999999999979e+01
-7.129999999999999893e+00
-1.857000000000000028e+01
1.448000000000000043e+01
1.408000000000000007e+01
-2.371000000000000085e+01
2.260999999999999943e+01
9.480000000000000426e+00
-1.005000000000000071e+01
-1.264000000000000057e+01
2.057000000000000028e+01
7.780000000000000249e+00
-2.217000000000000171e+01
1.188000000000000078e+01
1.589000000000000057e+01
-4.690000000000000391e+00
-2.953000000000000114e+01
1.823000000000000043e+01
8.509999999999999787e+00
-1.426999999999999957e+01
7.219999999999999751e+00
1.798999999999999844e+01
1.449999999999999956e+00
-3.360999999999999943e+01
2.087999999999999901e+01
-1.186999999999999922e+01
3.129999999999999893e+00
-2.930999999999999872e+01
1.842000000000000171e+01
1.805000000000000071e+01
-1.166000000000000014e+01
2.123999999999999844e+01
8.869999999999999218e+00
-6.719999999999999751e+00
1.481000000000000050e+01
1.725000000000000000e+01
8.800000000000000044e-01
-1.996000000000000085e+01
1.794999999999999929e+01
6.240000000000000213e+00
-2.173000000000000043e+01
2.369000000000000128e+01
3.799999999999999822e+00
-1.626999999999999957e+01
-3.049999999999999822e+00
6.910000000000000142e+00
-9.890000000000000568e+00
-2.069999999999999929e+01
1.721000000000000085e+01
8.279999999999999361e+00
-4.899999999999999911e-01
9.240000000000000213e+00
9.349999999999999645e+00
-1.025999999999999979e+01
-2.542000000000000171e+01
1.951999999999999957e+01
-4.160000000000000142e+00
-2.325000000000000000e+01
1.700000000000000122e-01
1.088000000000000078e+01
6.740000000000000213e+00
-1.960999999999999943e+01
4.570000000000000284e+00
3.930000000000000160e+00
-2.171000000000000085e+01
1.155000000000000071e+01
9.300000000000000488e-01
-1.140000000000000036e+01
-1.932999999999999829e+01
2.996999999999999886e+01
1.525000000000000000e+01
-1.499000000000000021e+01
1.211999999999999922e+01
1.142999999999999972e+01
-1.386999999999999922e+01
-2.789000000000000057e+01
2.242999999999999972e+01
3.930000000000000160e+00
-2.344000000000000128e+01
1.110000000000000098e+00
1.523000000000000043e+01
3.350000000000000089e+00
-1.942999999999999972e+01
2.292999999999999972e+01
2.669999999999999929e+00
-1.871000000000000085e+01
9.839999999999999858e+00
5.589999999999999858e+00
-1.739000000000000057e+01
-2.617000000000000171e+01
2.812000000000000099e+01
1.357000000000000028e+01
-1.209999999999999964e+01
1.400999999999999979e+01
8.220000000000000639e+00
-1.149000000000000021e+01
-3.139999999999999858e+01
1.960000000000000142e+01
-3.689999999999999947e+00
-1.208000000000000007e+01
2.196000000000000085e+01
1.671000000000000085e+01
-6.980000000000000426e+00
-2.669000000000000128e+01
1.619000000000000128e+01
-8.299999999999999600e-01
-2.082999999999999829e+01
1.585999999999999943e+01
4.360000000000000320e+00
-9.410000000000000142e+00
-2.005999999999999872e+01
3.421999999999999886e+01
6.730000000000000426e+00
-1.184999999999999964e+01
1.778999999999999915e+01
6.120000000000000107e+00
-5.860000000000000320e+00
-1.976999999999999957e+01
-6.379999999999999893e+00
-1.832999999999999829e+01
-2.290000000000000036e+00
2.242000000000000171e+01
2.142000000000000171e+01
1.882999999999999829e+01
-1.061999999999999922e+01
-0.000000000000000000e+00
-2.529999999999999805e+00
-2.898999999999999844e+01
2.071999999999999886e+01
-7.750000000000000000e+00
-2.201999999999999957e+01
1.635999999999999943e+01
5.740000000000000213e+00
-4.580000000000000071e+00
8.250000000000000000e+00
-2.023000000000000043e+01
-1.155000000000000071e+01
-4.043999999999999773e+01
1.176999999999999957e+01
8.650000000000000355e+00
-1.719999999999999973e+00
2.017999999999999972e+01
1.673999999999999844e+01
-9.650000000000000355e+00
-2.048000000000000043e+01
1.421000000000000085e+01
-1.233999999999999986e+01
-1.577999999999999936e+01
3.178000000000000114e+01
8.900000000000000355e+00
-1.532000000000000028e+01
1.492999999999999972e+01
-5.540000000000000036e+00
2.012000000000000099e+01
-4.139000000000000057e+01
2.832999999999999829e+01
-2.912999999999999901e+01
-7.910000000000000142e+00
-2.421000000000000085e+01
2.167000000000000171e+01
1.185999999999999943e+01
-5.179999999999999716e+00
1.875000000000000000e+01
-4.959999999999999964e+00
-4.700000000000000178e+00
-1.570000000000000062e+00
5.839999999999999858e+00
-4.349999999999999645e+00
-2.235000000000000142e+01
1.527999999999999936e+01
9.799999999999999822e-01
-2.114000000000000057e+01
3.720000000000000195e+00
1.278999999999999915e+01
1.300000000000000044e-01
-6.940000000000000391e+00
8.119999999999999218e+00
5.480000000000000426e+00
-2.430000000000000071e+01
1.549000000000000021e+01
3.439999999999999947e+00
-1.669999999999999929e+01
4.492999999999999972e+01
-2.721000000000000085e+01
1.130000000000000071e+01
-2.526000000000000156e+01
2.289000000000000057e+01
-1.935000000000000142e+01
1.000000000000000056e-01
7.459999999999999964e+00
1.229999999999999982e+00
-1.905999999999999872e+01
2.144999999999999929e+01
1.221000000000000085e+01
3.430000000000000160e+00
8.169999999999999929e+00
-5.679999999999999716e+00
5.980000000000000426e+00
-2.137000000000000099e+01
2.112000000000000099e+01
1.163000000000000078e+01
-3.807999999999999829e+01
-1.644000000000000128e+01
1.042999999999999972e+01
-1.152999999999999936e+01
-1.441999999999999993e+01
1.985000000000000142e+01
-4.268999999999999773e+01
-1.208999999999999986e+01
4.642000000000000171e+01
3.382999999999999829e+01
-3.123000000000000043e+01
1.294999999999999929e+01
2.139999999999999858e+01
-8.929999999999999716e+00
-3.135000000000000142e+01
-3.470000000000000195e+00
7.719999999999999751e+00
8.480000000000000426e+00
2.832999999999999829e+01
1.750000000000000000e+01
1.659999999999999920e+00
-2.385000000000000142e+01
3.026000000000000156e+01
1.817999999999999972e+01
-2.501999999999999957e+01
1.750000000000000000e+01
-1.048000000000000043e+01
-1.546000000000000085e+01
2.951000000000000156e+01
1.172000000000000064e+01
-9.300000000000000488e-01
-1.590000000000000036e+01
1.250000000000000000e+01
-4.500000000000000111e-01
-2.287999999999999901e+01
2.048999999999999844e+01
7.160000000000000142e+00
-1.333000000000000007e+01
-3.496999999999999886e+01
2.526000000000000156e+01
1.415000000000000036e+01
-7.820000000000000284e+00
1.108000000000000007e+01
8.150000000000000355e+00
-8.859999999999999432e+00
-3.116000000000000014e+01
1.465000000000000036e+01
-1.820000000000000062e+00
-3.029999999999999805e+00
1.016999999999999993e+01
2.005000000000000071e+01
-5.690000000000000391e+00
-3.098000000000000043e+01
2.100000000000000000e+01
-1.409999999999999920e+00
-2.605999999999999872e+01
-3.689000000000000057e+01
-1.203999999999999915e+01
1.782000000000000028e+01
-1.489000000000000057e+01
6.842000000000000171e+01
2.292999999999999972e+01
1.256000000000000050e+01
9.489000000000000057e+01
-2.889999999999999858e+01
-6.934999999999999432e+01
-3.094999999999999929e+01
2.648999999999999844e+01
1.438000000000000078e+01
-8.800000000000000711e+00
2.030999999999999872e+01
1.239999999999999991e+00
-1.446000000000000085e+01
-1.871999999999999886e+01
9.640000000000000568e+00
-1.081000000000000050e+01
-1.449000000000000021e+01
1.453999999999999915e+01
1.696000000000000085e+01
-2.520000000000000018e+00
-5.910000000000000142e+00
4.629999999999999893e+00
-1.133000000000000007e+01
-2.801000000000000156e+01
5.419999999999999929e+00
1.138000000000000078e+01
-2.899999999999999800e-01
2.500000000000000000e-01
1.198000000000000043e+01
-3.939999999999999947e+00
-2.810000000000000142e+01
2.089999999999999858e+01
3.680000000000000160e+00
-1.878999999999999915e+01
2.017000000000000171e+01
1.000999999999999979e+01
-1.126999999999999957e+01
-2.855000000000000071e+01
1.960000000000000142e+01
7.700000000000000178e+00
-1.025000000000000000e+01
2.192999999999999972e+01
4.160000000000000142e+00
-1.252999999999999936e+01
-1.807999999999999829e+01
1.308999999999999986e+01
-1.499999999999999944e-01
-1.885000000000000142e+01
1.032000000000000028e+01
5.959999999999999964e+00
1.700000000000000122e-01
-1.705999999999999872e+01
2.019000000000000128e+01
6.679999999999999716e+00
-1.628000000000000114e+01
1.124000000000000021e+01
6.639999999999999680e+00
-7.299999999999999822e+00
-3.500999999999999801e+01
1.516999999999999993e+01
1.180000000000000071e+01
-4.830000000000000071e+00
2.460000000000000142e+01
4.389999999999999680e+00
-1.183000000000000007e+01
-1.525000000000000000e+01
1.367999999999999972e+01
-5.740000000000000213e+00
-2.589000000000000057e+01
3.560000000000000142e+01
1.302999999999999936e+01
8.369999999999999218e+00
-3.158999999999999986e+01
3.879999999999999893e+00
3.069999999999999840e+00
-1.534999999999999964e+01
2.396000000000000085e+01
-4.440000000000000391e+00
-9.240000000000000213e+00
3.250000000000000000e+00
3.939999999999999858e+01
-2.601999999999999957e+01
-1.823000000000000043e+01
3.062999999999999901e+01
-9.740000000000000213e+00
-2.975000000000000000e+01
3.252000000000000313e+01
1.909999999999999920e+00
-1.130000000000000071e+01
-1.576999999999999957e+01
1.648000000000000043e+01
4.990000000000000213e+00
-2.660000000000000142e+01
3.839000000000000057e+01
-9.390000000000000568e+00
8.029999999999999361e+00
-2.160000000000000142e+00
7.919999999999999929e+00
-2.182000000000000028e+01
-5.485999999999999943e+01
-7.700000000000000178e-01
8.679999999999999716e+00
-6.339999999999999858e+00
2.376000000000000156e+01
4.839999999999999858e+00
-3.920000000000000284e+01
4.028000000000000114e+01
2.240000000000000213e+00
5.990000000000000213e+00
-5.584000000000000341e+01
-1.642000000000000171e+01
2.964000000000000057e+01
-9.099999999999999645e+00
4.006000000000000227e+01
1.440000000000000036e+01
-2.225000000000000000e+01
-8.939999999999999503e+00
2.270000000000000018e+00
1.725000000000000000e+01
-1.782000000000000028e+01
2.639999999999999858e+01
1.348000000000000043e+01
-2.591000000000000014e+01
8.880000000000000782e+00
2.421999999999999886e+01
-3.328999999999999915e+01
-2.621000000000000085e+01
1.612999999999999901e+01
5.440000000000000391e+00
-3.049999999999999822e+00
1.516000000000000014e+01
1.937999999999999901e+01
-7.150000000000000355e+00
-7.000000000000000000e+00
1.564000000000000057e+01
-8.400000000000000355e+00
-3.132000000000000028e+01
1.916000000000000014e+01
2.700000000000000178e+00
-9.250000000000000000e+00
4.389999999999999680e+00
1.612000000000000099e+01
-2.189999999999999947e+00
-2.441000000000000014e+01
2.219999999999999929e+01
3.100000000000000089e+00
-1.319999999999999929e+01
6.610000000000000320e+00
8.810000000000000497e+00
-6.910000000000000142e+00
-3.228000000000000114e+01
1.846000000000000085e+01
1.359999999999999964e+01
-5.030000000000000249e+00
3.299999999999999822e+00
1.107000000000000028e+01
-2.479999999999999982e+00
-2.998000000000000043e+01
1.719999999999999929e+01
5.389999999999999680e+00
-2.348999999999999844e+01
5.419999999999999929e+00
1.493999999999999950e+01
1.260000000000000009e+00
-1.550000000000000000e+01
1.732999999999999829e+01
4.139999999999999680e+00
-1.889999999999999858e+01
1.653000000000000114e+01
7.709999999999999964e+00
-1.268999999999999950e+01
-2.870000000000000107e+00
9.259999999999999787e+00
-9.460000000000000853e+00
-1.814999999999999858e+01
2.862999999999999901e+01
1.428999999999999915e+01
-7.860000000000000320e+00
1.219999999999999973e+00
1.719999999999999973e+00
-3.160999999999999943e+01
-1.832999999999999829e+01
2.736399999999999864e+02
1.262999999999999972e+02
-1.058000000000000007e+01
-1.248100000000000023e+02
-8.114000000000000057e+01
-3.754999999999999716e+01
-3.567999999999999972e+01
-3.729999999999999982e+00
-6.781999999999999318e+01
-7.642000000000000171e+01
3.825000000000000000e+01
-1.045999999999999943e+02
-1.012699999999999960e+02
9.112000000000000455e+01
6.171000000000000085e+01
-1.027800000000000011e+02
3.975000000000000000e+01
7.934000000000000341e+01
-3.218999999999999773e+01
3.946000000000000085e+01
3.571999999999999886e+02
-2.461299999999999955e+02
-1.874900000000000091e+02
4.832000000000000028e+01
3.815999999999999659e+01
-1.857000000000000028e+01
4.477000000000000313e+01
1.247699999999999960e+02
-2.491000000000000014e+01
-6.626999999999999602e+01
-1.350999999999999979e+01
1.730999999999999872e+01
1.383999999999999986e+01
-1.526999999999999957e+01
4.830000000000000071e+00
-2.153000000000000114e+01
-1.103299999999999983e+02
8.923999999999999488e+01
3.525000000000000000e+01
-6.549999999999999822e+00
8.849999999999999645e+00
-4.750000000000000000e+00
-1.416999999999999993e+01
1.632000000000000028e+01
6.080000000000000071e+00
-1.224000000000000021e+01
-6.940000000000000391e+00
1.819000000000000128e+01
-2.069999999999999840e+00
-1.626999999999999957e+01
1.501999999999999957e+01
-1.175000000000000000e+01
-5.314000000000000057e+01
3.221000000000000085e+01
1.513000000000000078e+01
-2.239999999999999858e+01
1.803000000000000114e+01
2.791000000000000014e+01
-1.085999999999999943e+01
6.889999999999999680e+00
3.360999999999999943e+01
-4.400000000000000022e-01
-4.322999999999999687e+01
4.050000000000000000e+01
2.608999999999999986e+01
-3.252000000000000313e+01
3.268999999999999773e+01
1.873000000000000043e+01
-1.801000000000000156e+01
-2.441000000000000014e+01
4.503999999999999915e+01
7.769999999999999574e+00
-4.724000000000000199e+01
2.932000000000000028e+01
1.601000000000000156e+01
-2.014999999999999858e+01
-1.330000000000000071e+00
2.664000000000000057e+01
2.779999999999999805e+00
-2.903000000000000114e+01
3.360999999999999943e+01
2.410000000000000142e+00
-2.885000000000000142e+01
-2.964999999999999858e+01
2.580999999999999872e+01
9.320000000000000284e+00
-3.710000000000000142e+01
2.375000000000000000e+01
9.089999999999999858e+00
-3.200000000000000000e+01
-1.365000000000000036e+01
1.975000000000000000e+01
8.320000000000000284e+00
-2.805000000000000071e+01
2.307999999999999829e+01
1.153999999999999915e+01
-1.433000000000000007e+01
-4.240000000000000213e+00
1.719999999999999929e+01
1.900000000000000022e-01
-3.809000000000000341e+01
2.232999999999999829e+01
1.166999999999999993e+01
-2.101000000000000156e+01
-2.403999999999999915e+01
2.557999999999999829e+01
8.000000000000000000e+00
-2.548000000000000043e+01
2.437999999999999901e+01
1.987000000000000099e+01
-1.992999999999999972e+01
-1.566999999999999993e+01
2.026999999999999957e+01
-2.100000000000000089e+00
-3.584000000000000341e+01
2.519000000000000128e+01
2.251000000000000156e+01
-1.742000000000000171e+01
-3.135000000000000142e+01
1.424000000000000021e+01
2.919999999999999929e+00
-8.169999999999999929e+00
3.978000000000000114e+01
-5.689999999999999858e+01
-1.410699999999999932e+02
1.248400000000000034e+02
1.988400000000000034e+02
-1.209999999999999964e+01
-1.217300000000000040e+02
-7.353000000000000114e+01
3.175000000000000000e+01
-5.999000000000000199e+01
-7.139999999999999680e+00
2.837999999999999901e+01
2.060000000000000053e+00
5.236999999999999744e+01
-1.632999999999999829e+01
-3.158999999999999986e+01
7.242000000000000171e+01
7.445000000000000284e+01
-1.960999999999999943e+01
-7.660999999999999943e+01
5.225999999999999801e+01
5.838000000000000256e+01
-2.258999999999999986e+01
-1.061599999999999966e+02
8.000000000000000167e-02
2.851000000000000156e+01
2.546999999999999886e+01
3.953999999999999915e+01
-7.195999999999999375e+01
1.131000000000000050e+01
4.682999999999999829e+01
1.530000000000000027e+00
-4.757999999999999829e+01
2.785999999999999943e+01
-1.152999999999999936e+01
-3.025000000000000000e+01
2.837999999999999901e+01
4.699999999999999734e-01
2.282999999999999829e+01
2.195200000000000102e+02
6.479000000000000625e+01
-1.567500000000000000e+02
-1.316200000000000045e+02
-6.343999999999999773e+01
-6.673999999999999488e+01
-5.469999999999999751e+00
-2.296000000000000085e+01
-2.069000000000000128e+01
-1.207099999999999937e+02
4.110000000000000142e+01
-2.229999999999999982e+00
-2.085999999999999943e+01
1.439900000000000091e+02
1.076400000000000006e+02
-2.078999999999999915e+01
-9.993999999999999773e+01
-2.046000000000000085e+01
-3.432000000000000028e+01
-1.687999999999999901e+01
1.525999999999999979e+01
-1.206000000000000050e+01
-3.985000000000000142e+01
-2.850000000000000089e+00
2.016000000000000014e+01
-2.871999999999999886e+01
3.997999999999999687e+01
2.530000000000000071e+01
4.309999999999999609e+00
4.453000000000000114e+01
-4.204999999999999716e+01
-5.953999999999999915e+01
5.428000000000000114e+01
-3.457000000000000028e+01
-1.075000000000000000e+01
3.044000000000000128e+01
5.589999999999999858e+00
-7.879000000000000625e+01
2.258999999999999986e+01
4.406000000000000227e+01
-3.549000000000000199e+01
3.334000000000000341e+01
4.939000000000000057e+01
2.342000000000000171e+01
5.228999999999999915e+01
7.131000000000000227e+01
-1.654600000000000080e+02
-4.317999999999999972e+01
1.197000000000000028e+02
4.346999999999999886e+01
1.789000000000000057e+01
8.580000000000000071e+00
-4.988000000000000256e+01
4.919999999999999929e+00
2.607000000000000028e+01
-6.906999999999999318e+01
-5.589999999999999858e+00
7.800000000000000266e-01
-2.957999999999999829e+01
2.250000000000000000e+01
1.628999999999999915e+01
-3.532999999999999829e+01
2.589999999999999858e+01
2.210999999999999943e+01
-1.821999999999999886e+01
-4.477000000000000313e+01
3.718999999999999773e+01
1.648000000000000043e+01
-2.894999999999999929e+01
-4.509999999999999787e+00
2.630999999999999872e+01
2.879999999999999893e+00
-4.867000000000000171e+01
3.611999999999999744e+01
1.593999999999999950e+01
-1.384999999999999964e+01
-4.236999999999999744e+01
2.923999999999999844e+01
1.256000000000000050e+01
-2.642000000000000171e+01
-8.189999999999999503e+00
2.305000000000000071e+01
2.479999999999999982e+00
-4.154999999999999716e+01
3.352000000000000313e+01
2.448999999999999844e+01
-1.263000000000000078e+01
-4.271000000000000085e+01
2.471999999999999886e+01
8.759999999999999787e+00
-4.214999999999999858e+01
3.180999999999999872e+01
1.969000000000000128e+01
-3.012999999999999901e+01
-4.080000000000000071e+00
3.822999999999999687e+01
-4.530000000000000249e+00
-6.971999999999999886e+01
4.852000000000000313e+01
2.823000000000000043e+01
-3.984000000000000341e+01
8.470000000000000639e+00
5.074000000000000199e+01
7.299999999999999822e-01
-6.389000000000000057e+01
4.922999999999999687e+01
4.460000000000000142e+01
-9.145000000000000284e+01
4.484000000000000341e+01
5.800999999999999801e+01
-2.517000000000000171e+01
-3.470000000000000284e+01
1.266999999999999993e+01
3.141000000000000014e+01
-7.634000000000000341e+01
1.730999999999999872e+01
3.361999999999999744e+01
-1.755000000000000071e+01
1.726000000000000156e+01
3.436399999999999864e+02
-2.726399999999999864e+02
-1.273799999999999955e+02
5.704999999999999716e+01
2.017999999999999972e+01
-5.410000000000000142e+01
6.027000000000000313e+01
3.871000000000000085e+01
-5.431000000000000227e+01
-4.765999999999999659e+01
1.218400000000000034e+02
6.679000000000000625e+01
-1.023799999999999955e+02
-1.662999999999999901e+01
3.217999999999999972e+01
-4.669999999999999929e+00
6.240999999999999659e+01
-7.669999999999999929e+00
6.709999999999999964e+00
-7.195999999999999375e+01
-1.967000000000000171e+01
-6.950000000000000178e+00
-1.139000000000000057e+01
4.663000000000000256e+01
6.820000000000000284e+00
-6.890999999999999659e+01
5.538000000000000256e+01
1.358999999999999986e+01
-2.982999999999999829e+01
6.240000000000000213e+00
4.057999999999999829e+01
-1.637999999999999901e+01
5.500000000000000000e+00
2.042999999999999972e+01
-1.600000000000000033e-01
8.910000000000000142e+00
4.596000000000000085e+01
-1.832999999999999829e+01
-8.321999999999999886e+01
3.860999999999999943e+01
1.233999999999999986e+01
-4.809999999999999609e+00
1.850000000000000000e+01
2.042000000000000171e+01
-2.169999999999999929e+00
-1.359999999999999964e+01
1.846000000000000085e+01
4.540000000000000036e+00
-1.628000000000000114e+01
3.749000000000000199e+01
-5.999999999999999778e-01
-2.464999999999999858e+01
-2.729999999999999982e+00
7.269999999999999574e+00
-2.819999999999999840e+00
-4.850000000000000000e+01
2.917999999999999972e+01
2.012999999999999901e+01
-1.181000000000000050e+01
7.800000000000000266e-01
1.307000000000000028e+01
-6.589999999999999858e+00
-6.400000000000000355e+00
-4.459999999999999964e+00
-1.664999999999999858e+01
-3.025000000000000000e+01
3.639000000000000057e+01
1.349000000000000021e+01
-2.276999999999999957e+01
-1.016000000000000014e+01
-4.959999999999999964e+00
-1.066000000000000014e+01
3.109999999999999876e+00
2.492999999999999972e+01
-1.527999999999999936e+01
-1.543999999999999950e+01
2.710000000000000142e+01
1.325999999999999979e+01
-2.758999999999999986e+01
-1.260000000000000009e+00
1.179999999999999938e+00
-2.509999999999999787e+00
-3.126999999999999957e+01
4.235000000000000142e+01
1.832999999999999829e+01
-4.160999999999999943e+01
-6.049999999999999822e+00
9.531999999999999318e+01
1.716299999999999955e+02
-8.699999999999999289e+00
-4.200000000000000000e+01
-4.338000000000000256e+01
6.675000000000000000e+01
7.304999999999999716e+01
-1.308499999999999943e+02
-2.181399999999999864e+02
6.718000000000000682e+01
4.646999999999999886e+01
-1.709099999999999966e+02
1.966999999999999886e+02
3.080000000000000071e+00
1.572000000000000064e+01
-8.712000000000000455e+01
-1.444099999999999966e+02
-9.101999999999999602e+01
4.068899999999999864e+02
2.800400000000000205e+02
-3.633799999999999955e+02
-1.183900000000000006e+02
2.237400000000000091e+02
7.414000000000000057e+01
-2.680000000000000071e+01
-7.831999999999999318e+01
-8.040000000000000568e+01
1.914000000000000057e+01
1.036200000000000045e+02
2.188499999999999943e+02
-5.900000000000000000e+01
-8.165999999999999659e+01
8.215999999999999659e+01
4.417999999999999972e+01
-8.903000000000000114e+01
8.937999999999999545e+01
-5.507999999999999829e+01
9.990000000000000213e+00
2.594000000000000128e+01
1.324000000000000021e+01
2.212999999999999901e+01
2.637999999999999901e+01
1.098700000000000045e+02
1.354399999999999977e+02
-8.079000000000000625e+01
-1.157099999999999937e+02
-1.598000000000000043e+01
-3.428999999999999915e+01
-1.350699999999999932e+02
5.636999999999999744e+01
-3.803999999999999915e+01
-1.447400000000000091e+02
5.775000000000000000e+01
2.616000000000000014e+01
-2.358999999999999986e+01
3.176999999999999957e+01
1.558000000000000007e+01
-2.610999999999999943e+01
3.267999999999999972e+01
1.186999999999999922e+01
-1.626999999999999957e+01
-4.139999999999999680e+00
1.143199999999999932e+02
2.218100000000000023e+02
-1.470800000000000125e+02
-6.853000000000000114e+01
2.469999999999999929e+01
-4.268999999999999773e+01
-7.653000000000000114e+01
9.159000000000000341e+01
-2.430999999999999872e+01
-1.801899999999999977e+02
-1.208400000000000034e+02
1.201700000000000017e+02
2.444699999999999989e+02
1.212099999999999937e+02
4.728999999999999915e+01
-1.351500000000000057e+02
-2.167100000000000080e+02
-7.120000000000000284e+01
-1.031299999999999955e+02
-1.492299999999999898e+02
9.773999999999999488e+01
5.628000000000000114e+01
-2.400000000000000000e+01
1.064000000000000057e+02
4.870000000000000284e+01
-6.796999999999999886e+01
8.887000000000000455e+01
5.159000000000000341e+01
-2.050000000000000000e+01
3.682999999999999829e+01
8.567000000000000171e+01
5.010999999999999943e+01
1.538000000000000078e+01
5.038000000000000256e+01
7.320000000000000284e+00
3.634000000000000341e+01
-4.931000000000000227e+01
-7.726999999999999602e+01
1.876999999999999957e+01
-2.135699999999999932e+02
-4.013000000000000256e+01
4.415999999999999659e+01
-9.868000000000000682e+01
-4.190999999999999659e+01
2.168000000000000114e+02
1.821000000000000085e+01
4.134000000000000341e+01
-3.478999999999999915e+01
-9.545999999999999375e+01
9.500000000000000000e+00
-4.020000000000000284e+01
-9.234999999999999432e+01
1.320900000000000034e+02
2.606399999999999864e+02
1.320699999999999932e+02
-3.886100000000000136e+02
-9.393999999999999773e+01
-1.230499999999999972e+02
1.043299999999999983e+02
-1.969999999999999929e+01
2.400300000000000011e+02
-3.790000000000000036e+00
-3.327000000000000313e+01
-4.714000000000000057e+01
-1.331299999999999955e+02
6.601999999999999602e+01
1.855399999999999920e+02
-1.069699999999999989e+02
3.470000000000000284e+01
-9.826000000000000512e+01
-1.929999999999999938e+00
-5.690999999999999659e+01
1.053400000000000034e+02
2.580999999999999872e+01
3.892999999999999972e+01
-4.959000000000000341e+01
-1.362599999999999909e+02
9.867000000000000171e+01
1.632899999999999920e+02
-1.804699999999999989e+02
1.748999999999999844e+01
1.425800000000000125e+02
3.098100000000000023e+02
-3.039599999999999795e+02
-8.570000000000000284e+01
-9.345999999999999375e+01
-4.884000000000000341e+01
-1.145300000000000011e+02
1.804099999999999966e+02
-7.443000000000000682e+01
9.806000000000000227e+01
4.190000000000000391e+00
-7.785999999999999943e+01
6.189000000000000057e+01
6.837000000000000455e+01
3.725500000000000114e+02
4.781000000000000227e+01
-7.454000000000000625e+01
-2.484300000000000068e+02
-2.414000000000000057e+01
-1.117900000000000063e+02
-2.838799999999999955e+02
2.134399999999999977e+02
1.207199999999999989e+02
1.132699999999999960e+02
5.164999999999999858e+01
-4.741899999999999977e+02
-2.882500000000000000e+02
2.669700000000000273e+02
6.718000000000000682e+01
-1.946999999999999886e+01
7.820999999999999375e+01
9.932999999999999829e+01
1.632599999999999909e+02
2.612799999999999727e+02
2.258999999999999986e+01
-3.431000000000000227e+02
-2.505999999999999872e+01
1.225199999999999960e+02
-5.950000000000000000e+01
3.870000000000000284e+01
-5.975999999999999801e+01
-2.831499999999999773e+02
1.760500000000000114e+02
2.000900000000000034e+02
-8.664000000000000057e+01
-5.684000000000000341e+01
3.235000000000000142e+01
9.310000000000000497e+00
-5.702000000000000313e+01
2.569999999999999840e+00
6.621999999999999886e+01
-7.451000000000000512e+01
-9.118999999999999773e+01
1.143999999999999950e+01
-2.620000000000000107e+00
-1.232000000000000028e+01
-2.564999999999999858e+01
4.160999999999999943e+01
2.571999999999999886e+01
-2.446999999999999886e+01
4.171999999999999886e+01
3.117000000000000171e+01
-7.269999999999999574e+00
-6.299999999999999822e+00
2.700000000000000000e+01
6.019999999999999574e+00
-2.678000000000000114e+01
1.771000000000000085e+01
7.879999999999999893e+00
-2.094999999999999929e+01
1.524000000000000021e+01
6.209999999999999964e+00
-1.630000000000000071e+01
9.830000000000000071e+00
1.617000000000000171e+01
0.000000000000000000e+00
-1.051999999999999957e+01
1.651999999999999957e+01
-3.560000000000000053e+00
-2.601000000000000156e+01
1.522000000000000064e+01
8.929999999999999716e+00
-1.426999999999999957e+01
-6.400000000000000133e-01
1.273000000000000043e+01
-4.830000000000000071e+00
-3.014000000000000057e+01
2.167999999999999972e+01
3.080000000000000071e+00
-1.962999999999999901e+01
-4.000000000000000083e-02
1.948000000000000043e+01
-2.700000000000000178e-01
-2.980000000000000071e+01
1.637000000000000099e+01
1.140000000000000036e+01
-1.421000000000000085e+01
-1.803000000000000114e+01
1.748000000000000043e+01
-2.500000000000000000e-01
-3.071999999999999886e+01
8.140000000000000568e+00
-7.299999999999999822e+00
3.930000000000000160e+00
2.053999999999999915e+01
2.007999999999999829e+01
-2.140000000000000124e+00
-2.839999999999999858e+01
1.801000000000000156e+01
9.250000000000000000e+00
-1.389000000000000057e+01
-1.459999999999999964e+00
1.433999999999999986e+01
-2.310000000000000053e+00
-2.860999999999999943e+01
1.460999999999999943e+01
8.009999999999999787e+00
-9.529999999999999361e+00
-1.247000000000000064e+01
1.735999999999999943e+01
8.839999999999999858e+00
-2.062000000000000099e+01
4.780000000000000249e+00
1.285999999999999943e+01
-1.459999999999999964e+01
-3.446999999999999886e+01
1.935999999999999943e+01
2.680999999999999872e+01
-2.112999999999999901e+01
1.550000000000000044e+00
2.367999999999999972e+01
-4.870000000000000107e+00
-3.771999999999999886e+01
2.451999999999999957e+01
9.669999999999999929e+00
-3.071000000000000085e+01
2.423000000000000043e+01
1.842000000000000171e+01
-3.020000000000000018e+00
-2.048999999999999844e+01
1.987000000000000099e+01
5.740000000000000213e+00
-2.951000000000000156e+01
1.692000000000000171e+01
1.669000000000000128e+01
-1.819999999999999929e+01
-7.610000000000000320e+00
1.998999999999999844e+01
4.849999999999999645e+00
-3.832000000000000028e+01
2.408999999999999986e+01
1.126999999999999957e+01
-2.217999999999999972e+01
1.948999999999999844e+01
1.664000000000000057e+01
-1.359999999999999964e+01
-1.318999999999999950e+01
2.573999999999999844e+01
9.300000000000000488e-01
-2.757999999999999829e+01
1.994999999999999929e+01
1.481000000000000050e+01
-1.769999999999999929e+01
-2.451000000000000156e+01
2.630999999999999872e+01
1.561999999999999922e+01
-3.094999999999999929e+01
1.709999999999999964e+00
1.885000000000000142e+01
-5.089999999999999858e+00
-2.410000000000000142e+01
1.201999999999999957e+01
6.660000000000000142e+00
-1.646000000000000085e+01
1.816000000000000014e+01
1.032000000000000028e+01
-1.698000000000000043e+01
9.899999999999999911e-01
2.216000000000000014e+01
-2.649999999999999911e+00
-3.332999999999999829e+01
1.292999999999999972e+01
7.178000000000000114e+01
1.192300000000000040e+02
3.285000000000000142e+01
-2.426699999999999875e+02
-5.446000000000000085e+01
4.899000000000000199e+01
9.212999999999999545e+01
3.467999999999999972e+01
-1.013199999999999932e+02
-6.277000000000000313e+01
-4.778000000000000114e+01
-9.660999999999999943e+01
6.479000000000000625e+01
3.164000000000000057e+01
-1.250199999999999960e+02
-1.894999999999999929e+01
4.896000000000000085e+01
1.444999999999999929e+01
-6.064999999999999858e+01
-2.620000000000000107e+00
3.238000000000000256e+01
-5.959999999999999964e+00
-5.785999999999999943e+01
9.404999999999999716e+01
5.807000000000000028e+01
-1.124399999999999977e+02
-6.375000000000000000e+01
-2.901000000000000156e+01
3.471000000000000085e+01
1.268599999999999994e+02
6.885999999999999943e+01
-4.574000000000000199e+01
4.074000000000000199e+01
1.351999999999999957e+01
-1.374000000000000021e+01
2.587999999999999901e+01
7.009999999999999787e+00
-3.521000000000000085e+01
1.453999999999999915e+01
4.371999999999999886e+01
-4.389999999999999680e+00
-5.006000000000000227e+01
1.283000000000000007e+01
-1.914000000000000057e+01
-2.225000000000000000e+01
2.912999999999999901e+01
4.307000000000000028e+01
9.919999999999999929e+00
-2.203000000000000114e+01
1.776000000000000156e+01
4.450000000000000178e+00
-1.914000000000000057e+01
-1.134999999999999964e+01
1.867999999999999972e+01
1.646999999999999886e+01
3.017999999999999972e+01
1.984199999999999875e+02
-1.666399999999999864e+02
-2.826999999999999957e+01
-9.990999999999999659e+01
-4.242000000000000171e+01
-1.912999999999999901e+01
-9.590000000000000568e+01
-1.530000000000000071e+01
-2.083999999999999986e+01
-5.285999999999999943e+01
-3.907000000000000028e+01
2.259999999999999787e+00
-3.288000000000000256e+01
-6.576000000000000512e+01
5.025999999999999801e+01
1.076200000000000045e+02
-1.226999999999999957e+01
-5.240999999999999659e+01
7.878000000000000114e+01
5.207000000000000028e+01
-2.794999999999999929e+01
2.673999999999999844e+01
1.956800000000000068e+02
6.993000000000000682e+01
-1.427700000000000102e+02
-5.381000000000000227e+01
-5.209000000000000341e+01
-1.205199999999999960e+02
4.903000000000000114e+01
4.578000000000000114e+01
1.541999999999999993e+01
8.140999999999999659e+01
1.057699999999999960e+02
6.282000000000000028e+01
-2.178199999999999932e+02
-1.089300000000000068e+02
-1.850300000000000011e+02
-1.021000000000000085e+01
1.159699999999999989e+02
2.330000000000000071e+01
-5.882999999999999829e+01
2.566000000000000014e+01
-5.240000000000000213e+00
5.352000000000000313e+01
-6.478000000000000114e+01
7.026000000000000512e+01
5.600999999999999801e+01
-2.285999999999999943e+01
-2.742000000000000171e+01
5.335999999999999943e+01
2.521999999999999886e+01
-9.015999999999999659e+01
4.110000000000000142e+01
-1.646000000000000085e+01
-1.359099999999999966e+02
2.326000000000000156e+01
1.121099999999999994e+02
5.589999999999999858e+00
-1.946999999999999886e+01
7.484999999999999432e+01
2.560000000000000142e+01
-7.834000000000000341e+01
6.071999999999999886e+01
4.750999999999999801e+01
-1.074000000000000021e+01
7.660000000000000142e+00
3.295000000000000284e+01
6.860000000000000320e+00
-3.496000000000000085e+01
4.928999999999999915e+01
8.681000000000000227e+01
-6.762999999999999545e+01
-1.829399999999999977e+02
1.061200000000000045e+02
5.625999999999999801e+01
3.974000000000000199e+01
-8.015000000000000568e+01
-2.864999999999999858e+01
-6.668000000000000682e+01
3.311999999999999744e+01
3.139999999999999858e+01
-7.703000000000000114e+01
2.773000000000000043e+01
4.443999999999999773e+01
-3.240000000000000213e+00
2.250000000000000000e+01
6.995999999999999375e+01
-3.017999999999999972e+01
-1.129999999999999893e+00
4.157000000000000028e+01
-4.036999999999999744e+01
-8.473999999999999488e+01
3.564999999999999858e+01
1.610999999999999943e+01
-1.625800000000000125e+02
-1.089000000000000057e+01
-2.678999999999999915e+01
-2.737999999999999901e+01
9.460000000000000853e+00
2.100000000000000000e+01
-2.300000000000000000e+01
-6.032000000000000028e+01
1.409999999999999964e+01
-3.629999999999999893e+00
-4.261999999999999744e+01
5.659000000000000341e+01
4.475000000000000000e+01
-4.110999999999999943e+01
1.134999999999999964e+01
2.669999999999999929e+00
-2.030999999999999872e+01
2.232000000000000028e+01
1.964000000000000057e+01
-2.800000000000000000e+01
-2.129999999999999893e+00
8.300000000000000000e+01
1.127300000000000040e+02
-1.722899999999999920e+02
-8.259000000000000341e+01
-2.396999999999999886e+01
2.160000000000000142e+00
9.573999999999999488e+01
-2.696999999999999886e+01
-6.271000000000000085e+01
-4.721000000000000085e+01
-9.300000000000000711e+00
1.300000000000000044e+00
-2.166000000000000014e+01
-7.240000000000000213e+00
-1.010000000000000009e+00
-1.508999999999999986e+01
-2.221999999999999886e+01
4.339000000000000057e+01
2.794999999999999929e+01
-2.685000000000000142e+01
1.400999999999999979e+01
1.583000000000000007e+01
-1.555000000000000071e+01
-7.870000000000000107e+00
1.594999999999999929e+01
-5.302000000000000313e+01
-4.163000000000000256e+01
4.079999999999999716e+01
1.541000000000000014e+01
-4.942000000000000171e+01
3.238000000000000256e+01
1.125000000000000000e+01
-3.442999999999999972e+01
2.923999999999999844e+01
1.726999999999999957e+01
-9.830000000000000071e+00
-1.351999999999999957e+01
3.564999999999999858e+01
1.324000000000000021e+01
-5.632000000000000028e+01
2.471999999999999886e+01
1.597000000000000064e+01
-1.771000000000000085e+01
4.169999999999999929e+00
6.915999999999999659e+01
-2.542999999999999972e+01
-1.060300000000000011e+02
2.075000000000000000e+01
8.359999999999999432e+00
-4.878000000000000114e+01
4.328000000000000114e+01
-1.194999999999999929e+01
-1.274000000000000021e+01
-2.971999999999999886e+01
3.432999999999999829e+01
5.389999999999999680e+00
-2.039000000000000057e+01
1.428999999999999915e+01
3.365999999999999659e+01
-3.450000000000000178e+00
-4.760999999999999943e+01
3.017000000000000171e+01
7.610000000000000320e+00
-1.053199999999999932e+02
7.409000000000000341e+01
8.484000000000000341e+01
-7.904999999999999716e+01
-1.540000000000000036e+01
6.040000000000000036e+00
4.009999999999999787e+00
-3.982000000000000028e+01
2.553999999999999915e+01
2.051999999999999957e+01
-1.667000000000000171e+01
2.344000000000000128e+01
1.844000000000000128e+01
-6.769999999999999574e+00
2.996000000000000085e+01
1.365600000000000023e+02
2.764900000000000091e+02
-2.254900000000000091e+02
-1.555399999999999920e+02
-4.571000000000000085e+01
-7.706000000000000227e+01
2.664999999999999858e+01
2.157999999999999829e+01
-5.830000000000000071e+00
-3.740999999999999659e+01
-1.320000000000000062e+00
1.322000000000000064e+01
2.260999999999999943e+01
-2.269999999999999929e+01
1.951999999999999957e+01
2.355000000000000071e+01
3.990000000000000213e+00
-1.919000000000000128e+01
6.879999999999999893e+00
5.700000000000000178e+00
-1.018999999999999950e+01
-1.929999999999999938e+00
1.147000000000000064e+01
1.560000000000000053e+00
-1.742000000000000171e+01
1.550000000000000000e+01
1.707000000000000028e+01
-8.160000000000000142e+00
-1.141999999999999993e+01
1.896999999999999886e+01
1.773000000000000043e+01
-5.570000000000000284e+00
5.078999999999999915e+01
2.044999999999999929e+01
-4.106000000000000227e+01
-3.752000000000000313e+01
1.433999999999999986e+01
-6.870000000000000107e+00
2.632999999999999829e+01
1.704499999999999886e+02
-4.899999999999999911e-01
-4.270000000000000284e+01
-7.481999999999999318e+01
-2.667000000000000171e+01
-3.775000000000000000e+01
2.603000000000000114e+01
5.617999999999999972e+01
-9.318999999999999773e+01
-5.699000000000000199e+01
6.218999999999999773e+01
-2.362000000000000099e+01
2.930000000000000160e+00
2.450000000000000000e+01
1.187000000000000028e+02
-1.398000000000000043e+01
-2.094000000000000128e+01
-7.089999999999999858e+00
9.009999999999999787e+00
-4.692000000000000171e+01
6.459999999999999964e+00
1.755300000000000011e+02
1.296200000000000045e+02
-8.026000000000000512e+01
-7.234999999999999432e+01
-5.839000000000000057e+01
-3.818999999999999773e+01
-1.712000000000000099e+01
-3.238000000000000256e+01
-6.893999999999999773e+01
-2.855999999999999872e+01
-3.853000000000000114e+01
2.610400000000000205e+02
9.668000000000000682e+01
-2.416899999999999977e+02
-1.092999999999999972e+01
6.125000000000000000e+01
5.290000000000000036e+00
-2.733999999999999986e+01
6.987000000000000455e+01
3.767999999999999972e+01
-3.062999999999999901e+01
-3.540000000000000036e+00
-1.812000000000000099e+01
-7.623999999999999488e+01
-1.644999999999999929e+01
-1.150999999999999979e+01
-6.745999999999999375e+01
6.136999999999999744e+01
7.801999999999999602e+01
-1.189000000000000057e+01
-7.331000000000000227e+01
3.235999999999999943e+01
-1.348000000000000043e+01
-1.307400000000000091e+02
1.471899999999999977e+02
-3.981000000000000227e+01
-1.332400000000000091e+02
3.653999999999999915e+01
4.878000000000000114e+01
2.632999999999999829e+01
-7.146999999999999886e+01
1.514900000000000091e+02
9.973999999999999488e+01
-1.141000000000000014e+01
-2.876000000000000156e+01
6.778000000000000114e+01
2.601000000000000156e+01
-7.820000000000000284e+00
-7.830000000000000071e+00
8.919999999999999929e+00
2.720000000000000195e+00
-3.570000000000000284e+01
8.156000000000000227e+01
-3.001000000000000156e+01
-8.993000000000000682e+01
-3.859999999999999876e+00
5.360999999999999943e+01
-4.169999999999999929e+00
-5.528999999999999915e+01
5.754999999999999716e+01
-2.692999999999999972e+01
-1.607000000000000028e+01
1.614000000000000057e+01
-1.571000000000000085e+01
-4.200000000000000178e+00
-2.135000000000000142e+01
-5.071000000000000085e+01
-9.029999999999999361e+00
-1.055400000000000063e+02
6.931000000000000227e+01
-7.549999999999999822e+00
1.474799999999999898e+02
5.735000000000000142e+01
-1.137199999999999989e+02
-7.848000000000000398e+01
-4.707999999999999829e+01
2.178000000000000114e+01
8.689999999999999503e+00
-1.119999999999999929e+01
2.858999999999999773e+02
-1.183400000000000034e+02
-1.976000000000000156e+01
-2.628999999999999915e+01
1.500000000000000000e+00
1.493999999999999950e+01
-6.156000000000000227e+01
3.492000000000000171e+01
5.188000000000000256e+01
-1.850000000000000089e+00
6.673000000000000398e+01
-8.309999999999999432e+01
-1.782999999999999829e+01
-6.895000000000000284e+01
-6.693999999999999773e+01
2.951999999999999957e+01
1.778999999999999915e+01
-4.392999999999999972e+01
2.757999999999999829e+01
2.610000000000000142e+01
8.970000000000000639e+00
3.709999999999999964e+00
-6.469999999999999751e+00
2.546000000000000085e+01
-1.883999999999999986e+01
2.549999999999999822e+00
2.850000000000000089e+00
3.899999999999999911e+00
6.377000000000000313e+01
-2.269000000000000128e+01
1.978000000000000114e+01
6.271999999999999886e+01
2.279999999999999805e+00
-8.154000000000000625e+01
-3.286999999999999744e+01
1.166000000000000014e+01
-3.479999999999999716e+01
-8.256000000000000227e+01
2.600000000000000089e-01
-1.198000000000000043e+01
3.235000000000000142e+01
5.309999999999999609e+00
-3.970000000000000195e+00
3.485999999999999943e+01
2.528000000000000114e+01
2.707000000000000028e+01
-5.899000000000000199e+01
-4.910999999999999943e+01
1.775000000000000000e+01
4.227000000000000313e+01
-2.326999999999999957e+01
1.769999999999999929e+01
4.874000000000000199e+01
1.533000000000000007e+01
-2.646999999999999886e+01
3.646000000000000085e+01
1.300999999999999979e+01
-2.569000000000000128e+01
-2.785000000000000142e+01
-9.009999999999999787e+00
1.705999999999999872e+01
1.876000000000000156e+01
4.328999999999999915e+01
-1.642999999999999972e+01
-3.189999999999999858e+01
1.630999999999999872e+01
5.370000000000000107e+00
-3.739999999999999858e+01
-1.496000000000000085e+01
-8.369999999999999218e+00
2.067999999999999972e+01
4.881000000000000227e+01
1.371000000000000085e+01
-1.182000000000000028e+01
-1.642999999999999972e+01
-1.939000000000000057e+01
-2.164999999999999858e+01
-3.600000000000000089e+00
3.379999999999999893e+00
-9.859999999999999432e+00
3.286999999999999744e+01
-1.903000000000000114e+01
2.323000000000000043e+01
1.785000000000000142e+01
-1.742000000000000171e+01
-3.175000000000000000e+01
2.353999999999999915e+01
9.160000000000000142e+00
-1.935999999999999943e+01
2.110999999999999943e+01
2.505000000000000071e+01
-9.480000000000000426e+00
-3.137999999999999901e+01
3.357000000000000028e+01
1.566999999999999993e+01
-4.478000000000000114e+01
-3.008999999999999986e+01
8.859999999999999432e+00
-2.448999999999999844e+01
-8.043000000000000682e+01
4.631000000000000227e+01
5.585000000000000142e+01
5.642999999999999972e+01
-7.062999999999999545e+01
9.899999999999999911e-01
5.400000000000000355e+00
1.996999999999999886e+01
7.589999999999999858e+00
7.060999999999999943e+01
3.800000000000000044e-01
5.030000000000000249e+00
1.225999999999999979e+01
2.928000000000000114e+01
-2.619000000000000128e+01
-4.114999999999999858e+01
-3.360000000000000142e+01
-1.458999999999999986e+01
-2.073999999999999844e+01
-1.971999999999999886e+01
1.530000000000000071e+01
1.360999999999999943e+01
1.540000000000000036e+01
-2.791000000000000014e+01
-8.500000000000000000e+00
-2.330000000000000071e+00
3.264999999999999858e+01
5.610000000000000320e+00
-2.785999999999999943e+01
2.387999999999999901e+01
2.167000000000000171e+01
1.147000000000000064e+01
-3.502000000000000313e+01
-1.510999999999999943e+01
-4.070000000000000284e+01
-2.428999999999999915e+01
5.467000000000000171e+01
8.451000000000000512e+01
-4.164999999999999858e+01
-3.634000000000000341e+01
2.896999999999999886e+01
1.044999999999999929e+01
-2.958999999999999986e+01
9.100000000000000311e-01
7.169999999999999929e+00
1.575999999999999979e+01
-4.825000000000000000e+01
3.725999999999999801e+01
8.419999999999999929e+00
-1.031000000000000050e+01
5.309999999999999609e+00
2.141000000000000014e+01
4.419999999999999929e+00
-3.271999999999999886e+01
1.782999999999999829e+01
7.129999999999999893e+00
-2.898000000000000043e+01
-2.919999999999999929e+01
2.969999999999999929e+01
8.519999999999999574e+00
1.199999999999999956e+00
1.349000000000000021e+01
1.732000000000000028e+01
-1.521000000000000085e+01
-3.293999999999999773e+01
9.060000000000000497e+00
1.381000000000000050e+01
-1.907999999999999829e+01
2.001000000000000156e+01
7.700000000000000178e+00
-1.862000000000000099e+01
-2.660000000000000142e+01
2.898000000000000043e+01
1.158999999999999986e+01
-2.721000000000000085e+01
9.859999999999999432e+00
1.732999999999999829e+01
-4.209999999999999964e+00
-2.914000000000000057e+01
3.285000000000000142e+01
1.518999999999999950e+01
-4.560999999999999943e+01
-2.937999999999999901e+01
3.069999999999999929e+01
8.130000000000000782e+00
-2.355999999999999872e+01
1.914999999999999858e+01
1.293999999999999950e+01
-1.591999999999999993e+01
6.790000000000000036e+00
2.169000000000000128e+01
-1.520000000000000018e+00
-3.371000000000000085e+01
2.594000000000000128e+01
1.060999999999999943e+01
-2.026000000000000156e+01
-5.870000000000000107e+00
1.471000000000000085e+01
7.299999999999999822e-01
-2.846000000000000085e+01
3.896000000000000085e+01
1.898000000000000043e+01
-2.666000000000000014e+01
-6.700000000000000400e-01
1.855000000000000071e+01
-1.484999999999999964e+01
-2.257000000000000028e+01
2.682000000000000028e+01
5.769999999999999574e+00
-2.951000000000000156e+01
1.746000000000000085e+01
2.223000000000000043e+01
-2.017999999999999972e+01
-4.495000000000000284e+01
1.493999999999999950e+01
1.639000000000000057e+01
-3.012999999999999901e+01
1.198000000000000043e+01
1.976000000000000156e+01
-6.959999999999999964e+00
-9.699999999999999289e+00
2.496999999999999886e+01
6.160000000000000142e+00
-3.564000000000000057e+01
1.766000000000000014e+01
1.568999999999999950e+01
-1.032000000000000028e+01
-2.805999999999999872e+01
1.050999999999999979e+01
2.725000000000000000e+01
-2.314000000000000057e+01
3.850000000000000089e+00
4.189000000000000057e+01
-1.203999999999999915e+01
-2.478000000000000114e+01
2.244999999999999929e+01
-2.709999999999999964e+00
-2.260999999999999943e+01
-4.730000000000000426e+00
1.456000000000000050e+01
9.799999999999999822e-01
-3.253000000000000114e+01
2.417999999999999972e+01
1.177999999999999936e+01
-1.541999999999999993e+01
5.339999999999999858e+00
3.653000000000000114e+01
9.279999999999999361e+00
-6.175000000000000000e+01
1.483000000000000007e+01
-1.871999999999999886e+01
1.401999999999999957e+01
4.620000000000000107e+00
3.502000000000000313e+01
7.500000000000000000e+00
-2.764999999999999858e+01
2.401999999999999957e+01
1.685999999999999943e+01
-1.214000000000000057e+01
-2.112999999999999901e+01
2.148999999999999844e+01
-8.499999999999999778e-01
-2.914000000000000057e+01
4.679999999999999716e+00
2.021000000000000085e+01
-4.809999999999999609e+00
-3.293999999999999773e+01
1.807000000000000028e+01
1.698000000000000043e+01
-1.152999999999999936e+01
5.120000000000000107e+00
1.857000000000000028e+01
-5.820000000000000284e+00
-3.925999999999999801e+01
2.192999999999999972e+01
-5.080000000000000071e+00
-2.407000000000000028e+01
-1.285999999999999943e+01
2.950000000000000000e+01
2.640000000000000124e+00
-2.791000000000000014e+01
3.404999999999999716e+01
3.800000000000000044e-01
-3.974000000000000199e+01
1.197000000000000064e+01
4.914999999999999858e+01
-5.775000000000000000e+01
-2.410000000000000142e+00
4.302000000000000313e+01
-2.299999999999999822e+00
-2.514000000000000057e+01
1.426999999999999957e+01
2.585999999999999943e+01
-1.085999999999999943e+01
-2.464000000000000057e+01
1.217999999999999972e+01
-3.790000000000000036e+00
-1.147000000000000064e+01
6.759999999999999787e+00
-1.090000000000000080e+00
-7.017000000000000171e+01
-2.480999999999999872e+01
7.617000000000000171e+01
-1.930999999999999872e+01
-5.081000000000000227e+01
3.354999999999999716e+01
3.396000000000000085e+01
2.600000000000000089e+00
3.173999999999999844e+01
2.005999999999999872e+01
1.851000000000000156e+01
-3.209000000000000341e+01
-7.415000000000000568e+01
-1.308000000000000007e+01
-2.530000000000000071e+01
4.209999999999999964e+00
2.164000000000000057e+01
3.309000000000000341e+01
2.810000000000000142e+01
2.516000000000000014e+01
-5.190999999999999659e+01
1.548000000000000043e+01
4.764000000000000057e+01
6.660000000000000142e+00
-7.087999999999999545e+01
-4.446999999999999886e+01
3.664000000000000057e+01
-3.600999999999999801e+01
-1.116999999999999993e+01
5.267999999999999972e+01
-1.603000000000000114e+01
-6.759999999999999787e+00
1.701000000000000156e+01
7.549999999999999822e+00
-4.375000000000000000e+01
-4.870000000000000107e+00
4.645000000000000284e+01
-3.264999999999999858e+01
-2.625000000000000000e+01
3.203999999999999915e+01
-2.133999999999999986e+01
9.349999999999999645e+00
2.201999999999999957e+01
1.520000000000000018e+00
-2.162000000000000099e+01
1.605999999999999872e+01
-3.599999999999999867e-01
-2.426000000000000156e+01
1.027999999999999936e+01
1.739000000000000057e+01
-1.438000000000000078e+01
-1.733999999999999986e+01
1.575000000000000000e+01
-3.910000000000000142e+00
-2.901000000000000156e+01
2.835999999999999943e+01
-6.709999999999999964e+00
-7.440000000000000568e+01
1.967999999999999972e+01
6.601000000000000512e+01
-1.022000000000000064e+01
-1.939000000000000057e+01
2.810000000000000142e+01
7.490000000000000213e+00
-2.403000000000000114e+01
2.900000000000000000e+01
3.420000000000000284e+01
-1.389999999999999902e+00
-4.465999999999999659e+01
2.394999999999999929e+01
2.123999999999999844e+01
-1.651000000000000156e+01
-1.353999999999999915e+01
3.640000000000000124e+00
-4.820000000000000284e+00
-4.232000000000000028e+01
2.823999999999999844e+01
3.200000000000000067e-01
-2.346000000000000085e+01
8.650000000000000355e+00
2.076000000000000156e+01
-1.185999999999999943e+01
-2.241000000000000014e+01
2.073000000000000043e+01
1.820000000000000062e+00
-2.146000000000000085e+01
1.773999999999999844e+01
1.341000000000000014e+01
-1.136999999999999922e+01
-1.147000000000000064e+01
1.605000000000000071e+01
3.790000000000000036e+00
-2.262000000000000099e+01
2.667000000000000171e+01
1.492999999999999972e+01
-2.357999999999999829e+01
7.429999999999999716e+00
6.830000000000000071e+00
-1.857000000000000028e+01
2.419999999999999929e+01
1.075000000000000000e+01
1.949999999999999956e+00
-1.655000000000000071e+01
6.110999999999999943e+01
-1.072999999999999972e+02
1.000000000000000000e+00
1.964000000000000057e+01
4.389999999999999680e+00
-3.364000000000000057e+01
1.803999999999999915e+01
2.116000000000000014e+01
-7.900000000000000355e-01
-2.680000000000000071e+01
1.976000000000000156e+01
1.620000000000000107e+00
-2.421999999999999886e+01
5.679999999999999716e+00
1.152999999999999936e+01
-6.700000000000000178e+00
-2.055999999999999872e+01
2.196000000000000085e+01
2.209999999999999964e+00
-2.567999999999999972e+01
2.544000000000000128e+01
3.210999999999999943e+01
9.200000000000000400e-01
-3.528000000000000114e+01
-6.204999999999999716e+01
2.444000000000000128e+01
2.567999999999999972e+01
9.029999999999999361e+00
1.308000000000000007e+01
-7.750000000000000000e+00
-8.509999999999999787e+00
2.646000000000000085e+01
1.664999999999999858e+01
-5.347999999999999687e+01
2.458999999999999986e+01
2.978000000000000114e+01
-1.694000000000000128e+01
-3.178000000000000114e+01
2.242999999999999972e+01
6.799999999999999822e+00
-3.295000000000000284e+01
2.353999999999999915e+01
2.628999999999999915e+01
-7.719999999999999751e+00
-3.389999999999999858e+01
4.028000000000000114e+01
4.160000000000000142e+00
-6.406000000000000227e+01
2.435999999999999943e+01
1.475999999999999979e+01
-7.900000000000000355e-01
-3.749000000000000199e+01
3.825999999999999801e+01
6.700000000000000178e+00
-3.490999999999999659e+01
3.314000000000000057e+01
1.603999999999999915e+01
-1.680999999999999872e+01
-2.378999999999999915e+01
3.285999999999999943e+01
1.929999999999999938e+00
-3.978999999999999915e+01
1.300999999999999979e+01
1.460999999999999943e+01
-1.891000000000000014e+01
1.040000000000000036e+00
1.523000000000000043e+01
-8.299999999999999600e-01
-4.871000000000000085e+01
4.190999999999999659e+01
1.887999999999999901e+01
-2.262000000000000099e+01
8.759999999999999787e+00
2.614000000000000057e+01
-1.449999999999999956e+00
-7.706000000000000227e+01
6.490000000000000213e+00
6.124000000000000199e+01
-1.123000000000000043e+01
1.655999999999999872e+01
1.356000000000000050e+01
-2.682000000000000028e+01
2.955000000000000071e+01
-1.409999999999999964e+01
-3.438000000000000256e+01
-1.340000000000000036e+01
6.190000000000000391e+00
8.590999999999999659e+01
-6.859000000000000341e+01
1.229999999999999982e+00
3.217999999999999972e+01
1.642999999999999972e+01
2.055999999999999872e+01
2.862000000000000099e+01
3.414999999999999858e+01
-5.192999999999999972e+01
-8.629999999999999716e+01
6.110999999999999943e+01
6.940999999999999659e+01
1.258999999999999986e+01
-4.045000000000000284e+01
-1.090300000000000011e+02
-5.167999999999999972e+01
7.719999999999999751e+00
2.229999999999999982e+00
-3.137000000000000099e+01
4.200000000000000000e+01
3.564999999999999858e+01
-5.230000000000000426e+00
4.750000000000000000e+01
2.900000000000000000e+01
-1.272000000000000064e+01
-9.899999999999999911e-01
2.819000000000000128e+01
-4.559999999999999609e+00
-3.114999999999999858e+01
9.839999999999999858e+00
1.959999999999999964e+00
-9.669999999999999929e+00
1.126999999999999957e+01
2.509999999999999787e+00
4.790000000000000036e+00
-2.762999999999999901e+01
1.282000000000000028e+01
4.099999999999999756e-01
-1.055000000000000071e+01
-3.080000000000000071e+00
-2.149999999999999911e+00
-5.040000000000000036e+00
-1.284999999999999964e+01
1.017999999999999972e+01
-3.979999999999999982e+00
-1.198000000000000043e+01
-3.009999999999999787e+00
2.082999999999999829e+01
-4.990000000000000213e+00
-3.427000000000000313e+01
1.821999999999999886e+01
7.700000000000000178e+00
-2.008999999999999986e+01
2.317999999999999972e+01
2.294999999999999929e+01
-1.651999999999999957e+01
-4.659000000000000341e+01
3.596999999999999886e+01
1.303999999999999915e+01
-1.124000000000000021e+01
2.003999999999999915e+01
2.092999999999999972e+01
-5.309999999999999609e+00
-3.675000000000000000e+01
2.271000000000000085e+01
8.330000000000000071e+00
-7.969999999999999751e+00
4.421999999999999886e+01
4.321000000000000085e+01
-3.768999999999999773e+01
-9.556000000000000227e+01
-9.150000000000000355e+00
3.379999999999999893e+00
1.101999999999999957e+01
6.490000000000000568e+01
-1.042999999999999972e+01
-3.271000000000000085e+01
3.290000000000000036e+00
3.164999999999999858e+01
-1.350000000000000089e+00
-3.185999999999999943e+01
4.847999999999999687e+01
2.110000000000000142e+01
1.639999999999999858e+01
-1.789999999999999858e+01
-5.135999999999999943e+01
2.701000000000000156e+01
-1.456000000000000050e+01
4.379999999999999893e+00
4.418999999999999773e+01
4.771999999999999886e+01
-9.303000000000000114e+01
2.367999999999999972e+01
1.398000000000000043e+01
-4.972999999999999687e+01
4.749000000000000199e+01
6.695999999999999375e+01
-1.013799999999999955e+02
-9.980000000000000426e+00
7.565999999999999659e+01
-4.080000000000000071e+00
4.384000000000000341e+01
-8.128000000000000114e+01
1.254699999999999989e+02
-1.158700000000000045e+02
-9.646999999999999886e+01
-7.800000000000000266e-01
-1.957000000000000028e+01
-3.424000000000000199e+01
3.689999999999999858e+01
1.441000000000000014e+01
-5.280000000000000249e+00
5.853999999999999915e+01
4.514000000000000057e+01
-3.101000000000000156e+01
-3.785999999999999943e+01
1.369999999999999929e+01
1.288000000000000078e+01
3.082000000000000028e+01
-1.092800000000000011e+02
3.577000000000000313e+01
2.492999999999999972e+01
1.830999999999999872e+01
-4.903000000000000114e+01
-4.849999999999999645e+00
-2.858999999999999986e+01
3.046000000000000085e+01
9.490000000000000213e+00
-2.253999999999999915e+01
3.489999999999999858e+01
1.513000000000000078e+01
-3.675000000000000000e+01
1.817999999999999972e+01
2.333999999999999986e+01
-1.820000000000000062e+00
-2.260999999999999943e+01
2.007000000000000028e+01
7.009999999999999787e+00
-2.621999999999999886e+01
1.359999999999999964e+01
5.900000000000000355e+00
-1.152999999999999936e+01
-1.607000000000000028e+01
1.356000000000000050e+01
-1.302999999999999936e+01
-3.686999999999999744e+01
4.943999999999999773e+01
4.480000000000000426e+00
-2.032000000000000028e+01
1.247000000000000064e+01
1.928000000000000114e+01
-6.559999999999999609e+00
-1.248000000000000043e+01
1.985999999999999943e+01
9.799999999999999822e-01
-3.067999999999999972e+01
1.964000000000000057e+01
7.049999999999999822e+00
-1.516999999999999993e+01
3.632999999999999829e+01
-1.885999999999999943e+01
5.995000000000000284e+01
-8.062000000000000455e+01
-1.288000000000000078e+01
1.402899999999999920e+02
-2.643999999999999773e+02
-7.984999999999999432e+01
-3.155000000000000071e+01
8.279000000000000625e+01
-2.888100000000000023e+02
5.224000000000000199e+01
1.593000000000000114e+02
-1.155600000000000023e+02
1.969999999999999973e+00
4.786999999999999744e+01
-1.070000000000000000e+02
1.199099999999999966e+02
8.176000000000000512e+01
1.544999999999999929e+01
-2.975000000000000000e+01
-7.820999999999999375e+01
1.992999999999999972e+01
5.207999999999999829e+01
-3.339999999999999858e+00
2.848000000000000043e+01
2.021999999999999886e+01
-2.400000000000000000e+01
1.038000000000000078e+01
3.942000000000000171e+01
-3.770000000000000284e+01
-1.425000000000000000e+01
7.457999999999999829e+01
-4.650000000000000355e+00
-5.139000000000000057e+01
3.425999999999999801e+01
5.339999999999999858e+00
-5.049000000000000199e+01
5.635999999999999943e+01
1.583999999999999986e+01
-6.954999999999999716e+01
5.846999999999999886e+01
4.628999999999999915e+01
-5.169999999999999929e+00
2.105999999999999872e+01
-8.698000000000000398e+01
2.192000000000000171e+01
-4.836999999999999744e+01
5.690999999999999659e+01
2.957000000000000028e+01
-3.731000000000000227e+01
-5.799999999999999600e-01
2.671000000000000085e+01
1.393999999999999950e+01
-9.730000000000000426e+00
1.496000000000000085e+01
-5.103000000000000114e+01
-6.679999999999999716e+00
5.129999999999999716e+01
-5.507000000000000028e+01
-4.879999999999999893e+00
-2.064999999999999858e+01
2.839999999999999858e+01
8.759999999999999787e+00
-5.870000000000000284e+01
4.217999999999999972e+01
3.213000000000000256e+01
-4.642999999999999972e+01
3.413000000000000256e+01
3.614999999999999858e+01
-2.171999999999999886e+01
-1.851000000000000156e+01
3.772999999999999687e+01
-5.120000000000000107e+00
-7.682999999999999829e+01
3.457999999999999829e+01
2.241000000000000014e+01
-2.675000000000000000e+01
2.167000000000000171e+01
2.433999999999999986e+01
-4.250000000000000000e+00
-1.944999999999999929e+01
5.167999999999999972e+01
2.146000000000000085e+01
-1.002999999999999972e+02
6.942000000000000171e+01
-3.892000000000000171e+01
-4.942999999999999972e+01
-4.075000000000000000e+01
3.520000000000000284e+01
1.764999999999999858e+01
-8.992000000000000171e+01
3.474000000000000199e+01
4.442000000000000171e+01
-2.223000000000000043e+01
-2.303000000000000114e+01
3.667000000000000171e+01
2.160999999999999943e+01
-7.064000000000000057e+01
3.879999999999999716e+01
3.882000000000000028e+01
-3.527000000000000313e+01
1.208999999999999986e+01
4.425000000000000000e+01
6.889999999999999680e+00
-5.679999999999999716e+01
3.610000000000000142e+01
1.332000000000000028e+01
-2.403999999999999915e+01
1.632000000000000028e+01
4.307000000000000028e+01
-7.199999999999999734e-01
-3.757000000000000028e+01
-2.619000000000000128e+01
-1.709999999999999964e+00
-6.082000000000000028e+01
2.521999999999999886e+01
1.459999999999999964e+01
1.560999999999999943e+01
4.589999999999999858e+00
-6.259999999999999787e+00
1.116000000000000014e+01
-3.303000000000000114e+01
5.314999999999999858e+01
-1.832000000000000028e+01
-2.351999999999999957e+01
6.040000000000000036e+00
5.709999999999999964e+00
-2.330000000000000071e+00
-3.814000000000000057e+01
1.944999999999999929e+01
-1.166000000000000014e+01
-3.267999999999999972e+01
2.819999999999999929e+01
3.538000000000000256e+01
-1.373000000000000043e+01
1.659999999999999920e+00
1.407000000000000028e+01
-3.062999999999999901e+01
-3.742000000000000171e+01
2.635000000000000142e+01
9.519999999999999574e+00
-4.664000000000000057e+01
2.291000000000000014e+01
3.740000000000000213e+00
-1.328999999999999915e+01
2.980000000000000071e+01
2.117000000000000171e+01
-4.950000000000000178e+00
-9.660000000000000142e+00
1.871000000000000085e+01
-3.499999999999999778e-01
-3.792999999999999972e+01
6.679999999999999716e+00
-8.499999999999999778e-01
-5.371000000000000085e+01
3.738000000000000256e+01
1.589000000000000057e+01
-3.947999999999999687e+01
2.139000000000000057e+01
4.081000000000000227e+01
-2.505000000000000071e+01
3.359999999999999876e+00
2.182999999999999829e+01
1.418999999999999950e+01
-3.902000000000000313e+01
1.951999999999999957e+01
-1.830000000000000071e+00
-3.595000000000000284e+01
1.817999999999999972e+01
1.319999999999999929e+01
-1.623000000000000043e+01
-6.570000000000000284e+00
2.210999999999999943e+01
2.180000000000000160e+00
-3.593999999999999773e+01
3.110999999999999943e+01
1.263000000000000078e+01
-3.353000000000000114e+01
1.194999999999999929e+01
8.150000000000000355e+00
-2.207999999999999829e+01
-1.134999999999999964e+01
2.448999999999999844e+01
-3.029999999999999805e+00
-2.017000000000000171e+01
6.099999999999999645e+00
1.171000000000000085e+01
-7.843999999999999773e+01
4.184000000000000341e+01
2.344999999999999929e+01
-1.760000000000000142e+01
3.930000000000000160e+00
3.521000000000000085e+01
-6.200000000000000178e+00
-4.999000000000000199e+01
3.656000000000000227e+01
2.896000000000000085e+01
-1.962999999999999901e+01
3.709999999999999964e+00
3.123999999999999844e+01
-3.750000000000000000e+00
-4.364999999999999858e+01
1.057000000000000028e+01
8.779999999999999361e+00
-3.456000000000000227e+01
2.983999999999999986e+01
1.435999999999999943e+01
-1.909999999999999920e+00
-2.760999999999999943e+01
3.128000000000000114e+01
7.790000000000000036e+00
-2.914000000000000057e+01
2.539999999999999858e+01
2.617999999999999972e+01
-2.290000000000000036e+00
-1.832000000000000028e+01
1.810999999999999943e+01
1.557000000000000028e+01
-4.054999999999999716e+01
-2.209999999999999964e+00
1.122000000000000064e+01
-3.642000000000000171e+01
2.612999999999999901e+01
3.959999999999999964e+00
-2.255000000000000071e+01
1.114000000000000057e+01
2.607999999999999829e+01
-1.996999999999999886e+01
9.660000000000000142e+00
1.942999999999999972e+01
2.053999999999999915e+01
-8.119999999999999218e+00
1.701999999999999957e+01
-1.450999999999999979e+01
-5.265999999999999659e+01
3.290000000000000036e+00
-1.060999999999999943e+01
-4.617000000000000171e+01
1.506000000000000050e+01
2.021999999999999886e+01
-1.869999999999999929e+01
2.853999999999999915e+01
2.960999999999999943e+01
-2.107000000000000028e+01
-1.629999999999999893e+00
4.567999999999999972e+01
-7.049999999999999822e+00
-4.489999999999999858e+01
3.155999999999999872e+01
-8.000000000000000444e-01
-1.017000000000000028e+02
3.457000000000000028e+01
8.743999999999999773e+01
-7.282999999999999829e+01
1.790000000000000036e+00
3.563000000000000256e+01
-1.435999999999999943e+01
-4.389000000000000057e+01
4.686999999999999744e+01
2.730999999999999872e+01
-7.193000000000000682e+01
5.003999999999999915e+01
5.515999999999999659e+01
-4.131000000000000227e+01
-2.367000000000000171e+01
1.473000000000000043e+01
-2.371000000000000085e+01
-5.064000000000000057e+01
4.185999999999999943e+01
2.444999999999999929e+01
-4.989000000000000057e+01
4.381000000000000227e+01
1.582000000000000028e+01
-1.848999999999999844e+01
-5.500000000000000000e+00
3.718999999999999773e+01
-7.800000000000000266e-01
-2.469999999999999929e+01
1.769000000000000128e+01
1.136999999999999922e+01
-2.142999999999999972e+01
1.957999999999999829e+01
1.308000000000000007e+01
-1.610999999999999943e+01
-1.801999999999999957e+01
1.152999999999999936e+01
-2.560000000000000053e+00
-3.489000000000000057e+01
1.225000000000000000e+01
-4.929999999999999716e+00
-4.740999999999999659e+01
2.751999999999999957e+01
1.678999999999999915e+01
-4.154999999999999716e+01
-8.640000000000000568e+00
1.510999999999999943e+01
-3.559000000000000341e+01
-9.900000000000000355e+00
4.639000000000000057e+01
2.703999999999999915e+01
-1.457000000000000028e+01
4.136999999999999744e+01
5.815999999999999659e+01
-1.526999999999999957e+01
-8.000000000000000167e-02
-1.032000000000000028e+01
-6.837999999999999545e+01
2.819999999999999840e+00
4.099999999999999756e-01
2.400000000000000000e+01
-2.039999999999999858e+01
4.381000000000000227e+01
1.844000000000000128e+01
-2.607000000000000028e+01
4.019999999999999574e+00
4.179999999999999716e+00
-2.841000000000000014e+01
-4.488000000000000256e+01
1.785999999999999943e+01
9.269999999999999574e+00
-4.288000000000000256e+01
1.601000000000000156e+01
1.946000000000000085e+01
-3.621000000000000085e+01
1.805999999999999872e+01
3.472999999999999687e+01
-1.623000000000000043e+01
-1.628999999999999915e+01
2.728999999999999915e+01
-1.342999999999999972e+01
-3.515999999999999659e+01
3.868999999999999773e+01
1.766000000000000014e+01
-2.316000000000000014e+01
5.584000000000000341e+01
3.784000000000000341e+01
-6.040000000000000036e+00
-1.333000000000000007e+01
-2.073999999999999844e+01
3.132400000000000091e+02
-3.959999999999999964e+00
-3.228799999999999955e+02
-1.215699999999999932e+02
-6.253999999999999915e+01
2.298999999999999844e+01
6.490000000000000568e+01
-1.113400000000000034e+02
-5.982999999999999829e+01
3.571000000000000085e+01
6.440000000000000391e+00
-5.574000000000000199e+01
4.677000000000000313e+01
1.056000000000000050e+01
-5.728000000000000114e+01
4.685999999999999943e+01
4.242000000000000171e+01
-3.046999999999999886e+01
4.224000000000000199e+01
6.303999999999999915e+01
-2.148000000000000043e+01
-1.549000000000000021e+01
7.390000000000000568e+01
5.332999999999999829e+01
-8.532999999999999829e+01
1.944999999999999929e+01
2.217000000000000171e+01
-3.588000000000000256e+01
2.489999999999999858e+01
4.590999999999999659e+01
-2.087000000000000099e+01
-4.763000000000000256e+01
5.204999999999999716e+01
2.285999999999999943e+01
-4.396999999999999886e+01
5.335999999999999943e+01
5.081000000000000227e+01
-6.943000000000000682e+01
-3.089000000000000057e+01
2.678000000000000114e+01
-3.040000000000000036e+00
-4.364000000000000057e+01
1.978999999999999915e+01
5.900000000000000355e+00
-4.574000000000000199e+01
1.142999999999999972e+01
1.479499999999999886e+02
1.758700000000000045e+02
-1.675399999999999920e+02
-4.207999999999999829e+01
-4.159000000000000341e+01
-5.360999999999999943e+01
1.194999999999999929e+01
2.969999999999999929e+01
-6.573999999999999488e+01
2.205000000000000071e+01
2.139999999999999858e+01
-3.975000000000000000e+01
-3.784000000000000341e+01
5.135000000000000142e+01
2.932000000000000028e+01
-3.602000000000000313e+01
-1.001999999999999957e+01
-1.501999999999999957e+01
1.870000000000000107e+00
9.699999999999999734e-01
3.790999999999999659e+01
1.683999999999999986e+01
5.057000000000000028e+01
7.293000000000000682e+01
-1.808999999999999986e+01
-3.692999999999999972e+01
-1.439999999999999947e+00
-2.269999999999999929e+01
-6.830000000000000071e+00
4.714000000000000057e+01
6.792000000000000171e+01
-2.205000000000000071e+01
-1.189000000000000057e+01
-4.186999999999999744e+01
-2.087000000000000099e+01
3.882000000000000028e+01
-1.249000000000000021e+01
-4.111999999999999744e+01
4.142999999999999972e+01
1.174599999999999937e+02
5.238000000000000256e+01
-1.339600000000000080e+02
-8.734000000000000341e+01
-4.297999999999999687e+01
-6.559999999999999609e+00
2.932999999999999829e+01
3.522999999999999687e+01
-9.820000000000000284e+00
2.757000000000000028e+01
-3.497999999999999687e+01
-3.428999999999999915e+01
5.121999999999999886e+01
5.709999999999999964e+00
-5.406000000000000227e+01
5.099000000000000199e+01
2.419999999999999929e+01
-3.581000000000000227e+01
4.799999999999999822e-01
3.592000000000000171e+01
1.479999999999999982e+00
-6.895000000000000284e+01
4.128000000000000114e+01
3.108999999999999986e+01
-2.994000000000000128e+01
-2.789000000000000057e+01
4.896999999999999886e+01
8.640000000000000568e+00
-4.818999999999999773e+01
3.592000000000000171e+01
2.996999999999999886e+01
-1.431000000000000050e+01
-5.792000000000000171e+01
4.052000000000000313e+01
1.687999999999999901e+01
-2.742000000000000171e+01
5.400000000000000355e-01
2.805999999999999872e+01
-1.107000000000000028e+01
-5.543999999999999773e+01
3.435000000000000142e+01
1.106000000000000050e+01
-5.390999999999999659e+01
3.098999999999999844e+01
2.708999999999999986e+01
-3.902000000000000313e+01
-3.189999999999999947e+00
5.364999999999999858e+01
2.009999999999999787e+00
-7.714000000000000057e+01
4.696999999999999886e+01
1.144999999999999929e+01
-6.352000000000000313e+01
4.263000000000000256e+01
3.789000000000000057e+01
-2.367000000000000171e+01
2.148999999999999844e+01
3.575000000000000000e+01
-7.099999999999999645e+00
-6.600000000000000311e-01
3.083999999999999986e+01
-1.898999999999999844e+01
-2.737999999999999901e+01
3.642999999999999972e+01
-1.694000000000000128e+01
-6.559000000000000341e+01
5.129999999999999716e+01
9.169999999999999929e+00
-7.226999999999999602e+01
4.806000000000000227e+01
2.905999999999999872e+01
-3.435999999999999943e+01
-5.919999999999999929e+00
4.343999999999999773e+01
2.830000000000000071e+00
-7.420000000000000284e+01
4.135999999999999943e+01
2.530000000000000071e+01
-2.835000000000000142e+01
-9.119999999999999218e+00
3.357999999999999829e+01
-3.299999999999999822e+00
-3.996000000000000085e+01
4.247999999999999687e+01
-1.340000000000000036e+01
-9.904999999999999716e+01
3.357999999999999829e+01
4.588000000000000256e+01
-1.891000000000000014e+01
-7.709999999999999964e+00
4.642999999999999972e+01
-8.070000000000000284e+00
-4.646000000000000085e+01
4.667000000000000171e+01
1.247000000000000064e+01
-7.625000000000000000e+01
4.461999999999999744e+01
3.317000000000000171e+01
-2.260999999999999943e+01
-2.369999999999999929e+01
4.013000000000000256e+01
3.029999999999999805e+00
-6.297999999999999687e+01
3.690999999999999659e+01
2.387999999999999901e+01
-2.260000000000000142e+01
-3.550000000000000000e+01
3.567999999999999972e+01
2.379999999999999893e+00
-6.206000000000000227e+01
3.696999999999999886e+01
2.412999999999999901e+01
-2.810000000000000142e+01
-2.617999999999999972e+01
4.161999999999999744e+01
4.620000000000000107e+00
-6.156000000000000227e+01
3.381000000000000227e+01
3.112000000000000099e+01
-1.692999999999999972e+01
-5.003000000000000114e+01
3.896000000000000085e+01
8.140000000000000568e+00
-5.977000000000000313e+01
3.849000000000000199e+01
3.225000000000000000e+01
-2.410000000000000142e+01
-3.795000000000000284e+01
4.632000000000000028e+01
1.100999999999999979e+01
-6.478000000000000114e+01
3.307999999999999829e+01
3.514000000000000057e+01
-1.517999999999999972e+01
-4.854999999999999716e+01
4.317000000000000171e+01
1.463000000000000078e+01
-6.614000000000000057e+01
3.907999999999999829e+01
3.490999999999999659e+01
-2.644000000000000128e+01
-4.677000000000000313e+01
5.018999999999999773e+01
1.637000000000000099e+01
-4.368999999999999773e+01
9.048999999999999488e+01
-1.471000000000000085e+01
-1.371899999999999977e+02
-6.346999999999999886e+01
1.600000000000000033e-01
-1.760999999999999943e+01
-1.157999999999999972e+02
7.203000000000000114e+01
5.850000000000000000e+01
5.379999999999999893e+00
6.434000000000000341e+01
1.019699999999999989e+02
-7.070000000000000284e+00
1.898000000000000043e+01
6.679999999999999716e+01
4.530000000000000249e+00
-1.900000000000000000e+01
7.934000000000000341e+01
4.531000000000000227e+01
-1.154699999999999989e+02
3.778999999999999915e+01
-5.389000000000000057e+01
-7.401999999999999602e+01
6.493999999999999773e+01
1.592999999999999972e+01
-7.748000000000000398e+01
5.122999999999999687e+01
-7.240000000000000213e+00
-6.570000000000000284e+01
2.114999999999999858e+01
2.085000000000000142e+01
1.129999999999999893e+00
2.553000000000000114e+01
-1.461999999999999922e+01
-5.032000000000000028e+01
1.614000000000000057e+01
2.071999999999999886e+01
-3.789000000000000057e+01
5.040000000000000036e+00
-1.100000000000000089e+00
-1.241999999999999993e+01
1.910000000000000142e+01
-1.505000000000000071e+01
-2.491000000000000014e+01
2.117000000000000171e+01
-9.669999999999999929e+00
6.500000000000000000e+00
7.169999999999999929e+00
-6.801999999999999602e+01
-2.453999999999999915e+01
3.999000000000000199e+01
3.753000000000000114e+01
-5.259999999999999787e+00
9.031000000000000227e+01
-4.378999999999999915e+01
-4.604999999999999716e+01
1.321000000000000085e+01
-1.567999999999999972e+01
-2.790000000000000036e+00
-2.605999999999999872e+01
2.221000000000000085e+01
1.335999999999999943e+01
-1.142999999999999972e+01
3.820000000000000284e+01
1.871999999999999886e+01
-3.565999999999999659e+01
3.739000000000000057e+01
1.388000000000000078e+01
-2.233999999999999986e+01
-1.184999999999999964e+01
1.612000000000000099e+01
-1.610999999999999943e+01
-1.842999999999999972e+01
1.507000000000000028e+01
-8.720000000000000639e+00
-1.125000000000000000e+01
2.525000000000000000e+01
1.307000000000000028e+01
-3.010000000000000142e+01
8.399999999999999689e-01
1.002999999999999936e+01
-4.480000000000000426e+00
7.610000000000000320e+00
2.830000000000000071e+00
1.469999999999999973e+00
4.599999999999999645e+00
7.990000000000000213e+00
-1.773000000000000043e+01
-3.629999999999999893e+00
1.991000000000000014e+01
-4.650000000000000355e+00
-1.109999999999999964e+01
2.796000000000000085e+01
-6.889999999999999680e+00
3.443999999999999773e+01
1.098199999999999932e+02
2.583999999999999986e+01
-2.722699999999999818e+02
1.038799999999999955e+02
-1.470300000000000011e+02
-8.195999999999999375e+01
-2.464000000000000057e+01
5.789999999999999858e+01
5.509999999999999787e+00
8.681999999999999318e+01
-1.608999999999999986e+01
-1.767100000000000080e+02
-5.881000000000000227e+01
-5.704999999999999716e+01
-5.330000000000000071e+00
1.667500000000000000e+02
6.157000000000000028e+01
-1.257399999999999949e+02
-5.446999999999999886e+01
-1.605000000000000000e+02
1.416299999999999955e+02
1.711899999999999977e+02
4.507000000000000028e+01
-2.439000000000000057e+02
5.839999999999999858e+00
-1.418499999999999943e+02
7.504000000000000625e+01
3.209300000000000068e+02
-5.424000000000000199e+01
2.271000000000000085e+01
-1.025900000000000034e+02
-9.869999999999999218e+00
-1.753999999999999915e+01
3.534000000000000341e+01
4.600000000000000200e-01
-2.280000000000000071e+01
3.629999999999999716e+01
2.571000000000000085e+01
6.097999999999999687e+01
-2.437299999999999898e+02
-5.378000000000000114e+01
1.116299999999999955e+02
9.160000000000000142e+00
5.820000000000000284e+00
-1.439000000000000057e+01
1.341000000000000014e+01
1.338000000000000078e+01
-8.179999999999999716e+00
-1.094999999999999929e+01
9.119999999999999218e+00
-1.959999999999999964e+00
-2.817000000000000171e+01
1.433999999999999986e+01
3.759999999999999787e+00
-1.552999999999999936e+01
1.692000000000000171e+01
7.860000000000000320e+00
-7.639999999999999680e+00
-1.433999999999999986e+01
1.335999999999999943e+01
-5.759999999999999787e+00
-2.741000000000000014e+01
2.035999999999999943e+01
9.970000000000000639e+00
-1.333000000000000007e+01
1.211999999999999922e+01
1.113000000000000078e+01
-7.799999999999999822e+00
-1.400000000000000000e+01
4.599999999999999645e+00
-1.105000000000000071e+01
-3.497999999999999687e+01
2.507000000000000028e+01
8.720000000000000639e+00
-1.783999999999999986e+01
1.944000000000000128e+01
1.310999999999999943e+01
-2.423000000000000043e+01
6.120000000000000107e+00
3.035000000000000142e+01
-7.849999999999999645e+00
-3.101999999999999957e+01
1.052999999999999936e+01
-3.029999999999999805e+00
-1.701000000000000156e+01
-1.679999999999999938e+00
2.607000000000000028e+01
6.646999999999999886e+01
1.649900000000000091e+02
1.484900000000000091e+02
7.387000000000000455e+01
-2.193199999999999932e+02
-2.783100000000000023e+02
6.584999999999999432e+01
-1.925000000000000000e+01
-8.965999999999999659e+01
-3.660000000000000142e+00
1.595999999999999943e+02
-8.898000000000000398e+01
6.117000000000000171e+01
1.593899999999999864e+02
-1.903899999999999864e+02
-5.822999999999999687e+01
-3.407000000000000028e+01
6.120000000000000107e+00
1.156500000000000057e+02
-7.734000000000000341e+01
2.289999999999999858e+01
3.993999999999999773e+01
-1.623000000000000043e+01
-7.450000000000000178e+00
5.384000000000000341e+01
4.484000000000000341e+01
-1.041999999999999993e+01
-3.509000000000000341e+01
-2.998000000000000043e+01
-3.706000000000000227e+01
-1.027600000000000051e+02
-3.278000000000000114e+01
8.448000000000000398e+01
-1.340000000000000000e+02
1.340999999999999943e+02
5.261999999999999744e+01
-3.872999999999999687e+01
1.382000000000000028e+01
2.700000000000000178e-01
-1.084000000000000057e+02
-1.053700000000000045e+02
1.110999999999999943e+02
5.302000000000000313e+01
-3.599000000000000199e+01
5.635000000000000142e+01
4.129999999999999716e+01
4.429999999999999716e+00
1.116999999999999993e+01
5.850999999999999801e+01
-7.740000000000000213e+00
-1.816000000000000014e+01
1.962999999999999901e+01
5.030000000000000249e+00
8.499999999999999778e-01
3.709999999999999964e+00
3.509999999999999787e+00
1.678999999999999915e+01
3.259000000000000341e+01
-5.570000000000000284e+00
-2.685000000000000142e+01
-6.451000000000000512e+01
2.187999999999999901e+01
1.688499999999999943e+02
1.227699999999999960e+02
1.273000000000000043e+01
-1.652700000000000102e+02
-1.790200000000000102e+02
1.010400000000000063e+02
-9.962000000000000455e+01
6.609000000000000341e+01
-1.258400000000000034e+02
-1.840200000000000102e+02
-8.990000000000000213e+00
3.207000000000000028e+01
-1.892999999999999972e+01
-5.025999999999999801e+01
2.153000000000000114e+01
6.604999999999999716e+01
2.155999999999999872e+01
1.703999999999999915e+01
4.950999999999999801e+01
1.626999999999999957e+01
3.339999999999999858e+00
3.921000000000000085e+01
1.316999999999999993e+01
-1.053999999999999915e+01
2.926999999999999957e+01
-1.275000000000000000e+01
-4.624000000000000199e+01
5.100999999999999801e+01
2.473999999999999844e+01
2.257000000000000028e+01
1.572800000000000011e+02
-7.946999999999999886e+01
-2.276200000000000045e+02
2.430000000000000000e+02
-8.718000000000000682e+01
7.579000000000000625e+01
-2.103000000000000114e+01
1.971000000000000085e+01
-2.307999999999999829e+01
-1.703000000000000114e+01
-4.530000000000000249e+00
-3.175000000000000000e+01
-5.171999999999999886e+01
1.644000000000000128e+01
-1.250000000000000000e+01
-4.709000000000000341e+01
2.171999999999999886e+01
1.428999999999999915e+01
-2.489000000000000057e+01
-2.292000000000000171e+01
2.544000000000000128e+01
3.279999999999999805e+00
-6.063000000000000256e+01
4.495000000000000284e+01
6.209999999999999964e+00
-4.107000000000000028e+01
-2.148000000000000043e+01
2.937000000000000099e+01
7.299999999999999822e-01
-5.835000000000000142e+01
3.518999999999999773e+01
2.105000000000000071e+01
-3.765999999999999659e+01
3.003000000000000114e+01
3.510999999999999943e+01
-7.500000000000000000e+00
-3.540000000000000036e+00
1.122000000000000064e+01
-4.553000000000000114e+01
-4.232000000000000028e+01
6.656000000000000227e+01
6.310000000000000142e+01
-9.899999999999999911e-01
3.796999999999999886e+01
2.051000000000000156e+01
8.269999999999999574e+00
-3.514999999999999858e+01
-5.469999999999999751e+00
-1.641000000000000014e+01
-1.110999999999999943e+01
9.679999999999999716e+00
4.834000000000000341e+01
3.064999999999999858e+01
-1.247699999999999960e+02
2.778299999999999841e+02
-3.608100000000000023e+02
2.803999999999999915e+01
8.698000000000000398e+01
-2.358999999999999986e+01
4.709999999999999964e+00
1.535999999999999943e+01
-1.675000000000000000e+01
-5.150000000000000355e+00
2.508999999999999986e+01
3.370000000000000107e+00
-1.932000000000000028e+01
1.782999999999999829e+01
1.540000000000000036e+00
-4.011999999999999744e+01
2.666000000000000014e+01
2.379999999999999893e+00
-2.942999999999999972e+01
7.759999999999999787e+00
3.752000000000000313e+01
-8.269999999999999574e+00
-1.826000000000000156e+01
2.446999999999999886e+01
-3.800000000000000044e-01
-3.909000000000000341e+01
2.637999999999999901e+01
2.260999999999999943e+01
-3.310000000000000142e+01
1.751999999999999957e+01
1.290000000000000036e+01
-1.493999999999999950e+01
7.879999999999999893e+00
6.269999999999999574e+00
-1.573000000000000043e+01
-1.074000000000000021e+01
2.408999999999999986e+01
-2.126000000000000156e+01
-1.819000000000000128e+01
5.878000000000000114e+01
5.764000000000000057e+01
3.001000000000000156e+01
1.170699999999999932e+02
-2.546999999999999886e+01
-7.256000000000000227e+01
-6.964000000000000057e+01
-8.115999999999999659e+01
-4.785999999999999943e+01
-2.560000000000000142e+01
2.629999999999999893e+00
1.219999999999999929e+01
-2.387999999999999901e+01
2.355000000000000071e+01
-6.099999999999999867e-01
-3.524000000000000199e+01
2.503999999999999915e+01
1.520000000000000018e+00
-5.768999999999999773e+01
2.757999999999999829e+01
5.239999999999999858e+01
4.899999999999999911e-01
-3.503999999999999915e+01
3.457000000000000028e+01
-1.064000000000000057e+01
-6.656999999999999318e+01
3.688000000000000256e+01
1.717000000000000171e+01
-3.352000000000000313e+01
2.266000000000000014e+01
3.224000000000000199e+01
-1.468999999999999950e+01
-2.839999999999999858e+01
5.107000000000000028e+01
8.609999999999999432e+00
-5.375999999999999801e+01
3.478999999999999915e+01
2.353999999999999915e+01
-4.475999999999999801e+01
1.841000000000000014e+01
3.238000000000000256e+01
-3.850000000000000089e+00
-2.660000000000000142e+01
1.748000000000000043e+01
-9.029999999999999361e+00
-5.518999999999999773e+01
2.987000000000000099e+01
1.066999999999999993e+01
-5.146000000000000085e+01
3.008999999999999986e+01
1.746999999999999886e+01
-4.014000000000000057e+01
3.335999999999999943e+01
2.717999999999999972e+01
-3.048999999999999844e+01
2.505999999999999872e+01
3.410999999999999943e+01
-1.203999999999999915e+01
-2.423000000000000043e+01
3.257000000000000028e+01
4.570000000000000284e+00
-4.720000000000000284e+01
2.428000000000000114e+01
1.682000000000000028e+01
-1.976999999999999957e+01
1.800000000000000044e+00
2.432000000000000028e+01
-1.250000000000000000e+00
-4.907999999999999829e+01
2.237000000000000099e+01
1.155000000000000071e+01
-1.547000000000000064e+01
-1.716000000000000014e+01
1.783999999999999986e+01
-1.489999999999999991e+00
-4.567000000000000171e+01
2.328000000000000114e+01
1.066000000000000014e+01
-2.616000000000000014e+01
3.299999999999999822e+00
3.155000000000000071e+01
-4.910000000000000142e+00
-1.451899999999999977e+02
-2.140800000000000125e+02
2.352199999999999989e+02
1.504199999999999875e+02
9.973000000000000398e+01
-1.027999999999999936e+01
-3.281000000000000227e+01
1.558999999999999986e+01
3.589999999999999858e+00
-2.717000000000000171e+01
-7.570000000000000284e+00
1.435999999999999943e+01
-1.966000000000000014e+01
-2.501999999999999957e+01
1.675000000000000000e+01
-1.209999999999999964e+00
-1.644000000000000128e+01
1.511999999999999922e+01
-4.540000000000000036e+00
-3.771999999999999886e+01
2.126000000000000156e+01
-7.910000000000000142e+00
-3.359000000000000341e+01
2.457000000000000028e+01
1.017999999999999972e+01
-4.100000000000000000e+01
3.375000000000000000e+01
-5.719999999999999751e+00
-4.528000000000000114e+01
3.793999999999999773e+01
1.146000000000000085e+01
-3.806000000000000227e+01
3.019000000000000128e+01
2.789000000000000057e+01
-9.369999999999999218e+00
-3.542999999999999972e+01
2.587999999999999901e+01
7.919999999999999929e+00
-1.905999999999999872e+01
2.714000000000000057e+01
-1.136999999999999922e+01
-2.435000000000000142e+01
-1.992000000000000171e+01
2.594999999999999929e+01
-1.541000000000000014e+01
-3.187999999999999901e+01
2.812000000000000099e+01
6.009999999999999787e+00
-3.549000000000000199e+01
2.689999999999999858e+01
2.135000000000000142e+01
-1.155000000000000071e+01
-7.700000000000000178e+00
2.180999999999999872e+01
1.949999999999999956e+00
-3.409000000000000341e+01
2.182000000000000028e+01
-7.500000000000000000e-01
-5.839000000000000057e+01
3.166000000000000014e+01
1.308000000000000007e+01
-3.985000000000000142e+01
3.121000000000000085e+01
2.537000000000000099e+01
-1.619999999999999929e+01
-2.296999999999999886e+01
2.814000000000000057e+01
9.880000000000000782e+00
-5.017999999999999972e+01
2.964999999999999858e+01
9.060000000000000497e+00
-4.697999999999999687e+01
8.939999999999999503e+00
2.273600000000000136e+02
-8.748999999999999488e+01
-3.247300000000000182e+02
-4.620000000000000107e+00
2.638199999999999932e+02
7.400000000000000000e+01
1.678000000000000114e+01
2.029999999999999805e+00
-2.222199999999999989e+02
-1.757899999999999920e+02
2.418700000000000045e+02
-1.596200000000000045e+02
-1.564799999999999898e+02
5.861999999999999744e+01
-1.790000000000000036e+00
1.382700000000000102e+02
2.230999999999999872e+01
-1.038199999999999932e+02
-7.776000000000000512e+01
1.341699999999999875e+02
3.446000000000000085e+01
2.201000000000000156e+01
-2.550000000000000000e+01
1.266000000000000014e+01
1.511999999999999922e+01
-1.530000000000000071e+01
-3.028000000000000114e+01
-5.286999999999999744e+01
6.651999999999999602e+01
8.270999999999999375e+01
7.720000000000000284e+01
-1.358999999999999986e+01
-1.192900000000000063e+02
1.494999999999999929e+01
9.660000000000000142e+00
-6.317999999999999972e+01
-6.285999999999999943e+01
-6.177000000000000313e+01
3.019999999999999929e+01
-1.567999999999999972e+01
-6.334000000000000341e+01
5.231000000000000227e+01
3.925000000000000000e+01
1.517999999999999972e+01
1.149000000000000021e+01
-2.919999999999999929e+00
-1.027999999999999936e+01
-4.940999999999999659e+01
2.903000000000000114e+01
4.653000000000000114e+01
2.399999999999999911e+00
-6.209000000000000341e+01
-5.007999999999999829e+01
6.396000000000000085e+01
-1.544999999999999929e+01
3.023000000000000043e+01
1.698999999999999844e+01
-1.136999999999999922e+01
2.462000000000000099e+01
2.955999999999999872e+01
-1.250000000000000000e+01
-1.030000000000000027e+00
4.175999999999999801e+01
-4.139000000000000057e+01
-1.254699999999999989e+02
-1.669000000000000128e+01
-1.125000000000000000e+01
9.490000000000000213e+00
2.346000000000000085e+01
-8.499999999999999778e-01
-5.786999999999999744e+01
6.476000000000000512e+01
9.978000000000000114e+01
3.540999999999999659e+01
8.892000000000000171e+01
2.138799999999999955e+02
8.554999999999999716e+01
-8.765000000000000568e+01
-2.060900000000000034e+02
-9.773000000000000398e+01
-3.549000000000000199e+01
-4.821000000000000085e+01
-5.050000000000000000e+01
-2.694999999999999929e+01
7.709999999999999964e+00
6.799999999999999822e+00
-1.415000000000000036e+01
-1.086999999999999922e+01
4.179999999999999716e+00
-9.919999999999999929e+00
-1.642999999999999972e+01
2.457999999999999829e+01
9.109999999999999432e+00
-2.437000000000000099e+01
-4.222999999999999687e+01
1.499000000000000021e+01
9.039999999999999147e+00
3.103000000000000114e+01
-7.587000000000000455e+01
2.932000000000000028e+01
3.700000000000000178e+00
-2.883999999999999986e+01
3.385000000000000142e+01
4.071000000000000085e+01
-1.146299999999999955e+02
2.157999999999999829e+01
5.681000000000000227e+01
1.509999999999999964e+01
8.453000000000000114e+01
2.260000000000000142e+01
-6.079999999999999716e+01
-1.275000000000000000e+02
5.538000000000000256e+01
3.559000000000000341e+01
-7.764000000000000057e+01
5.515999999999999659e+01
1.279200000000000017e+02
2.387000000000000099e+01
-4.649000000000000199e+01
4.656000000000000227e+01
5.964000000000000057e+01
-5.489999999999999858e+01
-2.373000000000000043e+01
-4.171000000000000085e+01
7.049999999999999822e+00
-4.177000000000000313e+01
5.829999999999999716e+01
1.776999999999999957e+01
-2.800000000000000000e+01
1.465000000000000036e+01
3.023999999999999844e+01
-2.180999999999999872e+01
8.029999999999999361e+00
1.166000000000000014e+01
-2.269000000000000128e+01
-6.220000000000000284e+01
7.650000000000000000e+01
-8.445999999999999375e+01
-2.692699999999999818e+02
1.469000000000000057e+02
7.792000000000000171e+01
1.241400000000000006e+02
4.585999999999999943e+01
-1.590000000000000080e+00
-2.555999999999999872e+01
-1.001899999999999977e+02
6.959999999999999432e+01
2.146999999999999886e+01
-2.819000000000000128e+01
2.255000000000000071e+01
1.830000000000000071e+01
2.950000000000000178e+00
-3.542999999999999972e+01
-4.138000000000000256e+01
-1.581000000000000050e+01
-3.915999999999999659e+01
1.295099999999999909e+02
1.135999999999999943e+01
-5.520000000000000284e+01
-6.469999999999999751e+00
2.898000000000000043e+01
-6.000000000000000000e+00
-4.975000000000000000e+01
7.650000000000000355e+00
2.837999999999999901e+01
-2.916000000000000014e+01
9.189999999999999503e+00
2.339999999999999858e+00
-1.442999999999999972e+01
8.740000000000000213e+00
1.315000000000000036e+01
-9.029999999999999361e+00
-2.598000000000000043e+01
1.142999999999999972e+01
-1.090000000000000036e+01
-1.145999999999999943e+02
-7.137999999999999545e+01
5.639000000000000057e+01
1.398000000000000043e+01
1.026899999999999977e+02
1.129399999999999977e+02
9.050000000000000711e+00
-4.400000000000000000e+01
-9.185999999999999943e+01
-4.842000000000000171e+01
7.034999999999999432e+01
2.195000000000000000e+02
-2.202400000000000091e+02
7.890000000000000568e+01
3.121999999999999886e+01
-8.782999999999999829e+01
-2.652799999999999727e+02
7.756000000000000227e+01
-1.751000000000000156e+01
-3.810000000000000142e+01
2.069999999999999840e+00
5.800000000000000000e+01
-7.814000000000000057e+01
-1.415999999999999943e+02
9.745999999999999375e+01
3.478999999999999915e+01
-1.705699999999999932e+02
-5.522999999999999687e+01
-1.328400000000000034e+02
-8.660000000000000142e+00
2.036399999999999864e+02
3.253500000000000227e+02
-5.500000000000000000e+00
-1.767700000000000102e+02
8.412999999999999545e+01
1.682000000000000028e+01
-6.096000000000000085e+01
1.239000000000000057e+02
4.500000000000000000e+01
-4.627000000000000313e+01
5.417000000000000171e+01
2.430000000000000071e+01
-3.461999999999999744e+01
1.330000000000000071e+01
2.976999999999999957e+01
-2.544999999999999929e+01
-1.058999999999999986e+01
3.121999999999999886e+01
-1.191999999999999993e+01
-4.046000000000000085e+01
3.667999999999999972e+01
-4.740000000000000213e+00
-4.740999999999999659e+01
3.438000000000000256e+01
-4.059999999999999609e+00
-3.597999999999999687e+01
3.171000000000000085e+01
1.072000000000000064e+01
-2.842000000000000171e+01
-1.599000000000000021e+01
1.400000000000000000e+01
-9.810000000000000497e+00
-3.571999999999999886e+01
3.189999999999999858e+01
-4.990000000000000213e+00
-3.932999999999999829e+01
1.830999999999999872e+01
4.309999999999999609e+00
-2.498999999999999844e+01
-2.500000000000000000e+00
1.566999999999999993e+01
-7.629999999999999893e+00
-2.564999999999999858e+01
2.550000000000000000e+01
-8.000000000000000167e-02
-6.269999999999999574e+00
1.141999999999999993e+01
5.677000000000000313e+01
1.510000000000000009e+00
-4.364999999999999858e+01
7.856000000000000227e+01
-1.015499999999999972e+02
-5.642000000000000171e+01
9.082999999999999829e+01
9.425000000000000000e+01
-1.007000000000000028e+02
-5.740999999999999659e+01
2.294999999999999929e+01
-1.215499999999999972e+02
8.862000000000000455e+01
7.293999999999999773e+01
-5.047999999999999687e+01
-9.118000000000000682e+01
-6.036999999999999744e+01
4.914000000000000057e+01
1.199999999999999956e-01
4.950999999999999801e+01
1.107000000000000028e+01
-2.173000000000000043e+01
2.155000000000000071e+01
1.632999999999999829e+01
-8.140000000000000568e+00
2.367999999999999972e+01
2.430999999999999872e+01
-3.629999999999999893e+00
4.900000000000000000e+01
8.920999999999999375e+01
8.445999999999999375e+01
-1.029099999999999966e+02
-1.679099999999999966e+02
-5.452000000000000313e+01
-5.274000000000000199e+01
-2.049999999999999822e+00
2.720000000000000195e+00
-2.169999999999999929e+01
-1.619000000000000128e+01
2.607999999999999829e+01
1.326999999999999957e+01
-2.539000000000000057e+01
1.008999999999999986e+01
9.490000000000000213e+00
-1.353999999999999915e+01
-9.140000000000000568e+00
4.849999999999999645e+00
-1.070000000000000062e+00
-4.440999999999999659e+01
2.742999999999999972e+01
1.515000000000000036e+01
-2.867999999999999972e+01
1.705000000000000071e+01
2.201000000000000156e+01
-1.753999999999999915e+01
-3.125000000000000000e+01
3.870000000000000284e+01
1.860000000000000142e+01
-2.896999999999999886e+01
3.553000000000000114e+01
1.233000000000000007e+01
-3.245000000000000284e+01
1.919999999999999929e+01
1.285999999999999943e+01
-2.276999999999999957e+01
-1.667000000000000171e+01
2.444000000000000128e+01
5.099999999999999645e+00
-3.023000000000000043e+01
1.131000000000000050e+01
4.482999999999999829e+01
-1.796999999999999886e+01
9.423000000000000398e+01
-1.130300000000000011e+02
-3.578000000000000114e+01
8.359999999999999432e+00
1.476999999999999957e+01
-9.759999999999999787e+00
-5.010000000000000142e+01
3.509000000000000341e+01
7.299999999999999822e+00
-1.917999999999999972e+01
1.214000000000000057e+01
2.050000000000000000e+01
-1.701999999999999957e+01
-4.442999999999999972e+01
1.644000000000000128e+01
-7.900000000000000355e-01
-5.392000000000000171e+01
4.282999999999999829e+01
5.990000000000000213e+00
-3.971000000000000085e+01
1.925000000000000000e+01
1.828000000000000114e+01
-1.199500000000000028e+02
-1.385999999999999943e+01
1.580500000000000114e+02
-2.345399999999999920e+02
1.289799999999999898e+02
-2.812300000000000182e+02
-3.511999999999999744e+01
7.640000000000000568e+01
8.857999999999999829e+01
4.396999999999999886e+01
-5.609000000000000341e+01
7.262999999999999545e+01
2.196000000000000085e+01
-5.956000000000000227e+01
5.482000000000000028e+01
4.134000000000000341e+01
-3.033999999999999986e+01
2.867000000000000171e+01
4.364000000000000057e+01
-5.049999999999999822e+00
-5.142000000000000171e+01
3.689000000000000057e+01
6.379999999999999893e+00
-4.229999999999999716e+01
3.007999999999999829e+01
8.970000000000000639e+00
-2.803000000000000114e+01
-1.630999999999999872e+01
1.574000000000000021e+01
-1.172000000000000064e+01
-5.682000000000000028e+01
3.436999999999999744e+01
6.190000000000000391e+00
-3.728000000000000114e+01
4.559999999999999609e+00
2.228000000000000114e+01
-8.810000000000000497e+00
-5.770000000000000284e+01
6.014999999999999858e+01
9.829000000000000625e+01
9.368000000000000682e+01
2.612000000000000099e+01
-5.043999999999999773e+01
-9.470000000000000639e+00
-6.299000000000000199e+01
-1.873000000000000043e+01
-1.415000000000000036e+01
-4.834000000000000341e+01
2.919999999999999929e+01
-6.535999999999999943e+01
-1.400600000000000023e+02
2.626499999999999773e+02
3.525000000000000000e+01
-1.187800000000000011e+02
-1.074000000000000057e+02
-5.335000000000000142e+01
-4.635000000000000142e+01
-1.639199999999999875e+02
3.483100000000000023e+02
3.863000000000000256e+01
-3.271399999999999864e+02
4.793999999999999773e+01
2.410200000000000102e+02
-1.367700000000000102e+02
-6.573999999999999488e+01
5.775000000000000000e+01
-2.226000000000000156e+01
-8.189999999999999503e+00
1.130300000000000011e+02
6.257000000000000028e+01
-4.542000000000000171e+01
-4.547999999999999687e+01
5.480000000000000426e+00
-4.257999999999999829e+01
1.028700000000000045e+02
4.802000000000000313e+01
-3.575000000000000000e+01
3.292000000000000171e+01
2.050000000000000000e+01
-2.942999999999999972e+01
-2.930000000000000071e+01
2.166000000000000014e+01
-2.237999999999999901e+01
-3.692000000000000171e+01
4.975999999999999801e+01
4.309999999999999609e+00
-1.267399999999999949e+02
1.433199999999999932e+02
4.857999999999999829e+01
-8.315999999999999659e+01
1.368999999999999950e+01
-1.600000000000000089e+00
-4.309000000000000341e+01
4.014499999999999886e+02
1.384300000000000068e+02
-1.756299999999999955e+02
-5.940999999999999659e+01
-8.726000000000000512e+01
-1.093900000000000006e+02
-7.792000000000000171e+01
1.068999999999999950e+01
-5.514999999999999858e+01
-2.442700000000000102e+02
-3.538000000000000256e+01
-5.582999999999999829e+01
-1.878499999999999943e+02
3.275699999999999932e+02
2.114699999999999989e+02
5.279999999999999716e+01
3.210899999999999750e+02
-2.808999999999999986e+01
-2.196000000000000085e+01
-3.167000000000000171e+01
8.067000000000000171e+01
-3.307999999999999829e+01
-1.182199999999999989e+02
8.851999999999999602e+01
4.036999999999999744e+01
-1.448600000000000136e+02
3.718999999999999773e+01
5.182999999999999829e+01
-6.720999999999999375e+01
1.502999999999999936e+01
1.326800000000000068e+02
-4.610000000000000320e+00
-2.479000000000000057e+02
1.799999999999999933e-01
8.618000000000000682e+01
1.061099999999999994e+02
1.178900000000000006e+02
2.099399999999999977e+02
-3.742400000000000091e+02
-3.101999999999999957e+01
-7.220999999999999375e+01
-6.353999999999999915e+01
-9.992000000000000171e+01
2.017100000000000080e+02
3.528000000000000114e+01
1.903000000000000114e+01
-6.468000000000000682e+01
-5.585999999999999943e+01
3.440999999999999659e+01
3.913000000000000256e+01
-3.900000000000000133e-01
2.939999999999999858e+01
-1.817000000000000171e+01
-1.097300000000000040e+02
1.611699999999999875e+02
1.119599999999999937e+02
1.405800000000000125e+02
2.027199999999999989e+02
-3.660099999999999909e+02
-8.620000000000000284e+01
-1.403999999999999915e+01
1.003499999999999943e+02
-5.403999999999999915e+01
2.866000000000000014e+01
4.606000000000000227e+01
3.864999999999999858e+01
1.223199999999999932e+02
8.401000000000000512e+01
-3.778000000000000114e+01
-1.710000000000000142e+01
-2.866000000000000014e+01
-4.657000000000000028e+01
-2.062000000000000099e+01
1.621999999999999886e+01
-2.273999999999999844e+01
-4.164000000000000057e+01
-1.264000000000000057e+01
-6.590000000000000568e+01
-4.017999999999999972e+01
-1.374000000000000057e+02
2.119600000000000080e+02
3.656100000000000136e+02
-1.456000000000000050e+01
2.600000000000000089e-01
-4.985000000000000142e+01
-2.311399999999999864e+02
-1.919000000000000057e+02
2.319000000000000057e+02
1.234000000000000057e+02
1.939999999999999947e+00
5.042000000000000171e+01
2.216100000000000136e+02
-1.677800000000000011e+02
