1593609973.00
64.000000
-0.00
-0.00
-0.00
-0.00
-0.00
-0.00
-0.00
-0.00
-0.00
-0.00
0.00
0.01
0.01
-0.00
-0.03
-0.05
-0.05
0.00
0.13
0.36
0.66
1.01
1.37
1.72
2.06
2.40
2.79
3.24
3.80
4.42
5.06
5.66
6.20
6.68
7.15
7.68
8.31
9.14
10.09
11.04
11.88
12.56
13.14
13.76
14.65
15.96
17.91
20.32
22.90
25.38
27.58
29.57
31.68
34.32
37.81
42.54
48.15
54.10
59.83
64.97
69.58
74.14
79.34
85.71
93.76
103.00
112.62
121.73
129.77
136.75
143.30
150.75
157.77
166.64
177.95
191.79
206.97
220.57
228.25
225.36
208.53
176.87
132.76
80.05
23.07
-34.94
-92.44
-149.16
-205.23
-260.37
-313.74
-363.87
-409.83
-450.91
-486.50
-515.74
-537.23
-549.22
-549.96
-538.37
-514.21
-478.67
-433.88
-382.45
-327.02
-269.84
-212.63
-156.66
-102.95
-52.37
-5.90
35.58
71.43
101.35
125.50
144.38
158.69
169.15
176.37
180.75
182.57
182.07
179.51
175.23
169.65
163.18
156.15
148.81
141.30
133.69
126.02
118.33
110.69
103.16
95.80
88.68
81.83
75.25
68.95
62.95
57.25
51.86
46.78
42.03
37.59
33.45
29.61
26.07
22.81
19.83
17.11
14.67
12.48
10.54
8.83
7.35
6.07
4.97
4.05
3.27
2.62
2.09
1.65
1.30
1.01
0.79
0.61
0.48
0.37
0.29
0.23
0.21
0.20
0.22
0.23
0.22
0.17
0.09
0.00
-0.07
-0.11
-0.09
-0.03
0.04
0.09
0.09
0.05
-0.01
-0.06
-0.07
-0.02
0.09
0.20
0.29
0.29
0.18
0.01
-0.15
-0.22
-0.13
0.11
0.39
0.57
0.55
0.28
-0.13
-0.49
-0.61
-0.35
0.20
0.82
1.20
1.12
0.51
-0.43
-1.31
-1.74
-1.48
-0.60
0.55
1.46
1.69
1.07
-0.19
-1.61
-2.67
-2.93
-2.29
-0.98
0.55
1.59
1.26
-1.41
-6.89
-14.63
-22.58
-27.62
-26.82
-18.83
-5.02
10.80
24.00
31.11
31.25
26.15
18.76
11.70
6.18
2.24
-0.49
-2.11
-2.50
-2.07
-2.01
-3.86
-8.32
-14.18
-18.58
-18.21
-11.34
0.91
14.70
25.19
28.70
24.22
13.55
0.08
-12.68
-22.27
-27.63
-28.74
-25.95
-19.73
-10.67
0.19
11.20
20.41
26.04
26.99
23.23
15.88
7.01
-0.94
-5.82
-6.53
-2.97
4.01
12.84
21.69
28.69
32.18
30.57
22.69
8.11
-11.80
-33.77
-53.42
-66.69
-71.45
-68.34
-60.35
-50.16
-41.10
-35.04
-32.01
-30.82
-30.19
-29.51
-28.85
-28.44
-28.12
-27.53
-26.19
-24.03
-21.73
-20.47
-21.38
-25.14
-31.64
-40.20
-49.97
-59.90
-69.00
-76.29
-81.05
-82.93
-82.29
-80.41
-79.24
-80.91
-86.47
-95.08
-103.85
-108.61
-105.31
-91.53
-67.44
-35.80
-1.31
30.81
56.03
71.59
77.03
74.21
66.76
59.10
55.24
57.78
67.57
83.75
104.39
127.10
149.51
169.54
185.42
195.98
200.72
199.97
194.78
186.55
176.70
166.29
156.05
146.53
138.31
131.76
126.44
120.62
111.38
95.73
72.22
42.19
9.65
-20.12
-42.90
-57.09
-63.83
-65.58
-64.32
-60.38
-52.91
-41.24
-26.25
-10.57
2.54
10.92
14.58
15.50
16.26
18.35
21.22
22.53
19.41
10.07
-5.18
-23.73
-41.65
-55.09
-61.76
-61.92
-58.14
-54.32
-53.97
-58.64
-67.19
-76.10
-81.05
-78.62
-67.59
-49.18
-26.45
-3.25
16.72
30.51
36.12
32.84
21.42
4.20
-15.23
-32.83
-45.18
-50.34
-48.12
-39.78
-27.63
-14.49
-3.31
3.44
4.51
0.66
-5.31
-9.28
-7.42
2.25
19.13
40.34
62.12
81.19
95.29
102.98
103.10
94.83
78.33
55.60
30.50
7.52
-10.05
-21.69
-29.60
-37.22
-46.99
-58.90
-70.45
-78.22
-79.81
-74.90
-65.15
-52.91
-39.99
-27.10
-14.32
-1.98
8.68
15.75
17.52
13.61
5.43
-4.21
-12.24
-16.57
-16.67
-13.50
-8.82
-4.58
-2.44
-3.54
-8.34
-16.20
-25.17
-32.30
-34.52
-29.94
-18.86
-3.95
10.72
21.27
25.32
22.71
14.98
4.38
-7.06
-17.97
-27.31
-33.88
-36.18
-32.89
-23.67
-10.03
4.74
16.49
21.78
19.24
10.26
-1.71
-12.62
-19.30
-20.54
-16.91
-10.21
-2.42
4.71
9.76
11.60
9.57
3.97
-3.62
-10.57
-14.17
-12.94
-7.62
-1.07
3.01
1.79
-5.35
-16.68
-29.11
-39.76
-46.87
-50.01
-49.41
-45.26
-37.56
-26.49
-13.05
0.89
12.98
21.32
25.26
25.53
23.71
21.34
19.15
16.97
14.17
10.22
5.05
-1.04
-7.70
-14.70
-21.80
-28.34
-33.09
-34.46
-31.34
-23.85
-13.65
-3.58
3.44
5.43
1.99
-5.86
-16.31
-27.45
-37.41
-44.38
-46.49
-41.99
-30.02
-11.24
11.88
35.55
55.85
70.08
77.50
79.32
77.82
75.31
73.32
72.35
72.18
72.17
71.43
68.74
62.41
50.52
31.50
5.11
-26.90
-60.69
-91.14
-113.39
-124.54
-125.05
-118.76
-111.65
-109.54
-115.83
-130.19
-149.06
-167.44
-180.93
-187.26
-186.56
-180.57
-171.55
-161.03
-149.05
-133.88
-112.73
-82.90
-43.47
3.70
53.94
100.99
138.59
161.98
168.99
160.38
139.69
112.50
85.15
62.75
47.35
37.00
26.95
12.86
-5.90
-24.64
-35.28
-30.39
-7.67
28.01
66.30
95.46
107.21
99.77
78.19
52.03
31.58
24.18
31.67
50.46
73.41
92.90
103.82
105.08
99.15
90.06
80.95
72.98
65.62
58.16
50.97
45.84
45.13
50.34
61.02
74.85
88.57
99.44
105.76
106.81
102.04
90.96
73.67
52.07
30.33
14.11
8.52
15.76
34.03
58.12
81.65
99.48
109.10
110.36
104.22
91.33
71.63
44.94
12.02
-24.57
-60.69
-91.57
-113.22
-123.58
-123.24
-115.22
-103.93
-93.72
-87.53
-86.21
-88.72
-93.09
-97.65
-101.85
-106.64
-114.06
-126.39
-145.12
-170.16
-199.43
-229.02
-254.17
-270.42
-274.97
-267.20
-248.66
-221.94
-189.43
-152.75
-112.84
-70.87
-28.79
10.75
45.49
74.69
99.41
121.69
142.98
163.21
180.96
194.66
203.84
209.37
212.69
214.72
215.37
214.00
210.29
204.69
197.80
189.36
177.62
160.12
135.41
104.49
70.87
39.08
12.35
-8.71
-25.64
-40.35
-53.17
-62.34
-65.06
-59.57
-46.71
-30.18
-15.02
-5.64
-4.21
-10.28
-21.64
-35.54
-49.44
-61.13
-68.50
-69.42
-62.11
-45.85
-21.55
8.27
39.84
68.90
91.38
103.86
104.12
91.65
67.92
36.09
-0.14
-37.84
-75.70
-113.55
-151.00
-185.93
-214.08
-230.42
-231.15
-215.51
-185.90
-146.90
-103.80
-61.70
-25.09
2.16
17.28
19.47
10.55
-5.30
-22.86
-37.72
-47.66
-52.61
-53.65
-51.97
-48.24
-42.87
-36.64
-30.76
-26.50
-24.39
-23.77
-22.98
-20.26
-14.62
-6.66
1.60
7.49
8.85
5.05
-2.69
-11.53
-17.87
-18.27
-10.37
6.49
30.95
59.64
87.77
110.22
122.94
124.28
115.65
101.16
86.15
75.42
71.77
75.68
85.83
100.14
116.61
133.57
149.42
162.26
169.85
170.16
162.09
146.09
124.26
99.90
76.72
57.80
44.77
37.26
32.90
27.97
18.53
1.70
-23.26
-54.55
-88.10
-118.61
-140.81
-150.92
-147.75
-133.11
-111.40
-88.41
-69.53
-58.16
-54.91
-57.81
-63.48
-68.58
-70.93
-69.80
-65.62
-59.35
-52.03
-44.68
-38.24
-33.61
-31.28
-30.98
-31.38
-30.19
-24.87
-13.63
3.61
24.87
46.60
64.88
76.75
81.02
78.14
69.39
56.11
39.53
21.30
4.20
-7.85
-10.96
-3.05
14.51
36.66
56.25
66.66
64.53
50.94
30.68
10.03
-5.76
-14.14
-15.36
-11.37
-4.31
4.55
14.94
26.88
39.81
52.08
61.16
64.61
61.04
50.77
35.87
19.47
4.96
-4.91
-8.95
-8.13
-5.77
-6.89
-16.71
-38.43
-71.33
-110.07
-145.87
-169.00
-171.80
-151.04
-108.75
-51.61
10.72
67.70
110.00
131.37
129.82
108.01
72.53
32.19
-4.18
-29.69
-40.80
-37.61
-23.48
-3.95
14.87
27.89
32.54
29.61
22.77
17.23
17.86
27.68
47.11
74.20
105.15
135.22
159.37
173.07
173.07
158.13
129.28
89.55
43.09
-5.77
-53.12
-95.59
-130.31
-154.92
-167.99
-169.57
-161.65
-147.78
-132.30
-119.13
-110.86
-108.20
-110.40
-115.76
-122.36
-128.28
-131.79
-131.27
-125.06
-111.72
-90.31
-61.33
-27.39
6.73
35.16
52.78
57.20
49.75
34.87
18.34
4.01
-8.09
-21.43
-40.49
-67.79
-101.95
-137.91
-168.91
-188.14
-192.35
-182.98
-165.22
-145.71
-130.52
-124.09
-128.61
-143.56
-163.19
-180.39
-189.22
-186.33
-170.86
-143.75
-107.28
-64.45
-18.11
33.46
91.27
154.00
218.34
281.09
340.32
394.76
443.03
483.85
521.48
559.05
595.86
627.09
646.69
650.41
637.07
608.92
540.26
424.64
278.54
132.71
10.75
-80.92
-146.93
-194.19
-227.64
-249.99
-258.21
-251.50
-233.73
-212.28
-194.06
-182.33
-177.06
-176.50
-178.69
-178.55
-173.16
-163.37
-151.41
-139.06
-126.41
-113.10
-99.71
-88.12
-78.23
-69.86
-63.13
-58.24
-54.97
-52.53
-50.34
-48.26
-46.51
-44.29
-41.33
-38.55
-37.86
-41.37
-48.85
-58.80
-68.14
-72.88
-68.92
-53.85
-28.34
3.59
35.57
60.87
74.77
76.02
66.60
50.36
31.31
12.32
-5.12
-20.25
-32.32
-39.76
-40.85
-35.25
-24.67
-12.41
-2.19
3.01
1.62
-6.29
-18.50
-31.27
-40.66
-43.60
-38.45
-25.37
-6.31
16.18
35.97
47.53
49.98
46.64
41.12
35.01
28.29
20.82
13.47
7.81
6.16
9.92
18.26
28.49
37.40
43.03
45.37
46.70
49.17
55.46
67.72
86.46
109.94
134.24
153.89
163.13
157.67
135.85
100.54
57.96
15.23
-22.31
-52.84
-78.25
-103.17
-129.69
-159.47
-191.42
-221.49
-243.84
-252.92
-245.13
-219.68
-178.27
-124.26
-62.18
3.20
66.61
122.31
164.81
190.50
199.03
193.53
179.19
160.41
139.06
113.73
81.04
38.07
-14.97
-73.47
-129.11
-172.13
-194.43
-191.64
-164.74
-120.12
-68.30
-20.86
12.81
28.28
26.93
14.35
-2.72
-19.50
-34.53
-48.92
-64.01
-79.51
-93.45
-104.07
-112.32
-122.69
-141.50
-173.39
-218.02
-269.22
-317.12
-352.11
-368.44
-365.83
-348.53
-322.62
-293.20
-262.79
-231.54
-198.48
-163.00
-125.67
-87.99
-51.45
-16.64
17.10
51.23
87.03
124.78
163.39
201.00
235.69
266.61
294.57
322.11
352.72
389.58
434.00
484.31
535.64
580.85
612.48
625.01
616.53
589.17
548.01
499.20
447.93
397.34
348.45
301.03
254.68
209.57
166.43
125.95
88.21
52.43
17.21
-18.86
-56.50
-95.75
-136.37
-178.28
-221.65
-266.23
-310.44
-350.92
-383.17
-403.08
-408.67
-400.96
-383.55
-361.24
-338.54
-318.76
-304.03
-295.76
-294.98
-301.88
-315.11
-331.14
-344.76
-350.38
-343.94
-324.15
-292.84
-253.95
-211.82
-169.69
-128.76
-88.34
-46.68
-2.17
45.55
95.15
143.84
188.30
225.75
254.87
276.08
291.07
301.84
309.65
314.68
316.34
313.88
306.76
294.64
277.07
253.40
223.26
187.31
147.76
108.00
71.66
41.23
17.63
0.29
-12.05
-20.63
-26.68
-31.50
-36.66
-43.40
-51.82
-60.36
-66.30
-67.18
-62.38
-53.82
-45.24
-40.47
-41.47
-47.48
-55.53
-62.06
-64.60
-62.54
-56.85
-49.09
-40.49
-31.66
-23.00
-15.33
-10.03
-8.75
-12.53
-21.17
-32.93
-45.18
-55.37
-61.97
-64.93
-65.39
-64.96
-65.02
-66.30
-68.87
-72.48
-76.70
-80.88
-84.02
-84.68
-81.13
-71.51
-54.80
-31.55
-3.96
24.80
51.77
74.85
93.02
106.05
114.46
119.18
121.25
121.49
120.31
117.84
113.63
106.77
96.06
81.50
63.97
44.87
25.26
5.71
-12.52
-28.38
-41.39
-52.67
-62.30
-70.07
-75.81
-80.17
-84.40
-87.91
-90.24
-91.32
-93.04
-93.42
-88.73
-75.48
-53.19
-24.53
8.90
44.21
77.25
100.57
112.96
117.07
117.69
118.50
122.27
135.18
161.71
202.06
247.57
292.80
333.65
367.57
391.84
378.69
314.45
208.03
112.84
42.81
-1.94
-32.86
-53.83
-67.15
-74.25
-72.27
-59.99
-40.42
-24.51
-18.12
-23.35
-38.70
-61.88
-89.54
-114.35
-130.01
-133.96
-131.24
-124.90
-116.93
-107.78
-97.94
-87.48
-74.27
-57.08
-36.72
-17.60
-1.02
14.02
29.96
48.21
68.53
90.08
111.11
129.50
142.50
149.42
150.42
145.59
133.97
114.17
85.88
50.14
9.34
-33.81
-76.22
-115.40
-149.93
-179.34
-203.59
-222.23
-234.33
-238.88
-235.77
-226.37
-213.52
-200.76
-191.00
-185.70
-184.07
-183.38
-180.27
-172.44
-159.59
-143.09
-125.07
-107.12
-90.22
-73.97
-57.07
-38.50
-18.75
-0.05
15.21
25.56
31.28
33.02
31.99
29.67
27.17
24.83
22.27
19.76
18.00
17.20
14.84
7.40
-7.49
-29.47
-55.23
-79.68
-96.83
-102.21
-88.38
-56.13
-15.25
22.22
50.63
75.24
101.43
131.69
162.72
189.32
205.47
208.10
198.91
183.19
166.63
152.13
139.86
128.07
115.11
100.07
84.74
73.40
70.53
77.99
93.29
110.92
124.22
127.63
117.46
93.31
57.94
16.11
-26.97
-66.81
-99.49
-122.03
-132.92
-133.21
-126.24
-116.68
-108.99
-105.94
-107.80
-112.23
-115.66
-114.85
-108.29
-96.18
-79.74
-60.41
-39.52
-18.52
0.88
16.64
26.76
29.89
25.96
16.30
3.24
-10.82
-24.21
-36.43
-47.95
-59.58
-71.80
-84.35
-96.42
-107.13
-116.12
-123.86
-131.36
-139.37
-147.67
-154.73
-158.00
-154.85
-143.54
-123.77
-96.45
-62.97
-24.52
18.00
63.37
109.13
151.22
184.53
204.57
209.31
200.19
181.86
160.47
141.50
128.14
120.69
117.16
114.59
110.27
102.43
90.49
74.92
57.00
38.49
21.13
6.17
-6.06
-16.29
-26.00
-36.80
-49.69
-64.49
-79.80
-93.37
-102.89
-106.73
-104.51
-97.21
-86.77
-75.39
-64.82
-55.96
-48.85
-42.96
-37.71
-32.69
-27.72
-22.79
-17.92
-13.19
-8.74
-4.82
-1.81
-0.08
0.19
-0.72
-1.77
-1.15
3.55
14.71
33.83
60.71
93.04
126.78
156.99
179.05
189.56
186.86
171.20
144.59
110.65
74.08
39.76
11.51
-9.01
-22.89
-33.48
-45.00
-60.72
-81.58
-105.58
-128.51
-145.31
-151.78
-145.72
-127.38
-99.06
-64.22
-26.55
10.67
44.80
73.77
96.06
110.79
118.04
118.91
115.28
109.24
102.26
94.89
86.88
77.69
66.97
54.85
41.71
27.84
13.28
-2.01
-17.64
-32.43
-44.57
-52.18
-54.17
-50.91
-44.16
-36.39
-29.75
-25.22
-22.51
-20.46
-17.82
-13.87
-8.56
-2.27
4.57
11.65
18.73
25.42
31.00
34.45
34.71
31.03
23.27
11.94
-1.98
-17.15
-31.99
-44.63
-53.07
-55.49
-50.90
-39.90
-24.99
-10.19
0.24
3.42
-0.86
-9.99
-19.53
-25.07
-23.96
-16.03
-3.36
10.75
22.82
30.11
31.08
25.69
15.38
2.56
-10.20
-21.40
-31.23
-41.37
-53.80
-69.29
-86.33
-101.48
-110.76
-111.39
-102.91
-86.95
-66.25
-43.41
-20.32
1.68
21.34
37.08
47.26
50.64
47.01
37.25
22.90
5.66
-12.90
-30.97
-46.01
-54.35
-51.88
-35.45
-4.63
37.23
83.40
125.62
156.72
172.69
173.33
161.40
141.11
116.72
92.01
70.29
54.54
47.00
48.42
57.26
69.62
80.21
84.08
78.36
63.16
41.19
16.42
-7.50
-28.12
-44.41
-56.11
-63.27
-66.08
-65.36
-62.98
-61.77
-64.59
-72.87
-85.57
-99.19
-108.91
-110.45
-101.64
-83.13
-57.88
-29.96
-3.14
20.03
38.28
51.23
58.70
60.41
56.13
46.20
32.04
16.18
1.69
-8.90
-14.56
-16.16
-15.89
-16.11
-18.15
-21.85
-25.79
-28.23
-28.07
-25.31
-20.93
-16.32
-12.75
-11.11
-12.01
-15.94
-23.20
-33.65
-46.32
-59.36
-70.49
-77.78
-80.43
-79.16
-75.81
-72.54
-70.78
-70.75
-71.51
-71.73
-70.38
-67.11
-62.05
-55.29
-46.45
-34.88
-20.19
-2.91
15.27
31.95
44.98
53.30
57.47
59.33
61.12
64.57
70.42
78.36
87.35
96.13
103.50
108.69
111.33
111.30
108.54
103.00
94.84
84.77
74.35
65.86
61.99
64.83
74.77
89.85
106.14
119.03
124.98
122.91
114.21
102.37
91.16
82.56
76.08
69.46
60.45
48.30
34.37
20.71
9.87
3.26
-0.09
-3.16
-9.06
-18.90
-30.79
-40.36
-43.85
-38.58
-25.08
-8.18
4.15
3.99
-13.54
-48.88
-97.80
-154.19
-208.80
-251.27
-273.41
-271.40
-246.39
-204.19
-154.60
-101.42
-56.75
-31.33
-25.34
-28.08
-26.18
-11.76
14.69
44.15
68.73
81.03
78.68
64.06
41.34
13.96
-15.97
-44.84
-68.05
-80.51
-79.60
-64.12
-35.68
-0.01
34.87
61.69
77.17
81.16
76.50
66.61
56.16
49.94
50.43
58.43
73.53
95.72
122.16
148.33
168.48
178.95
179.02
169.02
151.09
128.57
106.89
87.90
71.15
54.44
36.58
17.44
-4.77
-31.63
-63.67
-97.32
-130.90
-163.20
-193.70
-221.08
-230.82
-213.76
-171.10
-130.11
-100.29
-85.61
-81.72
-87.80
-102.09
-121.08
-141.51
-159.13
-169.18
-165.37
-147.07
-117.90
-84.42
-52.15
-24.21
-2.55
13.08
24.48
35.84
48.21
60.57
70.35
75.87
76.76
73.19
66.12
57.09
48.88
42.50
38.19
35.49
34.28
34.45
35.48
35.81
33.24
26.89
16.93
5.43
-5.80
-16.60
-29.29
-46.64
-71.43
-104.62
-143.24
-181.22
-210.58
-226.08
-227.00
-216.08
-195.05
-166.07
-132.14
-96.39
-61.48
-27.68
5.06
37.29
71.62
114.98
171.58
238.82
307.66
365.86
404.44
418.05
406.25
356.20
271.37
171.87
81.21
15.10
-37.62
-87.69
-140.55
-195.78
-247.33
-284.22
-298.94
-291.31
-267.00
-234.15
-198.13
-158.40
-120.18
-88.71
-61.29
-32.83
-3.04
23.38
43.58
60.19
78.69
104.32
140.91
190.43
248.73
305.20
347.11
364.95
356.75
327.37
285.56
241.18
203.14
175.16
154.72
135.70
111.80
78.90
35.05
-19.83
-83.58
-149.61
-208.76
-252.05
-273.32
-270.77
-247.42
-210.05
-162.20
-113.75
-74.64
-49.21
-35.65
-30.34
-30.32
-33.76
-38.72
-42.94
-45.00
-43.29
-37.06
-27.00
-15.46
-3.83
6.18
14.02
20.61
27.47
37.06
51.00
68.65
86.39
99.84
104.99
99.61
83.98
60.35
33.01
5.04
-18.27
-31.69
-30.58
-13.62
15.53
48.99
76.90
91.25
88.37
70.19
38.77
2.17
-29.56
-50.52
-61.51
-67.39
-72.36
-78.12
-83.90
-88.30
-91.00
-91.65
-91.25
-90.74
-90.23
-88.66
-85.06
-79.06
-71.70
-64.31
-57.52
-52.32
-47.90
-41.67
-30.30
-12.40
10.56
34.57
55.96
72.26
82.77
88.77
88.61
81.28
66.56
46.57
25.72
9.86
2.55
3.43
9.27
15.80
20.55
23.56
28.41
38.33
56.01
80.37
106.50
127.24
135.63
127.74
103.81
68.23
23.90
-18.72
-50.21
-66.89
-71.15
-68.38
-63.21
-57.95
-52.93
-48.02
-42.76
-38.04
-34.90
-33.35
-32.47
-31.11
-28.84
-26.33
-24.73
-24.27
-24.82
-25.55
-25.23
-22.89
-18.65
-13.85
-10.25
-9.31
-11.48
-16.83
-24.79
-33.51
-39.52
-38.22
-25.67
-1.45
30.60
61.82
81.34
81.08
60.11
25.67
-10.01
-35.69
-46.13
-43.84
-36.23
-30.44
-29.04
-29.11
-25.24
-13.47
4.96
24.68
39.16
44.67
42.09
35.86
30.92
29.69
31.30
32.80
31.82
28.45
25.45
26.57
33.60
44.58
53.55
53.59
39.79
12.62
-22.45
-57.53
-85.85
-104.08
-112.02
-111.01
-101.88
-84.28
-57.90
-24.78
10.62
42.70
66.78
81.53
88.50
88.38
81.03
66.11
43.91
16.96
-10.10
-32.40
-46.63
-53.67
-58.21
-66.08
-78.71
-93.41
-104.37
-105.31
-92.65
-67.56
-35.72
-4.48
20.71
38.37
50.42
60.37
70.59
80.70
87.44
86.10
73.03
47.72
13.26
-24.71
-59.52
-85.42
-97.96
-95.29
-79.98
-58.50
-38.80
-27.07
-25.37
-30.96
-38.09
-40.79
-35.51
-21.74
-0.94
24.98
54.52
86.11
117.33
144.65
164.16
172.90
170.06
157.38
138.26
116.32
94.02
72.05
49.61
24.87
-4.81
-42.50
-90.48
-148.66
-212.89
-274.65
-322.80
-346.89
-340.67
-304.05
-242.79
-166.07
-83.76
-4.50
64.79
118.53
152.84
166.33
161.29
143.60
121.48
103.09
94.06
96.35
108.27
126.09
145.54
163.36
177.44
187.03
192.58
195.41
197.09
197.97
197.53
194.23
186.39
172.29
150.80
122.30
89.04
54.61
21.70
-7.83
-33.52
-55.63
-75.18
-91.88
-103.54
-107.18
-101.31
-88.98
-74.98
-66.93
-65.66
-68.66
-73.84
-79.75
-86.35
-92.27
-100.07
-112.33
-130.06
-151.25
-171.77
-189.41
-203.03
-211.84
-204.94
-176.41
-127.61
-67.94
-16.19
23.55
49.51
61.22
60.83
52.09
38.73
24.45
11.49
0.77
-8.07
-19.12
-37.11
-64.87
-101.83
-144.75
-187.05
-219.73
-232.79
-219.03
-179.40
-121.48
-55.28
11.14
72.60
126.23
169.61
200.36
216.34
215.78
200.49
177.32
155.55
141.02
132.21
116.21
83.23
36.47
-7.84
-32.09
-30.77
-11.31
13.60
32.24
39.83
39.19
39.37
49.16
70.51
96.76
116.27
118.10
96.71
54.43
0.12
-55.80
-106.29
-149.38
-186.02
-216.61
-239.87
-254.04
-257.97
-252.39
-240.41
-227.27
-218.73
-218.81
-227.82
-241.82
-253.93
-255.31
-239.43
-204.97
-156.92
-105.02
-60.45
-31.85
-22.47
-29.10
-41.21
-47.74
-41.20
-19.40
15.53
59.24
107.45
157.16
207.10
260.20
316.03
369.76
414.12
443.85
458.43
462.39
463.16
468.06
485.45
514.90
547.49
570.59
574.56
556.21
518.80
469.20
384.44
262.74
122.42
-8.41
-110.88
-180.73
-222.77
-243.86
-254.40
-262.21
-268.65
-276.82
-289.82
-309.01
-329.50
-343.53
-343.66
-326.50
-293.66
-242.48
-182.17
-127.20
-87.59
-63.92
-51.31
-44.91
-42.76
-44.43
-47.35
-49.82
-49.85
-45.74
-36.45
-22.56
-6.68
6.63
12.22
7.47
-9.52
-37.20
-70.94
-104.94
-134.95
-159.49
-179.01
-193.52
-200.61
-195.54
-172.92
-129.96
-69.02
2.09
72.60
132.35
175.11
193.87
186.59
156.31
109.94
56.73
6.30
-33.22
-56.68
-62.70
-53.40
-32.27
-3.08
31.01
67.81
105.67
142.87
177.21
206.14
227.26
239.89
244.52
242.31
234.12
219.72
197.97
167.67
128.63
82.12
30.91
-22.10
-74.71
-125.35
-172.33
-213.16
-244.70
-264.18
-270.42
-264.30
-248.46
-226.04
-199.30
-168.90
-134.34
-95.05
-51.56
-6.25
36.90
73.03
97.62
107.73
102.86
85.21
59.05
29.89
3.05
-17.56
-30.47
-37.05
-41.43
-49.35
-66.05
-93.84
-130.17
-167.23
-193.95
-199.73
-178.65
-132.24
-69.41
-3.42
52.59
89.68
104.97
101.15
84.08
60.22
34.82
11.56
-7.00
-18.69
-21.63
-14.61
2.08
26.22
53.75
79.83
100.24
112.84
118.10
118.76
118.26
118.94
120.80
121.43
117.24
105.20
84.31
56.22
24.87
-4.68
-27.66
-40.86
-43.57
-37.87
-28.23
-20.44
-19.83
-29.43
-48.77
-73.88
-98.62
-116.82
-124.33
-120.13
-106.05
-85.57
-62.45
-39.75
-19.66
-3.64
7.27
12.47
12.33
8.35
2.98
-1.17
-2.39
-0.64
2.28
3.35
-0.69
-12.30
-32.15
-58.47
-86.79
-110.45
-122.03
-115.80
-89.97
-48.15
1.43
48.55
84.59
105.47
112.55
111.02
106.87
103.96
102.68
100.63
94.67
83.17
67.12
49.82
35.39
27.05
25.89
30.69
38.74
47.04
53.48
57.28
58.91
59.54
60.40
62.35
65.73
70.26
74.91
78.02
77.72
72.68
62.68
48.65
32.11
14.29
-4.21
-23.13
-41.74
-58.41
-71.04
-78.18
-79.84
-77.49
-73.03
-67.46
-60.25
-49.93
-35.42
-17.14
2.76
21.42
36.48
46.79
52.34
53.71
51.51
46.19
38.15
27.91
16.05
3.05
-10.88
-26.07
-43.71
-65.75
-94.06
-128.88
-167.13
-201.81
-223.37
-223.02
-196.85
-148.36
-88.00
-29.47
15.52
41.40
49.94
48.08
43.83
42.56
45.40
50.20
53.98
55.36
55.53
57.40
63.62
74.73
88.34
100.19
106.16
104.41
96.37
86.18
78.65
76.92
80.91
87.33
91.16
87.61
74.03
50.86
21.69
-7.75
-31.21
-43.71
-43.32
-31.99
-15.34
-0.99
3.93
-4.72
-26.50
-56.44
-86.58
-108.92
-117.97
-112.23
-93.88
-67.25
-37.00
-6.89
20.47
43.45
60.34
69.20
68.62
58.81
42.10
22.51
4.30
-9.53
-17.64
-21.67
-26.12
-37.08
-59.69
-95.53
-141.04
-187.54
-223.43
-236.41
-219.64
-174.93
-112.21
-45.28
13.49
56.92
84.05
98.60
108.42
119.36
132.90
146.74
157.92
165.35
170.23
175.01
182.04
195.82
218.22
247.16
277.39
303.00
319.65
325.04
318.71
283.16
212.58
116.44
14.90
-74.88
-146.08
-198.72
-233.93
-251.77
-253.93
-240.58
-215.60
-187.12
-164.41
-153.05
-152.46
-157.38
-161.41
-160.43
-151.26
-135.02
-116.50
-101.49
-93.49
-92.19
-94.48
-96.63
-96.13
-90.87
-81.04
-68.80
-56.84
-46.53
-37.17
-26.75
-13.36
3.76
24.72
48.06
70.70
88.38
96.62
92.14
74.28
46.14
14.56
-11.32
-23.63
-19.00
0.00
26.06
50.37
66.32
71.83
69.28
63.61
59.49
59.32
62.82
67.91
72.43
75.49
77.82
81.18
86.99
95.06
103.24
108.18
107.02
98.98
86.13
72.59
62.82
59.56
62.58
68.87
73.76
72.39
60.98
37.84
4.04
-36.12
-75.58
-106.25
-121.62
-119.40
-103.03
-80.67
-62.36
-55.94
-64.06
-83.32
-106.10
-123.97
-130.97
-125.49
-109.76
-88.01
-64.19
-40.64
-18.19
2.72
20.94
34.04
39.19
34.73
21.29
1.97
-18.76
-36.84
-50.15
-59.16
-66.52
-75.80
-89.82
-109.12
-131.29
-151.35
-163.30
-162.29
-146.54
-118.15
-82.34
-45.50
-12.88
13.02
32.74
48.72
63.54
78.34
92.19
102.70
107.47
105.49
98.10
88.51
80.49
76.68
77.38
80.65
83.48
83.51
80.32
75.57
72.13
72.41
76.92
83.85
89.51
89.52
80.40
60.80
32.48
0.27
-29.11
-49.01
-55.36
-48.43
-33.33
-18.31
-11.72
-18.48
-38.10
-64.76
-89.87
-105.64
-107.94
-97.36
-77.98
-54.83
-31.64
-9.86
10.68
30.15
47.43
60.00
65.27
62.37
53.02
41.16
31.13
25.73
24.93
25.90
24.16
15.10
-4.71
-36.65
-79.32
-128.33
-176.44
-214.73
-234.86
-231.69
-205.34
-161.36
-108.67
-56.31
-10.48
26.53
55.34
77.15
91.82
97.60
92.74
77.71
56.49
35.94
23.22
22.79
34.37
53.23
72.58
86.81
93.89
95.74
96.56
100.07
107.33
116.17
122.18
120.55
107.81
82.95
47.87
7.28
-32.12
-63.16
-80.42
-82.31
-72.12
-57.02
-45.07
-41.71
-47.40
-57.83
-66.43
-67.75
-59.98
-44.96
-26.47
-7.73
9.96
27.02
44.06
60.24
72.70
77.55
71.92
55.74
32.18
6.64
-15.39
-30.37
-37.90
-40.69
-43.72
-52.78
-72.66
-105.14
-147.39
-191.56
-226.18
-239.57
-224.27
-180.41
-116.45
-46.42
15.12
58.18
80.01
84.46
78.76
69.87
62.10
56.88
54.06
53.49
55.78
61.94
72.37
85.98
100.08
111.25
116.68
115.27
107.99
97.53
87.25
79.91
76.65
76.58
77.23
75.36
68.03
53.62
32.38
6.90
-18.28
-37.68
-46.66
-43.41
-30.25
-13.53
-1.59
-1.53
-16.13
-42.56
-73.43
-99.82
-114.90
-116.15
-105.53
-87.63
-67.07
-46.61
-26.84
-7.36
11.66
28.51
40.32
44.57
40.72
30.79
18.73
8.75
3.59
3.77
7.53
11.63
12.01
4.54
-13.88
-43.80
-81.73
-119.91
-147.84
-155.96
-139.43
-100.65
-48.57
4.63
48.04
75.36
85.76
82.35
69.51
51.08
29.80
8.13
-10.90
-23.52
-26.10
-16.68
3.89
31.59
60.37
84.21
99.22
104.96
104.32
101.94
101.90
105.77
111.88
116.04
113.31
99.91
74.83
40.36
1.73
-34.33
-61.44
-75.67
-76.86
-68.94
-58.65
-53.11
-57.01
-70.70
-89.90
-107.47
-116.41
-112.64
-96.46
-71.89
-44.41
-18.48
4.00
23.43
40.97
56.75
69.14
75.53
74.14
65.36
51.92
37.57
25.27
15.89
8.15
-0.39
-12.15
-28.96
-51.83
-80.82
-114.30
-148.17
-175.73
-189.22
-182.64
-154.80
-110.62
-59.65
-12.40
23.80
47.11
60.52
69.01
76.27
82.95
87.23
86.88
81.48
73.19
65.90
63.20
66.63
74.86
84.44
91.57
93.85
91.37
86.62
83.10
83.61
88.73
96.47
102.97
104.00
96.28
78.36
51.07
17.38
-17.91
-49.11
-70.99
-80.39
-77.54
-66.35
-53.34
-45.51
-47.83
-61.34
-82.74
-105.53
-122.40
-127.74
-119.42
-99.16
-71.52
-41.96
-15.04
6.57
22.03
31.37
34.57
31.53
22.51
8.85
-6.93
-21.75
-33.25
-40.80
-45.76
-50.90
-59.13
-72.08
-89.21
-107.54
-122.39
-128.88
-123.54
-105.81
-78.38
-46.40
-15.72
9.24
26.85
38.49
47.26
56.15
66.40
77.07
85.79
90.35
90.17
86.67
82.61
80.56
81.63
84.97
88.35
89.51
87.36
82.61
77.42
74.33
75.09
79.74
86.29
91.21
90.40
80.57
60.68
32.83
2.13
-24.84
-42.24
-47.33
-41.53
-29.86
-18.93
-14.44
-19.17
-32.26
-49.91
-66.93
-78.60
-82.07
-76.96
-65.01
-49.13
-32.21
-16.32
-2.51
8.73
16.85
21.05
20.62
15.70
7.60
-1.48
-9.47
-15.40
-19.90
-24.93
-33.00
-46.44
-66.61
-93.09
-123.01
-150.89
-169.47
-171.91
-154.44
-118.57
-71.09
-21.87
19.88
48.87
65.00
72.14
75.29
77.91
80.77
82.62
81.97
78.67
74.35
71.51
72.11
76.31
82.33
87.26
88.60
85.54
79.37
72.90
69.03
69.31
73.03
77.48
78.93
74.05
61.11
40.69
15.62
-9.58
-29.98
-41.75
-43.30
-36.03
-23.86
-12.09
-5.61
-7.23
-16.82
-31.56
-47.18
-59.55
-66.15
-66.54
-62.00
-54.42
-45.30
-35.21
-24.13
-12.24
-0.68
8.46
12.95
11.64
5.24
-3.88
-12.66
-18.74
-21.40
-21.69
-21.97
-25.21
-34.19
-50.77
-74.94
-104.01
-132.45
-153.01
-159.07
-147.36
-119.57
-81.93
-42.62
-8.44
17.58
36.44
51.31
64.87
77.68
88.14
94.07
94.58
90.97
86.13
83.05
83.21
85.92
88.80
89.14
85.38
77.94
69.03
61.64
58.17
59.18
63.13
66.89
66.88
60.30
46.10
25.44
1.59
-20.89
-37.43
-44.98
-43.23
-35.04
-25.69
-21.04
-25.27
-39.19
-59.85
-81.81
-99.23
-107.98
-106.69
-96.47
-79.70
-58.83
-35.79
-12.14
10.42
29.72
43.36
49.63
48.44
41.60
32.26
23.76
18.43
16.81
17.65
18.17
14.77
3.95
-16.45
-45.86
-80.11
-111.85
-132.62
-135.88
-119.74
-87.81
-47.64
-7.59
26.25
51.48
68.57
78.76
82.36
78.45
66.21
46.72
23.76
3.02
-10.05
-12.37
-4.48
10.05
26.29
40.23
50.08
56.53
61.80
68.08
76.19
84.94
91.50
92.31
84.52
67.19
42.10
13.62
-12.42
-30.67
-38.17
-35.47
-26.57
-17.35
-13.38
-17.94
-30.85
-48.84
-66.84
-79.91
-84.80
-80.70
-69.04
-52.39
-33.51
-14.55
2.97
17.80
28.46
33.20
30.73
21.02
5.90
-11.20
-26.32
-36.42
-40.58
-40.35
-39.34
-41.96
-51.90
-70.52
-95.74
-121.96
-141.36
-146.36
-132.53
-100.52
-56.19
-8.61
33.19
63.24
80.04
86.08
85.71
82.96
80.07
77.40
74.35
70.52
66.35
63.06
61.87
63.33
66.85
70.90
73.64
73.74
70.89
65.91
60.30
55.48
52.15
49.93
47.54
43.40
36.26
25.66
11.94
-3.88
-20.27
-35.37
-47.09
-53.63
-54.03
-48.77
-40.08
-31.49
-26.72
-28.32
-36.55
-49.16
-62.11
-71.14
-73.24
-67.59
-55.37
-39.00
-20.89
-2.78
14.32
29.73
42.46
51.10
54.35
51.85
44.69
35.24
26.12
19.05
14.19
10.16
4.73
-4.36
-18.95
-40.05
-67.40
-98.66
-128.90
-151.12
-158.03
-144.92
-112.01
-65.16
-13.99
31.47
64.23
82.09
87.05
83.14
74.13
62.28
48.67
34.24
20.75
10.77
6.78
10.01
19.62
32.82
45.85
55.47
60.13
60.42
58.60
57.43
58.78
62.82
67.96
71.44
70.32
62.51
47.44
26.52
2.77
-19.95
-38.27
-50.47
-57.06
-60.40
-63.44
-68.27
-75.01
-81.78
-85.66
-84.05
-75.99
-62.59
-46.54
-30.91
-17.83
-7.74
0.49
8.71
18.19
28.61
38.01
43.65
43.47
37.26
27.10
16.50
9.01
6.71
9.36
14.40
17.66
14.69
2.27
-20.16
-49.63
-79.83
-102.70
-110.97
-100.82
-73.61
-35.60
4.14
36.87
56.92
62.87
56.97
43.31
25.93
7.77
-9.29
-23.66
-33.39
-36.16
-30.04
-14.67
7.98
33.77
57.57
75.04
84.25
86.24
84.39
82.77
84.24
89.14
95.15
98.17
93.80
79.05
53.66
20.57
-14.61
-45.26
-65.98
-74.54
-72.74
-65.64
-59.47
-59.12
-66.30
-79.21
-93.62
-104.91
-109.83
-107.43
-98.79
-86.02
-70.96
-54.57
-36.98
-18.27
0.65
17.67
30.00
35.47
33.73
26.67
17.79
10.70
7.60
8.48
11.27
12.52
8.43
-4.06
-26.27
-56.59
-89.88
-117.99
-131.87
-124.78
-95.27
-48.40
5.68
55.24
91.07
109.21
111.33
102.75
89.48
75.80
63.40
52.20
41.92
33.34
28.42
29.33
36.86
49.42
63.24
73.92
78.47
76.84
72.01
68.51
70.20
78.18
90.08
100.69
103.89
94.80
71.74
37.19
-2.80
-40.22
-67.71
-81.01
-80.58
-71.63
-62.36
-60.85
-71.90
-95.03
-124.53
-151.69
-168.05
-168.49
-152.65
-124.24
-88.97
-52.02
-16.61
16.03
45.42
70.51
89.14
98.76
98.00
87.96
72.43
56.79
46.07
42.96
46.72
53.22
55.99
48.23
25.09
-13.96
-63.85
-114.18
-151.62
-164.15
-145.49
-97.99
-32.40
35.58
90.61
122.38
128.02
111.39
80.23
42.88
5.95
-26.23
-51.04
-66.48
-70.72
-62.40
-41.50
-10.48
25.69
60.45
87.67
103.84
109.27
108.02
105.83
107.41
113.89
122.24
126.46
120.13
99.24
63.92
18.56
-29.51
-72.24
-103.21
-119.12
-120.48
-111.16
-97.11
-84.52
-77.91
-78.76
-85.15
-92.75
-96.53
-93.05
-81.62
-64.09
-43.76
-23.55
-5.08
11.49
26.67
40.47
51.83
58.92
60.19
55.25
45.36
33.05
21.05
11.40
4.91
0.95
-2.00
-5.76
-11.86
-20.96
-32.58
-45.23
-56.76
-64.90
-67.85
-64.44
-54.01
-36.25
-10.91
21.78
60.27
100.83
137.42
162.55
169.14
152.86
113.93
57.88
-5.35
-63.79
-106.71
-127.35
-124.61
-102.69
-68.83
-30.66
6.15
38.81
66.54
89.21
106.01
114.98
113.56
99.85
73.63
36.83
-6.32
-49.86
-87.18
-112.84
-124.31
-122.89
-113.36
-102.28
-95.48
-96.02
-103.26
-113.40
-121.01
-121.21
-111.11
-90.62
-62.28
-30.13
1.59
29.44
51.46
66.95
75.88
78.48
74.92
65.61
51.80
35.81
20.47
8.42
1.12
-1.94
-3.19
-6.29
-14.64
-29.73
-49.94
-70.64
-85.49
-88.85
-77.99
-54.20
-22.18
11.94
42.92
67.83
86.05
98.10
104.29
103.93
95.79
79.20
55.34
27.76
1.81
-16.80
-23.83
-17.92
-1.18
21.58
44.38
62.14
72.20
74.88
72.76
69.19
66.54
65.27
64.04
60.61
52.97
40.23
22.99
3.19
-16.44
-32.99
-44.09
-48.65
-47.42
-43.15
-40.01
-42.30
-52.68
-70.72
-92.58
-112.12
-123.10
-121.50
-107.05
-83.03
-54.69
-27.20
-3.95
13.91
26.71
35.05
39.04
38.54
34.03
27.21
20.87
17.86
19.74
25.94
33.90
40.00
40.68
33.53
17.93
-4.59
-30.48
-54.59
-71.37
-76.40
-67.81
-46.92
-17.80
14.06
43.33
65.81
78.59
79.86
69.03
47.04
17.01
-15.69
-44.31
-62.44
-66.04
-54.64
-31.41
-1.92
27.73
52.79
70.91
82.21
88.65
92.74
96.21
99.17
100.09
96.49
86.11
68.08
43.52
15.47
-11.94
-34.76
-50.30
-57.86
-58.64
-55.30
-51.01
-48.56
-49.62
-54.32
-61.20
-67.83
-71.55
-70.39
-63.54
-51.40
-35.08
-16.09
4.00
23.57
40.73
53.45
59.94
59.44
52.64
41.80
30.02
20.26
14.25
11.75
10.17
4.87
-9.55
-37.18
-78.20
-127.20
-173.53
-204.36
-209.35
-185.02
-136.39
-75.17
-15.10
32.94
64.03
79.10
82.52
79.03
71.86
62.54
51.96
41.61
33.78
30.99
34.70
44.47
57.73
70.71
79.93
83.55
82.02
77.70
73.58
71.74
72.24
73.04
70.95
62.93
47.50
25.41
-0.40
-25.70
-46.14
-58.59
-62.00
-57.70
-48.88
-39.56
-33.28
-32.19
-36.41
-44.26
-52.85
-59.01
-60.22
-55.22
-44.30
-29.00
-11.54
5.92
21.75
34.99
45.04
51.37
53.40
50.78
43.80
33.59
21.96
10.74
1.13
-6.80
-14.12
-22.67
-34.49
-51.03
-72.38
-96.45
-118.98
-134.16
-136.51
-122.95
-94.47
-56.18
-15.65
19.78
45.48
60.59
67.30
68.88
67.85
65.04
60.09
52.61
43.30
34.17
27.75
25.88
28.79
34.93
41.61
46.25
47.54
45.91
43.17
41.52
42.37
45.54
49.32
51.18
48.67
40.26
25.80
6.80
-13.70
-31.69
-43.16
-45.58
-39.00
-26.50
-13.25
-4.56
-3.69
-10.50
-21.68
-32.50
-38.89
-39.07
-33.64
-24.58
-13.84
-2.45
9.38
21.50
33.07
42.35
47.27
46.40
39.69
28.48
14.83
0.69
-12.75
-25.26
-37.47
-50.74
-66.84
-87.16
-111.61
-137.36
-158.60
-167.90
-159.08
-130.25
-85.44
-33.56
14.79
51.31
72.64
80.49
79.61
74.95
69.59
64.44
59.20
53.69
48.66
45.55
45.59
49.04
54.86
61.10
65.81
67.91
67.58
65.98
64.44
63.47
62.28
59.01
51.49
38.24
19.35
-3.29
-26.30
-45.76
-58.31
-62.29
-58.35
-49.54
-40.42
-35.58
-37.88
-47.23
-60.44
-72.45
-78.31
-75.06
-62.61
-43.32
-20.61
2.45
23.84
42.45
57.37
67.46
71.55
69.27
61.74
51.64
42.39
36.68
35.34
36.67
36.70
30.26
12.58
-18.71
-61.83
-110.03
-152.65
-177.91
-177.15
-148.30
-97.22
-35.89
21.79
64.66
87.37
90.76
79.91
61.22
40.08
20.07
3.25
-8.87
-14.91
-13.73
-5.11
9.65
27.66
45.07
58.39
65.65
67.13
65.12
62.74
62.41
64.67
67.84
68.70
63.91
51.50
31.92
8.14
-15.32
-34.05
-45.45
-49.53
-48.58
-45.86
-44.15
-44.79
-47.73
-51.99
-56.37
-59.71
-60.89
-58.74
-52.21
-40.89
-25.44
-7.68
9.77
24.30
34.04
38.21
37.11
31.93
24.34
16.13
8.80
3.17
-1.00
-5.24
-12.49
-26.44
-50.21
-84.34
-125.06
-164.12
-190.80
-195.71
-174.85
-131.71
-76.25
-21.04
23.37
51.83
65.06
67.67
65.07
61.17
57.70
54.98
53.10
52.61
54.38
58.86
65.51
72.76
78.49
81.03
79.80
75.48
69.69
64.19
60.09
57.59
56.02
54.32
51.58
47.18
40.94
33.02
24.12
15.39
8.30
4.00
2.75
3.59
4.60
3.72
-0.45
-8.07
-18.25
-29.56
-40.56
-50.07
-57.15
-60.95
-60.86
-56.72
-49.08
-39.23
-28.82
-19.47
-12.29
-7.78
-5.82
-5.77
-6.85
-8.42
-10.37
-13.24
-18.21
-26.80
-40.33
-59.36
-83.04
-108.75
-132.24
-148.44
-152.88
-143.25
-120.38
-88.15
-52.24
-18.40
9.08
28.19
38.93
42.65
41.34
37.17
32.42
29.21
29.24
33.25
40.78
50.20
59.29
66.00
69.13
68.80
66.28
63.43
61.91
62.43
64.44
66.27
65.60
60.01
47.62
27.85
2.20
-25.46
-49.22
-62.94
-62.58
-48.29
-25.01
-0.86
16.22
21.77
16.53
5.60
-4.43
-8.78
-6.30
0.82
9.04
15.77
20.47
24.25
28.49
33.43
37.67
38.78
34.54
24.10
8.24
-10.91
-30.87
-49.64
-66.25
-80.74
-93.71
-105.63
-115.97
-123.05
-124.35
-117.45
-101.21
-76.72
-47.24
-17.21
9.20
29.55
43.54
52.56
58.70
63.62
67.99
71.72
74.51
76.30
77.55
78.91
80.82
83.19
85.35
86.42
85.70
83.05
78.94
74.30
70.04
66.75
64.37
62.07
58.39
51.62
40.54
25.23
7.41
-9.91
-23.51
-31.32
-33.29
-31.34
-28.51
-27.62
-30.24
-36.25
-44.06
-51.36
-55.89
-56.08
-51.41
-42.55
-31.08
-19.14
-8.74
-1.35
2.38
2.41
-0.87
-6.87
-14.73
-23.30
-31.28
-37.56
-41.75
-44.39
-46.90
-51.06
-58.19
-68.34
-79.94
-90.03
-95.13
-92.43
-80.90
-61.71
-37.83
-13.03
9.48
27.86
41.80
52.08
59.66
65.13
68.55
69.77
68.84
66.27
62.89
59.52
56.59
54.03
51.44
48.47
45.18
42.10
40.04
39.74
41.43
44.65
48.18
50.29
49.22
43.88
34.36
22.04
9.09
-2.39
-11.17
-17.29
-21.81
-26.17
-31.45
-37.88
-44.77
-50.74
-54.20
-53.80
-48.91
-39.85
-28.03
-15.56
-4.59
3.41
8.12
10.24
10.88
10.86
10.28
8.68
5.55
0.83
-4.89
-10.70
-15.96
-20.86
-26.39
-33.66
-42.88
-52.60
-59.75
-60.62
-52.36
-34.26
-8.22
21.88
51.42
76.29
93.61
101.71
99.78
87.72
66.29
37.61
5.39
-25.42
-49.65
-63.24
-64.36
-53.81
-34.60
-10.94
13.05
34.20
50.67
61.89
68.04
69.63
67.16
61.01
51.55
39.26
24.82
9.18
-6.48
-20.75
-32.17
-39.55
-42.34
-40.82
-36.13
-30.04
-24.62
-21.85
-23.17
-28.99
-38.42
-49.22
-58.37
-63.01
-61.53
-54.35
-43.69
-32.70
-24.07
-19.02
-17.14
-17.05
-17.35
-17.43
-17.62
-18.79
-21.74
-26.73
-33.32
-40.65
-47.97
-55.05
-62.17
-69.57
-76.62
-81.41
-80.97
-72.45
-54.62
-28.82
1.11
30.23
54.30
71.18
81.13
85.95
87.67
87.43
85.24
80.50
72.97
63.56
54.43
48.33
47.61
53.19
63.97
77.04
88.40
94.17
91.74
80.62
62.52
40.77
19.21
0.99
-12.29
-20.72
-25.48
-28.04
-29.47
-30.13
-29.98
-28.81
-26.55
-23.23
-19.04
-14.47
-10.53
-8.74
-10.65
-17.09
-27.47
-39.67
-50.74
-58.06
-60.31
-57.82
-52.07
-44.79
-37.26
-30.15
-23.81
-18.68
-15.36
-14.32
-15.50
-18.16
-21.24
-23.97
-26.39
-29.45
-34.51
-42.65
-54.04
-67.61
-81.12
-91.51
-95.40
-89.90
-73.60
-47.38
-14.70
19.05
48.03
67.91
77.21
77.47
72.27
65.59
60.33
57.58
56.92
57.19
57.38
57.04
56.32
55.65
55.43
55.80
56.65
57.76
58.89
59.81
60.16
59.29
56.25
50.03
40.03
26.54
10.91
-4.81
-18.37
-28.05
-32.95
-33.14
-29.40
-23.00
-15.43
-8.33
-3.23
-1.29
-3.02
-8.09
-15.42
-23.38
-30.38
-35.25
-37.47
-37.09
-34.54
-30.34
-24.98
-19.08
-13.39
-8.86
-6.31
-6.04
-7.54
-9.65
-11.18
-11.50
-11.08
-11.35
-14.20
-21.43
-34.27
-52.98
-76.33
-101.17
-122.36
-133.77
-130.28
-109.99
-75.65
-34.11
5.97
37.34
56.54
64.47
64.99
62.50
60.00
58.44
57.28
55.68
53.44
51.06
49.41
49.09
50.12
51.95
53.85
55.24
55.99
56.34
56.64
57.09
57.47
57.10
55.04
50.43
42.87
32.64
20.67
8.22
-3.47
-13.49
-21.34
-26.85
-30.07
-31.17
-30.54
-28.93
-27.55
-27.80
-30.78
-36.66
-44.30
-51.49
-55.65
-54.89
-48.75
-38.36
-25.83
-13.42
-2.71
5.71
11.94
16.27
18.76
19.29
17.84
14.76
10.77
6.62
2.64
-1.46
-6.60
-13.92
-24.33
-38.11
-54.66
-72.39
-88.68
-100.22
-103.70
-96.73
-78.95
-52.51
-21.80
7.82
31.62
46.92
53.65
53.80
50.30
45.72
41.56
38.15
35.26
32.65
30.55
29.52
30.07
32.29
35.64
39.18
41.89
43.18
42.98
41.74
40.06
38.37
36.71
34.70
31.84
27.67
22.01
14.91
6.61
-2.49
-11.68
-19.89
-25.80
-28.24
-26.74
-21.90
-15.41
-9.53
-6.33
-7.00
-11.43
-18.41
-26.06
-32.51
-36.37
-37.08
-34.80
-30.24
-24.26
-17.61
-10.80
-4.17
1.89
6.87
10.28
11.92
12.09
11.39
10.37
9.08
6.99
3.15
-3.30
-12.82
-25.39
-40.50
-57.09
-73.29
-86.22
-92.40
-88.81
-74.29
-50.57
-22.03
5.86
28.56
44.10
53.19
58.10
60.93
62.49
62.23
59.20
53.22
45.41
37.85
32.61
30.72
31.76
34.19
36.12
36.26
34.40
31.38
28.64
27.48
28.35
30.63
32.78
32.80
28.95
20.43
7.82
-6.75
-20.18
-29.37
-32.47
-29.59
-22.88
-15.63
-11.11
-11.27
-16.27
-24.58
-33.65
-40.88
-44.31
-43.10
-37.56
-28.82
-18.39
-7.65
2.40
11.22
18.39
23.39
25.54
24.41
20.14
13.62
6.27
-0.54
-6.06
-10.41
-14.64
-20.33
-29.16
-42.27
-59.52
-78.76
-95.89
-105.62
-103.37
-87.23
-59.11
-24.40
9.96
38.00
56.72
66.49
69.96
70.16
69.00
66.78
62.79
56.46
48.13
39.29
31.93
27.72
27.23
29.68
33.22
35.77
35.95
33.62
29.86
26.26
24.06
23.43
23.40
22.36
18.76
11.81
1.70
-10.42
-22.66
-32.85
-39.01
-40.01
-36.04
-28.82
-21.19
-16.08
-15.34
-18.96
-25.16
-31.25
-34.83
-34.75
-31.32
-25.78
-19.47
-13.17
-6.93
-0.43
6.51
13.51
19.63
23.79
25.30
24.13
20.91
16.48
11.55
6.42
0.95
-5.31
-12.94
-22.49
-34.17
-47.45
-60.70
-71.23
-75.95
-72.49
-60.40
-41.58
-19.73
1.12
18.11
30.48
39.24
46.08
52.12
57.26
60.44
60.52
57.16
51.23
44.55
39.12
36.28
36.27
38.28
40.91
42.86
43.50
43.07
42.51
42.99
45.18
48.80
52.54
54.33
52.06
44.46
31.65
15.35
-1.65
-16.47
-27.19
-33.44
-36.30
-37.72
-39.67
-43.55
-49.83
-57.99
-66.74
-74.21
-78.42
-77.80
-71.78
-61.05
-47.38
-33.04
-19.97
-9.29
-1.27
4.33
7.75
9.09
8.44
6.21
3.18
0.33
-1.54
-2.21
-2.21
-2.66
-4.90
-9.87
-17.53
-26.57
-34.50
-38.30
-35.47
-25.01
-8.07
12.36
32.48
49.06
60.57
67.37
71.02
73.06
73.98
72.97
68.60
59.81
46.94
31.93
17.73
7.16
1.80
1.43
4.22
7.80
10.27
10.93
10.33
9.54
9.28
9.31
8.51
5.54
-0.40
-9.09
-19.30
-29.23
-37.08
-41.55
-42.14
-39.24
-34.14
-28.90
-25.89
-27.04
-32.99
-42.58
-53.10
-61.18
-64.17
-61.16
-53.14
-42.27
-30.72
-19.66
-9.08
1.57
12.50
22.86
30.97
35.26
35.20
31.74
26.90
22.82
20.82
21.00
22.30
22.88
20.49
12.93
-1.22
-21.68
-45.56
-67.53
-81.14
-81.14
-65.74
-37.61
-2.94
30.85
57.72
74.48
80.88
78.43
69.17
55.01
37.73
19.47
2.89
-9.25
-14.84
-13.21
-5.42
5.93
17.55
26.51
31.13
31.48
29.21
26.71
26.02
27.84
31.24
34.06
33.85
28.85
18.75
4.77
-10.73
-25.00
-35.74
-41.71
-43.01
-40.97
-37.82
-35.98
-37.33
-42.51
-50.54
-59.09
-65.18
-66.35
-61.47
-51.13
-37.24
-22.16
-7.86
4.50
14.51
22.05
26.92
28.89
28.03
25.00
21.02
17.38
14.84
13.18
11.29
7.49
0.15
-11.84
-28.59
-48.73
-69.32
-86.16
-94.84
-92.29
-78.13
-55.03
-27.99
-2.46
17.55
30.61
37.69
40.97
42.44
43.09
42.91
41.60
39.28
36.72
35.09
35.38
37.89
42.04
46.55
49.89
50.91
49.26
45.53
41.03
37.24
35.17
34.92
35.66
35.99
34.52
30.41
23.74
15.41
6.93
-0.17
-4.86
-6.91
-6.97
-6.29
-6.28
-8.09
-12.32
-18.89
-27.11
-35.77
-43.36
-48.40
-49.84
-47.42
-41.77
-34.20
-26.11
-18.54
-11.85
-5.98
-0.79
3.59
6.73
8.28
8.19
6.84
4.84
2.67
0.38
-2.52
-6.98
-14.10
-24.76
-38.97
-55.36
-70.99
-81.87
-84.11
-75.39
-56.00
-28.95
0.93
28.60
50.31
64.31
70.69
70.59
65.51
56.86
46.06
34.67
24.45
17.13
13.88
14.95
19.48
25.80
31.91
36.14
37.68
36.78
34.68
33.13
33.71
37.19
43.10
49.75
54.70
55.54
50.68
39.96
24.68
7.11
-10.26
-25.41
-37.16
-45.24
-50.12
-52.75
-54.33
-55.94
-58.15
-60.58
-61.95
-60.57
-55.19
-45.80
-33.75
-21.25
-10.40
-2.29
3.19
6.84
9.37
10.85
10.66
8.02
2.48
-5.73
-15.84
-26.89
-38.17
-49.41
-60.80
-72.68
-84.98
-96.71
-105.63
-108.61
-102.62
-86.14
-60.21
-28.56
3.44
30.58
49.62
60.09
63.95
64.26
63.68
63.60
63.97
64.00
62.93
60.61
57.63
54.95
53.40
53.18
53.76
54.09
53.13
50.49
46.67
42.85
40.26
39.38
39.56
39.14
36.16
29.23
18.13
3.96
-11.19
-24.86
-34.93
-40.24
-40.84
-37.87
-33.26
-29.10
-27.18
-28.40
-32.62
-38.69
-44.72
-48.68
-49.00
-45.02
-37.18
-26.81
-15.59
-5.03
3.83
10.38
14.21
15.03
12.79
8.06
2.06
-3.55
-7.32
-8.67
-8.20
-7.59
-9.13
-15.11
-27.07
-45.01
-66.79
-88.06
-103.15
-106.85
-96.51
-73.42
-42.60
-11.02
15.11
32.50
41.43
44.72
45.78
46.85
48.38
49.53
49.31
47.50
44.96
43.17
43.45
46.21
50.70
55.21
57.88
57.52
54.17
49.03
43.91
40.25
38.49
37.84
36.82
33.98
28.59
20.87
11.86
2.97
-4.39
-9.21
-11.05
-10.34
-8.44
-7.42
-9.47
-15.96
-26.64
-39.51
-51.40
-59.23
-61.23
-57.56
-49.94
-40.65
-31.42
-22.87
-14.72
-6.45
1.90
9.51
15.14
17.91
17.88
16.04
13.77
12.07
10.98
9.52
6.10
-0.74
-11.74
-26.52
-43.43
-59.71
-71.94
-76.84
-72.34
-58.43
-37.46
-13.49
9.07
27.05
39.41
47.06
51.85
55.26
57.65
58.35
56.54
52.09
46.00
39.99
35.78
34.19
34.83
36.32
36.93
35.42
31.55
26.13
20.62
16.52
14.68
14.95
16.23
16.84
15.11
9.98
1.52
-8.94
-19.07
-26.36
-29.00
-26.71
-20.95
-14.45
-10.22
-10.42
-15.55
-24.34
-34.23
-42.32
-46.30
-45.12
-39.08
-29.46
-17.98
-6.19
4.75
14.06
21.08
25.13
25.67
22.65
16.81
9.71
3.25
-1.06
-2.78
-2.90
-3.56
-7.39
-16.55
-31.64
-51.03
-70.76
-85.30
-89.21
-79.13
-55.15
-20.96
17.40
53.61
83.01
103.58
115.57
120.26
118.71
111.13
97.12
76.54
50.36
21.10
-7.46
-31.18
-46.68
-52.50
-49.52
-40.64
-29.74
-20.26
-14.14
-11.50
-11.14
-11.56
-11.81
-11.77
-11.94
-12.94
-15.20
-18.87
-23.92
-30.02
-36.40
-41.81
-44.79
-44.35
-40.69
-35.42
-31.03
-29.75
-32.37
-37.73
-43.11
-45.51
-42.89
-34.97
-23.07
-9.34
4.27
16.59
27.21
36.12
43.15
47.76
49.30
47.56
43.10
37.26
31.59
27.20
24.19
21.60
17.86
11.41
1.30
-12.52
-29.04
-46.19
-60.89
-69.45
-68.56
-56.45
-34.06
-5.22
24.25
48.37
62.94
66.78
61.60
50.85
38.10
25.84
15.16
6.22
-0.98
-6.07
-8.36
-7.19
-2.54
4.75
13.03
20.47
25.74
28.45
29.21
29.17
29.30
29.89
30.35
29.49
26.17
19.73
10.40
-0.74
-11.98
-21.50
-27.82
-30.27
-29.18
-25.77
-21.76
-18.90
-18.43
-20.88
-25.98
-32.82
-40.00
-45.93
-49.20
-48.81
-44.56
-36.99
-27.27
-16.75
-6.62
2.36
9.81
15.59
19.59
21.78
22.23
21.23
19.25
16.82
14.23
11.33
7.43
1.45
-7.66
-20.30
-35.53
-50.93
-62.91
-67.76
-62.99
-48.33
-25.93
0.33
26.21
48.36
65.00
75.78
81.06
81.29
76.68
67.50
54.49
39.17
23.78
10.64
1.48
-3.05
-3.44
-1.03
2.57
6.05
8.70
10.46
11.80
13.39
15.72
18.87
22.38
25.34
26.63
25.36
21.16
14.41
5.98
-3.21
-12.50
-21.64
-30.54
-38.93
-46.31
-52.12
-56.06
-58.24
-58.90
-57.97
-54.96
-49.11
-40.05
-28.37
-15.63
-3.86
5.26
10.98
13.54
13.68
12.13
9.28
5.20
-0.10
-6.56
-14.07
-22.54
-32.04
-42.73
-54.73
-67.89
-81.57
-94.28
-103.52
-106.08
-98.94
-80.53
-51.90
-17.00
18.18
47.51
66.71
74.65
73.32
66.61
58.53
51.76
47.25
44.60
43.02
42.04
41.76
42.51
44.45
47.20
49.91
51.62
51.65
49.91
46.85
43.18
39.49
36.01
32.49
28.38
23.12
16.41
8.42
-0.27
-8.62
-15.51
-19.99
-21.64
-20.84
-18.65
-16.52
-15.64
-16.56
-19.03
-22.22
-25.22
-27.34
-28.34
-28.18
-26.82
-24.11
-19.84
-14.02
-7.10
0.02
6.22
10.49
12.31
11.74
9.43
6.21
2.84
-0.38
-3.62
-7.41
-12.42
-19.30
-28.58
-40.62
-55.26
-71.33
-86.36
-96.84
-99.18
-91.19
-73.26
-48.61
-22.18
1.19
18.54
29.54
35.95
40.24
44.18
48.10
51.22
52.52
51.54
48.79
45.38
42.47
40.75
40.14
40.06
39.79
38.95
37.65
36.38
35.70
35.81
36.38
36.51
35.20
31.76
26.19
19.20
11.91
5.34
0.04
-3.98
-7.17
-10.09
-13.27
-17.12
-21.89
-27.57
-33.67
-39.23
-42.93
-43.62
-40.81
-35.01
-27.64
-20.45
-14.88
-11.49
-9.93
-9.28
-8.61
-7.43
-5.84
-4.37
-3.68
-4.32
-6.68
-10.96
-17.34
-25.87
-36.13
-46.92
-56.03
-60.72
-58.54
-48.43
-31.46
-10.68
9.79
26.27
36.75
41.41
42.14
41.38
41.03
41.69
42.87
43.58
43.04
41.15
38.33
35.24
32.29
29.53
26.72
23.69
20.64
18.20
17.18
18.23
21.41
25.98
30.47
33.08
32.45
28.25
21.46
14.05
8.10
4.97
4.73
6.21
7.45
6.54
2.25
-5.49
-15.55
-25.87
-34.10
-38.42
-38.15
-34.05
-27.92
-21.76
-16.85
-13.21
-9.87
-5.69
-0.23
5.78
10.78
13.28
12.61
9.21
4.40
-0.46
-4.54
-7.92
-11.41
-16.13
-23.05
-32.61
-44.35
-56.73
-67.04
-71.77
-67.60
-52.64
-27.55
4.19
37.01
64.85
82.86
88.63
82.45
66.91
45.91
23.63
3.75
-11.19
-19.94
-22.51
-19.88
-13.58
-5.39
2.97
9.99
14.61
16.52
16.32
15.50
15.94
19.14
25.50
33.97
42.29
47.79
48.43
43.52
34.00
22.06
10.28
0.90
-4.86
-6.99
-6.61
-5.73
-6.64
-11.09
-19.50
-30.47
-40.97
-47.56
-47.96
-42.30
-33.35
-25.31
-21.86
-24.39
-31.47
-39.69
-45.47
-46.64
-43.04
-36.04
-27.45
-18.51
-9.64
-0.90
7.46
14.65
19.53
21.15
19.16
13.88
6.00
-3.71
-14.44
-25.12
-34.16
-39.47
-38.98
-31.42
-16.91
2.85
25.16
47.16
66.66
82.67
95.36
105.61
114.38
122.07
128.20
131.56
130.71
124.64
113.07
96.44
75.47
50.70
22.54
-8.39
-40.58
-71.49
-97.93
-117.13
-127.58
-129.37
-123.81
-112.64
-97.41
-79.37
-59.85
-40.62
-23.90
-11.89
-6.06
-6.72
-12.97
-23.19
-35.46
-47.88
-58.51
-65.51
-67.36
-63.41
-54.24
-41.71
-28.39
-16.67
-8.01
-2.68
-0.08
0.54
-0.43
-3.06
-7.53
-13.67
-20.68
-27.41
-32.76
-36.36
-38.80
-41.45
-45.86
-52.82
-61.55
-69.54
-73.10
-68.80
-54.91
-32.43
-4.94
22.65
45.98
62.55
72.02
75.58
74.83
71.15
65.58
59.25
53.62
50.20
49.95
52.64
56.86
60.64
62.38
61.52
58.60
54.80
51.24
48.58
46.94
46.05
45.51
44.86
43.51
40.80
36.23
29.63
21.43
12.59
4.10
-3.38
-9.74
-15.25
-20.14
-24.38
-27.74
-29.99
-31.20
-31.59
-31.24
-29.77
-26.42
-20.49
-11.94
-1.68
8.69
17.46
23.54
26.72
27.52
26.66
24.48
20.69
14.62
5.67
-6.21
-20.34
-35.54
-50.69
-65.15
-78.64
-90.51
-99.05
-101.16
-93.23
-72.88
-40.56
-0.19
41.93
79.31
107.43
124.90
132.97
133.87
129.02
118.07
99.42
71.69
35.50
-5.62
-45.66
-77.77
-96.41
-99.18
-87.35
-65.13
-38.00
-10.94
12.49
30.21
40.87
43.46
37.57
24.20
6.39
-11.03
-23.06
-26.75
-22.82
-15.68
-11.67
-16.22
-31.56
-55.86
-84.05
-109.76
-127.39
-133.48
-127.27
-110.43
-86.45
-59.65
-34.02
-12.15
5.40
19.91
33.54
48.12
64.12
80.47
95.14
106.07
112.04
113.05
110.15
104.99
99.26
94.18
90.14
86.41
81.21
72.01
56.36
32.98
3.02
-29.28
-57.00
-72.31
-69.17
-45.86
-6.26
40.97
84.98
115.89
127.20
116.72
86.10
39.75
-16.06
-73.79
-125.11
-162.04
-178.54
-172.19
-145.16
-103.65
-56.11
-10.91
25.75
50.82
64.39
68.86
67.76
64.67
62.24
61.69
62.52
62.71
59.39
49.72
32.05
6.90
-22.73
-52.03
-75.96
-91.06
-96.55
-94.30
-87.66
-79.90
-73.15
-68.04
-64.18
-60.72
-56.74
-51.31
-43.47
-32.36
-17.62
0.16
19.32
37.46
52.09
61.39
64.53
61.88
54.68
44.70
33.67
22.71
12.07
1.14
-11.15
-25.78
-43.06
-62.28
-81.56
-97.89
-107.62
-107.18
-94.28
-68.80
-33.29
7.54
48.09
83.39
110.32
127.70
135.54
133.82
121.78
98.28
62.94
17.63
-32.78
-80.93
-118.73
-139.72
-140.97
-123.95
-93.73
-57.22
-21.07
9.85
33.11
48.47
57.04
60.43
60.10
57.05
51.85
45.01
37.16
29.13
21.56
14.46
6.89
-2.61
-15.07
-30.09
-45.49
-58.11
-65.25
-66.01
-61.55
-54.23
-46.10
-37.90
-29.06
-18.63
-6.42
6.61
18.77
28.54
35.18
38.69
39.45
37.71
33.61
27.39
19.61
11.11
2.67
-5.25
-12.64
-19.91
-27.55
-35.96
-45.12
-54.32
-61.92
-65.48
-62.28
-50.37
-29.50
-1.55
29.96
60.98
88.10
109.12
122.75
127.89
123.11
106.97
79.09
41.35
-1.67
-43.34
-76.72
-96.58
-100.91
-91.27
-72.01
-48.61
-25.95
-7.15
6.75
16.18
22.13
25.25
25.40
21.80
13.60
0.81
-15.11
-31.13
-43.40
-48.58
-45.27
-34.71
-20.48
-7.12
1.69
4.50
2.45
-1.64
-4.68
-4.71
-1.48
3.96
10.01
15.53
20.16
24.20
28.11
31.92
35.02
36.33
34.90
30.41
23.56
15.67
8.14
1.74
-3.64
-8.89
-15.32
-24.16
-36.26
-51.66
-69.12
-85.93
-98.03
-101.09
-92.01
-70.40
-39.11
-3.58
29.92
56.17
72.34
78.11
74.95
65.10
50.89
34.59
18.49
4.90
-4.06
-6.98
-3.59
5.16
17.25
30.03
40.90
48.01
50.82
50.38
48.87
48.79
51.73
57.50
63.90
67.51
65.07
54.93
37.78
16.35
-5.84
-25.93
-42.52
-55.53
-65.41
-72.36
-76.18
-76.52
-73.41
-67.44
-59.49
-50.22
-39.81
-28.11
-15.10
-1.33
12.06
23.65
32.24
37.20
38.43
36.26
31.20
23.95
15.34
6.21
-2.67
-10.83
-18.21
-25.37
-33.66
-44.88
-60.49
-80.30
-101.52
-118.72
-125.40
-116.64
-91.50
-54.03
-12.01
26.01
53.92
69.76
75.38
74.45
70.26
64.50
57.55
49.55
41.32
34.46
30.49
30.04
32.39
35.89
38.86
40.27
40.13
39.08
37.90
37.03
36.47
35.79
34.47
32.00
27.98
22.09
14.22
4.54
-6.14
-16.28
-23.96
-27.60
-26.71
-22.31
-16.64
-12.32
-11.23
-13.87
-19.28
-25.65
-31.04
-33.98
-33.72
-30.13
-23.68
-15.28
-6.21
2.06
8.27
11.68
12.30
10.81
8.35
6.10
4.87
4.78
5.16
4.63
1.59
-5.33
-16.72
-31.89
-48.77
-63.98
-73.48
-73.66
-62.66
-41.41
-13.84
14.24
37.08
51.05
55.83
54.07
49.80
46.51
45.76
46.83
47.57
45.73
40.00
30.65
19.32
8.34
-0.15
-4.93
-6.06
-4.64
-2.22
-0.07
1.30
2.09
2.84
3.93
5.24
6.13
5.84
3.80
-0.02
-4.90
-9.50
-12.34
-12.25
-9.02
-3.58
2.40
6.94
8.48
6.18
0.06
-8.87
-18.71
-26.94
-31.10
-29.57
-22.43
-11.44
0.59
11.05
18.47
22.83
24.93
25.52
24.85
22.73
19.13
14.56
9.88
5.70
1.74
-3.29
-11.30
-23.93
-41.81
-63.75
-86.50
-105.30
-114.88
-111.24
-93.18
-63.14
-26.60
9.52
39.07
58.43
66.99
66.67
60.58
51.77
42.37
33.55
25.81
19.40
14.70
12.20
12.30
15.03
19.74
25.13
29.58
31.73
30.98
27.83
23.63
20.05
18.35
18.95
21.28
24.06
25.82
25.19
21.10
12.82
0.31
-15.45
-32.16
-46.53
-55.23
-56.23
-49.85
-38.73
-26.87
-17.93
-13.79
-14.09
-16.90
-19.90
-21.40
-20.71
-17.82
-12.88
-6.01
2.55
12.08
21.38
29.05
33.97
35.82
35.16
33.09
30.67
28.47
26.31
23.60
19.55
13.66
5.76
-3.90
-14.70
-25.54
-34.84
-40.74
-41.60
-36.65
-26.41
-12.54
2.81
17.90
31.97
45.17
57.81
69.63
79.28
84.76
84.27
77.14
64.28
47.87
30.56
14.55
1.17
-9.10
-16.19
-20.14
-20.86
-18.28
-12.67
-5.13
2.16
6.18
3.98
-6.03
-22.99
-43.33
-61.66
-72.76
-73.82
-65.87
-53.44
-42.57
-38.21
-42.01
-51.85
-62.87
-69.80
-69.45
-61.93
-50.05
-37.38
-26.32
-17.01
-7.88
3.13
17.04
32.67
46.72
55.71
57.87
53.93
46.79
39.72
35.24
34.57
37.15
40.42
41.42
38.01
29.44
16.94
2.81
-9.80
-16.86
-14.82
-2.64
18.64
46.22
75.66
102.37
118.15
114.38
89.60
51.91
12.00
-23.48
-55.10
-87.16
-120.08
-150.21
-171.72
-178.38
-162.44
-123.68
-68.26
-3.46
56.78
100.36
126.38
135.86
131.59
116.90
93.90
64.66
32.05
-0.31
-27.49
-45.45
-53.27
-52.41
-46.87
-42.47
-43.70
-51.46
-62.71
-71.13
-70.83
-59.76
-39.78
-15.60
7.00
24.04
34.40
39.14
40.39
39.48
36.02
29.27
19.11
6.40
-7.09
-19.43
-29.57
-37.40
-43.88
-50.65
-58.83
-68.42
-78.07
-85.35
-87.44
-81.96
-67.66
-44.87
-15.68
16.56
47.94
74.59
93.18
101.24
97.52
82.29
57.61
27.27
-3.73
-30.22
-48.05
-54.97
-51.05
-38.34
-20.18
-0.39
17.62
31.35
39.59
42.46
41.17
37.41
32.73
27.99
23.27
18.14
12.16
5.28
-1.90
-8.33
-12.85
-14.73
-13.97
-11.36
-8.25
-6.12
-6.07
-8.54
-13.15
-18.87
-24.29
-28.06
-29.15
-27.14
-22.22
-15.13
-6.87
1.57
9.43
16.16
21.37
24.70
25.88
24.86
21.87
17.34
11.77
5.46
-1.49
-9.20
-17.84
-27.52
-38.11
-49.04
-59.10
-66.36
-68.38
-62.90
-48.71
-26.44
1.22
30.02
55.27
73.09
81.28
79.61
69.48
53.21
33.50
13.05
-5.56
-19.92
-27.99
-28.50
-21.43
-8.26
8.21
24.59
37.85
46.23
49.53
48.87
46.03
42.64
39.79
37.84
36.64
35.52
33.56
29.80
23.60
15.00
4.69
-6.36
-17.60
-29.08
-41.21
-53.89
-65.94
-75.27
-79.75
-78.41
-72.08
-62.92
-53.32
-44.73
-37.10
-29.38
-20.42
-9.89
1.49
12.27
20.92
26.48
28.81
28.56
26.83
24.66
22.76
21.25
19.87
18.15
15.51
11.08
3.67
-7.90
-23.82
-42.39
-59.60
-70.15
-69.48
-55.89
-31.55
-1.78
27.09
50.15
65.32
73.26
76.03
75.52
72.53
66.86
58.15
46.74
33.94
21.75
12.11
6.24
4.38
5.91
9.88
15.41
22.07
29.78
38.62
48.25
57.60
64.67
66.95
62.31
50.08
31.67
10.25
-10.34
-27.11
-38.84
-46.19
-50.86
-54.58
-58.33
-62.18
-65.58
-67.77
-67.96
-65.42
-59.56
-50.12
-37.42
-22.40
-6.49
8.83
22.27
32.78
39.56
42.03
40.02
33.96
25.01
14.89
5.45
-1.83
-6.45
-9.08
-11.67
-16.78
-26.58
-41.53
-59.52
-75.88
-84.67
-80.75
-61.84
-29.48
11.40
54.12
92.15
120.50
136.07
137.32
123.83
96.37
57.55
12.31
-32.44
-69.04
-91.24
-96.00
-84.41
-61.07
-32.41
-4.52
18.51
35.22
46.31
53.53
58.39
61.35
61.62
57.57
47.50
30.60
7.71
-18.44
-43.69
-63.75
-75.52
-78.23
-73.68
-65.51
-57.82
-53.64
-53.80
-56.78
-59.55
-58.86
-52.70
-40.96
-25.17
-7.59
9.95
26.60
42.27
56.75
69.05
77.28
79.61
75.54
66.64
56.19
47.81
43.78
44.06
46.33
46.90
41.93
28.52
5.61
-25.32
-59.85
-90.93
-110.33
-111.08
-89.96
-48.78
5.91
65.00
119.52
162.67
190.53
201.42
194.82
170.49
128.78
71.76
4.50
-64.45
-124.28
-164.42
-177.93
-163.90
-128.01
-80.37
-31.86
9.50
40.60
62.67
78.92
91.60
100.48
102.84
95.02
74.38
40.89
-2.33
-49.53
-93.65
-128.34
-149.92
-158.45
-157.48
-152.31
-147.39
-144.06
-139.96
-130.57
-112.36
-85.20
-52.67
-20.01
8.53
31.58
50.45
67.28
82.90
95.33
100.39
94.34
76.49
49.72
19.24
-9.51
-32.40
-47.44
-55.69
-61.03
-68.38
-81.62
-102.15
-127.67
-152.48
-168.34
-166.92
-143.74
-100.59
-44.70
14.04
65.65
102.57
119.79
113.97
87.94
50.10
8.74
-32.86
-71.99
-104.97
-123.64
-122.00
-97.87
-53.84
2.52
60.60
110.46
146.10
165.77
170.60
162.30
142.73
114.13
79.28
42.01
7.45
-18.78
-32.90
-34.59
-27.47
-16.82
-7.08
-0.47
3.25
6.03
10.32
17.62
27.83
39.34
50.16
58.58
63.35
63.59
59.02
50.02
37.43
22.47
6.30
-9.96
-25.49
-39.91
-53.31
-66.11
-78.71
-91.27
-103.45
-114.32
-122.28
-125.37
-121.63
-109.73
-89.44
-61.99
-30.06
2.63
32.15
55.28
70.25
77.10
77.36
73.42
67.64
61.85
57.08
53.80
52.14
52.07
53.44
55.93
59.01
62.07
64.51
65.83
65.59
63.37
58.71
51.29
41.04
28.34
13.92
-1.20
-15.78
-28.44
-37.74
-42.46
-42.05
-37.08
-29.36
-21.43
-15.69
-13.34
-13.89
-15.42
-15.55
-12.65
-6.59
1.33
9.14
15.23
19.00
20.84
21.63
21.99
21.89
20.79
18.07
13.60
7.87
1.79
-3.87
-8.99
-14.20
-20.69
-29.67
-41.88
-57.18
-74.42
-91.52
-105.62
-113.48
-112.07
-99.36
-75.21
-41.98
-4.50
30.88
57.96
72.51
73.50
63.26
46.43
28.16
12.47
1.38
-4.94
-7.26
-6.35
-2.55
4.05
13.03
23.30
33.22
41.20
46.44
49.19
50.48
51.44
52.55
53.43
52.99
49.95
43.40
33.07
19.56
4.35
-10.41
-22.32
-29.45
-31.15
-28.36
-23.35
-18.73
-16.31
-16.34
-17.56
-18.10
-16.49
-12.38
-6.60
-0.55
4.55
8.22
10.77
12.98
15.62
18.98
22.72
25.98
27.81
27.49
24.88
20.20
13.78
5.83
-3.62
-14.43
-26.17
-38.21
-50.05
-61.61
-73.00
-83.96
-93.18
-98.12
-95.68
-83.57
-61.78
-33.20
-2.98
23.13
40.75
48.16
46.44
38.53
27.93
17.50
9.06
3.43
0.86
1.39
4.98
11.23
19.31
27.94
35.76
41.90
46.26
49.43
52.18
54.86
57.07
57.79
55.94
50.88
42.77
32.51
21.46
11.20
3.13
-1.85
-3.70
-3.51
-3.32
-5.35
-10.90
-19.49
-28.90
-36.10
-38.77
-36.31
-29.98
-22.03
-14.46
-8.21
-3.19
1.08
4.75
7.46
8.60
7.92
5.80
3.12
0.77
-0.86
-2.07
-3.67
-6.50
-11.07
-17.37
-25.12
-34.07
-44.25
-55.73
-68.08
-79.77
-88.02
-89.37
-81.05
-62.29
-35.13
-3.96
25.86
49.73
65.14
71.95
71.75
66.73
58.82
49.35
39.26
29.47
21.09
15.22
12.56
13.08
15.95
19.80
23.25
25.41
26.11
25.84
25.40
25.36
25.78
26.11
25.36
22.51
16.96
8.89
-0.56
-9.51
-15.97
-18.58
-17.29
-13.44
-9.23
-6.74
-7.12
-10.17
-14.61
-18.73
-21.08
-20.86
-18.02
-13.04
-6.74
0.03
6.46
11.96
16.20
19.09
20.61
20.68
19.21
16.09
11.31
4.93
-2.96
-12.26
-22.78
-34.02
-45.27
-55.76
-65.01
-72.80
-78.94
-82.70
-82.49
-76.20
-62.12
-40.04
-11.90
18.53
46.83
69.27
83.81
90.03
88.45
79.90
65.25
45.93
24.62
5.37
-7.29
-10.02
-2.23
13.33
31.55
47.00
56.02
57.86
54.34
48.41
42.51
37.57
33.08
27.89
21.12
12.72
3.45
-5.51
-13.19
-19.28
-24.21
-28.91
-34.04
-39.47
-44.04
-46.11
-44.42
-38.97
-31.10
-22.81
-15.70
-10.13
-5.21
0.41
7.52
15.69
23.38
28.77
30.61
28.73
23.95
17.55
10.55
3.29
-4.65
-14.15
-26.06
-40.80
-58.20
-77.61
-97.99
-117.73
-134.28
-144.09
-143.11
-128.21
-98.85
-58.27
-13.15
28.18
58.49
73.97
75.16
66.04
52.00
37.76
26.28
18.84
15.72
17.02
22.68
32.21
44.17
56.36
66.30
72.29
74.02
72.51
69.39
65.93
62.40
58.08
51.83
42.79
30.83
16.76
2.06
-11.44
-22.06
-28.75
-31.44
-30.98
-28.91
-26.76
-25.58
-25.60
-26.34
-27.07
-27.08
-26.00
-23.75
-20.40
-16.12
-11.09
-5.60
-0.03
5.19
9.59
12.69
14.04
13.24
10.03
4.34
-3.58
-13.17
-23.66
-34.26
-44.38
-53.86
-62.90
-71.76
-80.21
-87.00
-89.89
-86.17
-73.79
-52.38
-23.81
8.21
39.15
65.05
83.36
93.20
94.85
89.10
76.79
58.98
37.36
14.64
-5.70
-20.18
-26.45
-24.12
-14.94
-2.07
11.02
21.67
28.62
31.97
32.67
31.86
30.44
28.82
26.96
24.61
21.54
17.76
13.62
9.60
6.03
2.73
-0.87
-5.45
-11.19
-17.54
-23.40
-27.70
-30.03
-30.80
-30.94
-31.09
-31.16
-30.20
-26.99
-20.85
-12.20
-2.52
6.22
12.38
15.17
14.81
12.13
8.10
3.39
-1.78
-7.56
-14.24
-22.23
-32.02
-44.25
-59.36
-76.97
-95.26
-110.50
-117.95
-113.42
-95.14
-65.15
-29.06
5.87
33.49
51.11
59.90
63.52
65.64
68.15
70.74
72.00
71.06
68.44
65.80
64.68
65.47
67.10
67.82
66.28
62.22
56.40
49.92
43.59
37.71
32.34
27.57
23.62
20.65
18.76
17.95
17.94
18.18
17.65
14.93
8.57
-2.07
-16.11
-31.04
-43.38
-50.13
-49.91
-43.55
-33.58
-23.02
-14.24
-8.24
-4.84
-3.22
-2.63
-2.65
-3.22
-4.46
-6.46
-9.16
-12.42
-16.14
-20.37
-25.36
-31.53
-39.33
-49.11
-61.00
-74.70
-89.36
-103.30
-114.05
-118.61
-114.25
-99.48
-74.96
-43.63
-10.20
20.25
43.70
58.27
64.44
64.48
61.41
57.94
55.80
55.60
57.02
59.34
61.84
64.11
66.11
68.07
70.21
72.64
75.26
77.82
79.98
81.28
81.02
78.14
71.33
59.45
42.11
20.28
-3.57
-25.98
-43.58
-54.30
-58.08
-56.81
-53.34
-50.25
-48.96
-49.61
-51.45
-53.61
-55.37
-56.19
-55.48
-52.51
-46.75
-38.25
-28.03
-17.75
-9.17
-3.43
-0.63
-0.07
-0.72
-1.86
-3.39
-5.70
-9.41
-14.88
-22.02
-30.26
-38.76
-46.84
-54.12
-60.58
-66.08
-70.01
-71.06
-67.52
-58.03
-42.56
-22.76
-1.76
16.88
30.53
38.36
41.46
41.97
41.99
42.52
43.28
43.17
41.27
37.56
33.15
29.77
28.92
31.11
35.63
40.94
45.34
47.70
47.85
46.47
44.71
43.53
43.36
43.92
44.29
43.41
40.52
35.59
29.25
22.41
15.70
9.04
1.84
-6.38
-15.40
-24.18
-31.41
-36.28
-39.01
-40.59
-42.04
-43.54
-44.20
-42.64
-37.89
-30.13
-20.70
-11.49
-3.99
1.09
3.88
4.90
4.71
3.69
2.16
0.43
-1.24
-2.79
-4.65
-7.95
-14.42
-25.78
-42.64
-63.44
-84.02
-98.46
-101.09
-88.85
-62.94
-28.71
6.15
34.43
51.86
58.10
55.93
49.46
42.24
36.17
31.57
27.93
24.77
22.19
20.78
21.26
23.90
28.22
33.03
36.96
38.96
38.77
36.88
34.22
31.58
29.22
26.79
23.63
19.22
13.54
7.28
1.57
-2.40
-3.89
-2.92
-0.36
2.36
3.80
2.96
-0.44
-6.02
-12.93
-20.12
-26.51
-31.00
-32.73
-31.28
-26.93
-20.66
-13.92
-8.02
-3.66
-0.80
1.14
2.75
4.23
5.36
5.75
5.08
3.25
0.24
-4.01
-9.58
-16.47
-24.44
-32.97
-41.38
-48.94
-54.77
-57.71
-56.32
-49.11
-35.29
-15.41
8.24
32.08
52.31
66.06
72.22
71.47
65.59
56.45
45.47
33.49
21.13
9.36
-0.43
-6.69
-8.39
-5.55
0.58
7.91
14.29
18.27
19.56
18.81
17.20
15.71
14.77
14.12
13.11
10.98
7.22
1.84
-4.51
-10.64
-15.22
-17.33
-16.89
-14.77
-12.38
-11.09
-11.55
-13.61
-16.52
-19.42
-21.72
-23.07
-23.28
-22.05
-19.06
-14.17
-7.70
-0.47
6.36
11.66
14.66
15.14
13.43
10.27
6.54
2.98
-0.05
-2.69
-5.51
-9.33
-14.94
-22.85
-33.05
-44.70
-55.96
-64.13
-66.03
-59.16
-42.82
-18.92
8.05
32.22
48.36
53.97
50.20
41.20
32.04
26.34
24.82
25.48
25.28
22.16
16.28
9.76
5.36
4.79
7.87
12.85
17.58
20.65
21.89
22.08
22.08
22.13
21.68
19.73
15.54
9.05
1.25
-6.17
-11.45
-13.35
-11.74
-7.66
-2.95
0.40
0.94
-1.74
-7.00
-13.33
-18.95
-22.37
-22.79
-20.33
-15.81
-10.38
-5.11
-0.65
2.84
5.50
7.56
9.15
10.15
10.32
9.49
7.65
5.00
1.84
-1.53
-4.95
-8.49
-12.59
-17.95
-25.24
-34.65
-45.44
-55.70
-62.67
-63.59
-56.67
-41.82
-20.79
3.36
27.15
47.49
62.20
70.05
70.58
63.96
51.06
33.57
14.03
-4.43
-18.84
-27.04
-28.31
-23.47
-14.50
-3.87
6.21
14.32
19.97
23.45
25.51
26.82
27.72
28.03
27.10
24.17
18.76
11.05
1.93
-7.33
-15.56
-22.14
-27.13
-30.97
-34.12
-36.79
-38.89
-40.26
-40.83
-40.63
-39.66
-37.73
-34.56
-29.97
-24.15
-17.69
-11.39
-5.92
-1.57
1.74
4.19
5.85
6.57
6.07
4.21
1.05
-3.17
-8.18
-13.93
-20.58
-28.44
-37.64
-47.72
-57.26
-63.95
-65.05
-58.41
-43.55
-22.30
1.50
23.15
38.79
46.76
48.07
45.59
42.62
41.43
42.53
44.84
46.64
46.55
44.17
40.12
35.57
31.67
29.03
27.64
27.03
26.49
25.47
23.73
21.44
19.06
17.17
16.20
16.23
16.95
17.81
18.33
18.30
17.85
17.28
16.60
15.32
12.50
7.31
-0.51
-10.28
-20.62
-30.01
-37.33
-42.13
-44.49
-44.63
-42.67
-38.66
-32.80
-25.70
-18.28
-11.44
-5.77
-1.28
2.37
5.57
8.43
10.71
11.90
11.47
9.07
4.62
-1.59
-9.00
-16.88
-24.44
-31.04
-36.25
-39.85
-41.73
-41.70
-39.47
-34.65
-27.07
-16.89
-4.75
8.43
21.74
34.49
46.19
56.22
63.46
66.35
63.29
53.56
38.08
19.51
1.66
-11.78
-18.52
-18.33
-12.89
-4.87
3.11
9.32
13.15
14.97
15.62
15.98
16.57
17.35
17.71
16.72
13.56
7.97
0.50
-7.69
-15.27
-21.27
-25.33
-27.59
-28.40
-28.21
-27.52
-27.05
-27.54
-29.34
-31.95
-33.94
-33.54
-29.59
-22.22
-12.96
-3.91
3.25
8.06
11.07
13.16
14.62
14.95
13.16
8.52
1.10
-8.19
-17.99
-27.12
-34.98
-41.70
-47.82
-53.76
-59.33
-63.39
-64.10
-59.49
-48.50
-31.63
-11.13
9.61
27.25
39.68
46.71
49.77
51.01
52.12
53.63
54.85
54.57
51.92
47.06
41.20
36.02
32.96
32.48
33.98
36.09
37.38
36.96
34.76
31.50
28.21
25.79
24.56
24.23
23.94
22.70
19.82
15.19
9.45
3.71
-0.96
-3.99
-5.61
-6.67
-8.24
-11.14
-15.73
-21.93
-29.30
-37.14
-44.46
-49.95
-52.21
-50.22
-43.85
-34.10
-22.80
-11.93
-2.91
3.77
8.27
10.91
11.83
10.87
7.98
3.57
-1.44
-5.89
-8.86
-10.16
-10.53
-11.42
-14.46
-20.76
-30.23
-41.17
-50.52
-54.65
-50.62
-37.43
-16.65
7.86
31.18
49.01
58.94
60.97
56.88
49.16
39.84
30.06
20.17
10.39
1.37
-5.69
-9.36
-8.70
-3.80
4.11
12.97
20.67
25.73
27.74
27.34
25.83
24.56
24.29
24.98
25.83
25.66
23.53
19.12
12.98
6.26
0.29
-4.01
-6.44
-7.53
-8.23
-9.58
-12.46
-17.38
-24.38
-32.88
-41.69
-49.21
-53.84
-54.65
-51.68
-45.96
-38.95
-31.91
-25.40
-19.41
-13.81
-8.78
-4.98
-3.16
-3.65
-6.03
-9.31
-12.38
-14.56
-15.90
-17.05
-18.97
-22.44
-27.69
-34.18
-40.50
-44.65
-44.48
-38.49
-26.52
-10.02
8.24
25.07
38.00
46.04
49.78
50.82
50.92
51.23
52.05
53.02
53.62
53.63
53.28
53.19
54.00
56.01
58.92
61.78
63.16
61.60
56.07
46.39
33.27
18.19
2.97
-10.67
-21.40
-28.52
-31.95
-32.10
-29.77
-25.85
-21.26
-16.79
-13.07
-10.64
-10.01
-11.77
-16.52
-24.61
-35.74
-48.76
-61.65
-71.99
-77.61
-77.31
-71.14
-60.34
-46.83
-32.59
-19.23
-7.86
0.90
6.74
9.76
10.48
9.92
9.41
10.16
12.77
16.81
20.65
21.84
17.91
7.52
-8.47
-26.58
-41.36
-47.07
-39.97
-20.11
8.25
37.95
61.56
74.06
74.46
65.57
52.23
39.11
28.95
22.28
18.15
15.38
13.53
12.94
14.22
17.46
21.82
25.74
27.65
26.66
23.01
17.91
12.97
9.51
8.01
8.02
8.52
8.40
7.05
4.54
1.55
-1.02
-2.46
-2.62
-1.92
-1.23
-1.46
-3.21
-6.59
-11.09
-15.90
-20.15
-23.28
-25.15
-26.03
-26.42
-26.82
-27.57
-28.77
-30.34
-32.05
-33.63
-34.81
-35.45
-35.59
-35.47
-35.41
-35.62
-36.01
-36.15
-35.46
-33.51
-30.38
-26.67
-23.39
-21.43
-21.17
-22.18
-23.40
-23.54
-21.58
-17.13
-10.46
-2.29
6.66
15.92
25.31
34.83
44.39
53.72
62.44
70.15
76.42
80.51
81.15
76.71
66.02
49.44
29.52
10.65
-2.62
-7.63
-5.02
1.58
7.38
9.00
5.91
0.42
-4.09
-5.28
-3.24
-0.24
0.75
-2.04
-8.05
-14.71
-18.68
-17.18
-9.02
5.18
23.36
42.41
58.53
67.48
65.22
49.58
22.24
-10.33
-38.27
-52.04
-46.56
-23.68
8.65
39.60
60.73
69.80
71.09
72.11
78.73
91.97
108.05
120.72
123.52
112.16
85.55
45.71
-3.11
-55.43
-104.67
-143.32
-164.31
-164.54
-146.50
-118.03
-89.56
-70.91
-68.66
-84.52
-115.39
-148.18
-168.09
-165.99
-144.29
-112.72
-80.05
-50.42
-24.49
-1.77
17.66
32.10
39.62
39.78
34.78
28.52
24.63
24.86
28.96
35.13
40.20
41.28
37.01
28.48
18.45
9.63
2.95
-1.11
-3.39
-5.70
-9.87
-17.05
-27.17
-39.21
-51.64
-62.64
-70.02
-71.75
-66.82
-55.74
-40.61
-24.43
-10.23
-0.26
4.53
4.66
1.53
-3.14
-7.74
-11.06
-12.38
-11.49
-9.00
-6.13
-4.15
-3.84
-5.07
-6.92
-8.04
-7.19
-3.66
2.42
9.99
17.13
21.32
20.40
13.73
3.18
-7.00
-11.43
-5.99
10.24
34.31
60.60
83.21
98.38
105.56
106.75
104.79
101.71
98.03
93.27
86.94
79.34
71.59
65.02
60.36
57.34
54.83
51.47
46.30
39.38
31.69
24.69
19.69
17.20
16.72
16.95
16.38
13.99
9.67
4.28
-0.83
-4.43
-5.94
-5.69
-4.67
-4.06
-4.75
-6.86
-9.80
-12.44
-13.68
-12.90
-10.31
-6.87
-3.96
-2.76
-3.73
-6.39
-9.53
-11.68
-11.88
-10.15
-7.64
-6.20
-7.60
-12.50
-19.98
-27.59
-32.21
-31.38
-24.44
-12.89
0.02
10.41
15.00
11.95
1.38
-14.35
-30.67
-41.37
-40.03
-22.21
12.46
59.28
109.46
152.77
181.02
190.57
183.15
164.53
142.11
122.46
109.69
104.87
106.47
111.31
115.82
117.12
113.39
103.77
87.96
66.27
40.11
12.81
-10.51
-24.19
-24.43
-11.39
10.25
32.88
48.99
53.99
47.38
31.74
10.65
-13.09
-38.06
-63.45
-88.08
-109.95
-126.73
-136.78
-139.95
-137.72
-132.51
-126.69
-121.87
-118.59
-116.60
-115.26
-113.93
-112.14
-109.66
-106.38
-102.29
-97.45
-92.01
-86.18
-80.26
-74.57
-69.39
-64.91
-61.07
-57.63
-54.22
-50.55
-46.62
-42.73
-39.37
-36.96
-35.63
-35.16
-35.20
-35.63
-36.56
-38.26
-40.98
-44.74
-49.27
-54.05
-58.49
-62.19
-65.08
-67.18
-68.47
-68.82
-68.26
-67.12
-66.05
-65.87
-67.26
-70.71
-75.92
-81.76
-86.71
-89.67
-90.46
-89.76
-88.76
-88.74
-91.17
-96.70
-104.96
-115.15
-126.58
-138.71
-149.94
-157.30
-156.96
-146.55
-124.42
-89.40
-41.59
16.61
80.05
142.58
197.89
240.57
265.27
270.57
260.64
243.15
225.64
212.32
204.91
202.30
200.48
190.94
166.34
125.09
72.07
16.40
-32.14
-63.76
-71.72
-40.54
28.00
110.79
178.78
215.34
225.18
214.00
186.18
144.71
94.92
41.11
-11.19
-54.79
-83.49
-95.05
-92.64
-81.34
-66.36
-51.91
-42.62
-40.16
-42.11
-43.97
-42.46
-37.54
-30.52
-23.15
-16.82
-13.39
-13.15
-14.08
-13.23
-8.72
-1.07
8.19
17.33
25.01
29.88
31.48
30.42
27.75
24.12
19.49
13.93
7.91
2.20
-2.69
-6.50
-9.06
-10.38
-10.67
-10.35
-9.70
-8.90
-8.06
-7.35
-7.02
-7.31
-8.28
-9.80
-11.52
-12.99
-13.83
-13.88
-13.20
-12.01
-10.54
-8.98
-7.40
-5.87
-4.50
-3.36
-2.53
-1.97
-1.59
-1.26
-0.97
-0.74
-0.64
-0.67
-0.71
-0.61
-0.24
0.38
1.12
1.80
2.28
2.51
2.55
2.46
2.24
1.85
1.21
0.33
-0.70
-1.70
-2.48
-2.93
-3.10
-3.07
-2.92
-2.65
-2.20
-1.51
-0.63
0.28
1.00
1.39
1.47
1.39
1.35
1.46
1.71
2.02
2.29
2.50
2.66
2.85
3.09
3.38
3.69
3.98
4.16
4.19
4.01
3.65
3.17
2.73
2.39
2.19
2.06
1.94
1.76
1.53
1.28
1.01
0.69
0.27
-0.29
-0.96
-1.63
-2.17
-2.50
-2.58
-2.52
-2.47
-2.60
-2.97
-3.53
-4.07
-4.34
-4.18
-3.61
-2.88
-2.30
-2.14
-2.43
-2.97
-3.45
-3.62
-3.38
-2.88
-2.33
-1.98
-1.94
-2.18
-2.57
-2.96
-3.23
-3.35
-3.39
-3.43
-3.52
-3.68
-3.87
-3.99
-3.94
-3.69
-3.34
-3.02
-2.89
-3.00
-3.25
-3.45
-3.42
-3.11
-2.62
-2.19
-2.01
-2.16
-2.52
-2.87
-2.98
-2.77
-2.32
-1.85
-1.65
-1.93
-2.73
-3.95
-5.33
-6.58
-7.46
-7.85
-7.71
-7.11
-6.17
-5.09
-4.09
-3.35
-2.99
-2.98
-3.19
-3.42
-3.54
-3.51
-3.41
-3.35
-3.42
-3.65
-3.98
-4.37
-4.80
-5.27
-5.78
-6.32
-6.85
-7.34
-7.76
-8.08
-8.26
-8.22
-7.93
-7.44
-6.89
-6.49
-6.39
-6.58
-6.89
-7.04
-6.74
-5.91
-4.67
-3.28
-2.00
-0.95
-0.01
0.99
2.20
3.59
4.96
6.04
6.67
6.88
6.85
6.85
7.09
7.61
8.33
9.06
9.62
9.91
9.89
9.65
9.27
8.91
8.67
8.63
8.80
9.11
9.42
9.57
9.36
8.55
6.92
4.35
1.00
-2.66
-5.86
-7.78
-7.84
-5.98
-2.65
1.35
5.22
8.47
11.00
12.95
14.47
15.43
15.42
13.85
10.28
4.69
-2.40
-10.03
-17.05
-22.41
-25.48
-26.09
-24.55
-21.43
-17.44
-13.19
-9.21
-5.86
-3.36
-1.77
-0.96
-0.61
-0.27
0.50
1.95
3.98
6.17
7.82
8.35
7.42
5.14
2.00
-1.31
-4.11
-6.01
-6.89
-6.83
-5.99
-4.52
-2.52
-0.12
2.42
4.77
6.58
7.66
8.03
7.93
7.64
7.37
7.14
6.77
6.09
5.05
3.78
2.53
1.61
1.18
1.32
1.97
3.06
4.56
6.37
8.35
10.15
11.31
11.37
10.03
7.31
3.52
-0.74
-4.85
-8.24
-10.66
-12.07
-12.76
-13.08
-13.31
-13.53
-13.57
-13.15
-12.15
-10.76
-9.49
-8.92
-9.37
-10.66
-12.18
-13.13
-12.95
-11.51
-9.15
-6.35
-3.55
-0.97
1.32
3.21
4.60
5.39
5.65
5.66
5.72
5.82
5.44
3.60
-0.73
-7.94
-17.32
-26.99
-34.39
-37.09
-33.76
-24.59
-11.22
3.85
18.11
29.72
37.78
42.26
43.60
42.44
39.45
35.33
30.86
26.91
24.22
23.15
23.52
24.73
25.93
26.43
25.82
24.22
22.19
20.35
19.11
18.56
18.44
18.27
17.55
15.81
13.03
9.68
6.46
3.99
2.49
1.75
1.23
0.41
-1.21
-3.53
-6.00
-8.13
-9.87
-11.49
-13.25
-15.05
-16.42
-17.44
-17.92
-17.55
-16.52
-15.63
-15.59
-16.54
-17.87
-18.62
-19.56
-20.89
-22.10
-22.88
-23.80
-25.71
-29.23
-34.62
-41.65
-52.15
-65.72
-79.85
-92.22
-102.81
-113.36
-126.59
-144.87
-168.77
-199.54
-233.38
-262.13
-277.53
-275.43
-256.07
-223.53
-183.77
-122.06
-42.10
38.60
103.76
149.07
178.06
196.28
209.14
220.21
231.65
241.43
248.98
255.75
263.39
266.65
260.76
241.55
206.64
157.25
96.64
34.27
-16.38
-43.20
-40.61
-10.05
40.67
100.28
157.27
200.20
221.73
219.35
194.54
151.63
97.88
41.56
-9.99
-51.80
-83.01
-104.21
-116.22
-120.09
-117.63
-111.04
-102.97
-95.85
-91.07
-89.50
-90.27
-91.22
-90.61
-88.11
-84.47
-80.89
-78.29
-76.81
-76.85
-77.75
-78.35
-78.08
-77.42
-77.36
-78.68
-81.35
-84.57
-88.31
-91.57
-92.50
-89.40
-81.48
-68.92
-52.73
-34.89
-10.63
16.75
39.42
51.92
54.88
52.62
49.33
47.56
48.10
50.81
53.83
56.05
57.23
56.89
53.58
45.41
31.72
14.39
-2.58
-14.30
-15.83
-4.37
18.77
48.05
75.66
94.55
101.08
97.36
88.48
80.28
76.97
79.51
86.07
91.53
90.92
80.77
60.29
31.38
-1.40
-32.41
-57.35
-74.42
-84.47
-88.69
-87.34
-80.16
-67.92
-53.23
-40.20
-33.11
-32.56
-37.94
-45.72
-50.72
-49.41
-42.02
-32.15
-24.29
-21.31
-23.12
-27.11
-28.89
-23.82
-10.00
10.37
32.41
51.05
62.98
67.45
65.98
61.85
59.75
62.86
71.50
83.79
97.17
109.13
117.18
119.04
107.05
80.23
46.92
18.19
-0.22
-8.65
-10.14
-8.00
-4.30
0.31
6.88
15.62
24.86
32.17
36.09
36.97
35.88
34.38
33.89
35.76
39.99
44.51
47.36
47.48
45.38
41.76
38.04
35.54
35.46
37.84
41.42
44.49
45.95
45.90
44.29
41.83
39.28
37.16
35.00
31.16
23.04
6.85
-13.67
-38.04
-65.69
-95.46
-125.17
-151.83
-172.30
-184.18
-186.65
-180.50
-168.80
-154.28
-138.51
-121.73
-103.53
-83.90
-63.94
-45.74
-31.41
-22.85
-20.12
-21.75
-25.67
-30.12
-34.13
-37.53
-40.50
-43.17
-46.11
-49.69
-54.37
-60.67
-68.68
-77.61
-85.64
-90.38
-89.74
-83.20
-71.67
-57.19
-41.95
-27.60
-14.93
-4.24
4.37
10.77
15.06
17.99
20.88
25.13
31.26
38.47
44.80
48.16
47.44
43.24
37.56
32.77
30.38
30.35
31.19
30.70
27.04
19.39
8.12
-5.48
-19.78
-33.36
-45.52
-56.58
-68.01
-82.39
-102.83
-131.79
-169.59
-213.28
-256.75
-292.28
-313.02
-315.41
-300.15
-271.40
-234.81
-195.22
-155.35
-115.86
-76.36
-36.27
4.75
46.78
89.73
133.01
174.98
212.78
242.89
262.25
269.43
265.09
251.59
232.10
209.71
187.02
166.16
148.76
135.74
127.01
121.26
116.39
110.37
102.13
92.00
81.33
71.66
63.89
57.87
52.48
46.35
38.52
28.76
17.66
6.29
-4.22
-13.08
-19.88
-24.68
-27.71
-29.25
-29.53
-28.68
-26.88
-24.45
-21.96
-20.23
-20.18
-22.49
-27.39
-34.48
-42.77
-51.19
-58.93
-65.93
-72.96
-81.30
-92.03
-105.30
-120.00
-133.90
-144.36
-149.16
-147.19
-138.66
-124.74
-107.10
-87.29
-66.46
-45.33
-24.28
-3.32
17.93
40.29
64.65
91.37
119.44
146.21
167.90
180.99
183.81
177.48
165.53
152.43
141.74
134.95
131.60
130.36
130.08
130.34
131.02
131.63
130.90
127.08
118.76
105.57
88.24
68.22
46.94
25.30
3.95
-16.37
-34.45
-48.78
-58.35
-63.62
-67.23
-73.57
-87.20
-110.67
-142.57
-177.15
-205.94
-220.37
-214.59
-187.06
-140.78
-82.59
-21.97
30.32
64.15
72.76
55.39
18.63
-25.01
-61.30
-79.58
-76.62
-57.01
-29.92
-4.17
15.56
29.82
42.54
57.79
77.29
99.49
120.31
134.63
138.30
129.30
108.26
78.05
42.66
6.08
-27.85
-55.01
-70.70
-70.51
-52.57
-19.92
18.83
51.78
68.47
64.74
44.76
19.04
-0.76
-7.15
0.43
16.68
33.78
44.54
44.18
30.53
4.01
-32.00
-70.53
-101.73
-115.39
-105.08
-71.56
-23.59
25.00
60.96
76.91
73.72
58.89
42.12
30.76
27.43
30.52
36.66
43.04
48.48
52.78
55.58
55.67
51.31
41.53
27.02
10.25
-5.28
-16.33
-21.11
-19.80
-14.36
-7.80
-3.11
-2.35
-5.97
-12.93
-21.30
-29.28
-35.89
-41.27
-46.29
-51.76
-57.71
-63.18
-66.58
-66.43
-62.06
-53.89
-43.19
-31.56
-20.28
-9.93
-0.41
8.84
18.56
29.25
40.95
52.99
63.87
71.57
74.12
70.36
60.47
46.10
30.11
15.86
6.48
4.10
9.39
21.22
36.72
51.86
62.50
65.69
60.68
49.04
34.01
19.42
7.90
0.00
-5.32
-9.62
-14.16
-19.49
-25.65
-32.29
-38.55
-43.68
-47.21
-48.73
-47.77
-43.88
-36.91
-27.17
-15.24
-1.05
14.88
31.19
46.30
59.32
70.18
79.26
86.80
92.81
99.60
108.04
116.76
123.57
127.47
128.84
128.33
126.09
122.21
122.21
129.15
141.36
154.67
166.23
175.33
182.06
186.22
188.26
197.28
217.86
246.25
274.26
296.12
310.48
318.14
319.91
317.28
322.74
342.82
373.30
404.18
428.71
446.11
458.50
468.03
406.13
254.05
53.98
-130.45
-265.27
-348.77
-392.05
-403.24
-399.99
-394.82
-384.43
-366.15
-343.49
-322.85
-310.05
-303.26
-299.81
-300.58
-310.60
-326.74
-346.15
-368.35
-392.89
-415.43
-428.50
-427.03
-396.53
-335.79
-255.34
-173.27
-103.67
-52.99
-21.41
-3.82
3.31
2.31
-5.71
-15.63
-21.68
-20.70
-13.14
-1.70
10.61
20.81
26.91
26.94
21.85
14.72
8.82
5.82
5.79
8.04
11.16
13.77
14.09
11.49
7.16
3.15
0.88
0.61
1.78
3.43
4.82
5.16
4.23
2.56
0.96
-0.07
-0.47
-0.37
0.01
0.47
0.65
0.25
-0.72
-2.06
-3.49
-4.78
-5.73
-6.15
-5.93
-5.04
-3.64
-2.05
-0.73
-0.03
-0.08
-0.76
-1.70
-2.53
-2.97
-2.96
-2.63
-2.15
-1.71
-1.36
-1.12
-0.92
-0.72
-0.47
-0.19
0.15
0.54
1.00
1.54
2.12
2.65
2.98
2.96
2.53
1.76
0.90
0.20
-0.13
-0.08
0.22
0.50
0.53
0.19
-0.58
-1.71
-3.12
-4.65
-6.08
-7.14
-7.63
-7.50
-6.99
-6.52
-6.60
-7.55
-9.38
-11.81
-14.39
-16.76
-18.78
-20.50
-22.08
-23.59
-24.95
-25.98
-26.51
-26.46
-25.93
-25.05
-24.05
-23.12
-22.47
-22.12
-21.89
-21.37
-20.05
-17.66
-14.34
-10.62
-7.14
-4.30
-1.87
0.82
4.53
9.51
15.28
20.75
24.66
26.17
25.09
21.95
17.71
13.53
10.40
8.75
8.13
7.04
2.95
-7.51
-27.71
-59.67
-102.37
-150.93
-197.04
-231.10
-245.20
-235.81
-204.65
-157.30
-100.52
-40.05
19.83
75.18
121.07
151.84
163.15
154.23
129.33
96.88
66.29
44.36
33.25
30.32
30.70
30.23
26.71
20.17
12.06
4.23
-1.86
-5.39
-6.93
-7.23
-6.02
-2.23
5.47
17.61
32.91
48.14
59.05
59.54
45.84
21.65
-4.82
-27.49
-44.75
-57.06
-66.15
-68.30
-59.72
-38.66
-6.37
32.98
74.38
112.90
140.00
149.66
144.37
131.66
117.70
103.71
87.04
64.82
36.90
7.76
-18.57
-37.11
-45.61
-45.41
-40.34
-35.13
-33.70
-37.86
-45.73
-53.90
-57.63
-54.47
-45.57
-34.92
-27.26
-25.53
-29.23
-34.63
-36.94
-32.59
-21.87
-8.42
3.55
11.88
17.33
22.38
29.04
37.11
44.49
48.18
46.29
39.58
31.03
24.08
20.67
20.48
21.52
21.84
20.48
17.77
14.80
12.53
11.32
11.28
12.96
17.55
26.31
39.14
53.50
64.44
66.40
55.59
32.40
1.80
-28.86
-53.14
-68.53
-76.83
-82.28
-88.53
-96.53
-103.78
-105.84
-99.17
-83.32
-61.64
-39.57
-22.23
-12.49
-10.71
-14.87
-21.91
-29.33
-36.03
-42.50
-49.51
-56.97
-61.42
-60.53
-54.78
-47.05
-41.65
-40.09
-43.22
-50.95
-61.91
-74.19
-86.23
-96.80
-105.01
-110.43
-113.01
-113.35
-112.12
-109.81
-106.88
-104.19
-102.69
-103.23
-106.37
-111.88
-118.86
-125.35
-128.73
-126.60
-117.83
-103.03
-84.33
-64.52
-45.59
-28.20
-11.35
6.88
27.88
51.23
74.64
95.14
110.80
122.26
132.32
144.50
161.45
183.94
210.88
240.02
268.51
292.85
309.14
312.78
300.20
271.41
231.52
189.46
154.10
129.77
113.73
99.10
77.37
43.73
1.01
-40.59
-68.83
-76.25
-64.20
-41.79
-17.62
1.64
13.86
22.07
32.13
47.96
68.15
86.70
96.80
99.68
98.52
95.71
92.33
89.74
89.97
95.39
109.01
133.99
178.13
241.74
314.83
381.21
426.67
443.78
432.45
398.52
312.44
176.21
22.19
-111.33
-207.66
-270.47
-309.56
-332.23
-341.51
-337.96
-317.43
-278.88
-227.58
-173.00
-122.67
-80.01
-45.69
-18.89
1.82
23.38
44.31
62.14
73.66
77.97
76.07
68.60
54.60
32.21
3.49
-28.59
-59.99
-86.04
-100.91
-99.50
-80.20
-46.30
-5.59
33.26
61.00
70.39
57.97
26.06
-17.96
-64.37
-104.21
-132.00
-145.57
-146.68
-139.50
-129.03
-119.15
-111.94
-108.04
-107.20
-109.22
-113.03
-117.24
-120.61
-122.45
-122.42
-120.69
-117.98
-115.23
-113.82
-112.97
-110.74
-105.95
-99.78
-96.12
-100.17
-115.73
-142.06
-173.35
-198.06
-204.36
-186.14
-145.37
-90.50
-32.16
21.23
71.46
113.50
143.09
160.86
170.39
174.26
172.66
164.48
148.64
125.60
97.07
67.97
43.36
25.96
15.35
7.66
-0.64
-11.21
-22.72
-32.28
-36.05
-32.55
-23.23
-11.07
1.20
12.44
23.06
34.30
46.44
58.70
66.83
64.48
52.23
39.50
37.62
50.19
70.17
85.22
86.01
71.70
51.01
36.44
35.25
44.24
52.57
49.76
32.81
7.33
-19.53
-41.09
-53.24
-55.53
-50.79
-41.90
-28.77
-7.79
23.54
63.62
106.66
144.49
168.69
171.91
151.64
106.26
44.66
-21.12
-80.84
-127.47
-156.41
-158.04
-128.30
-77.15
-24.62
12.38
26.93
21.56
0.49
-31.35
-70.18
-113.36
-157.43
-197.32
-225.35
-234.23
-219.69
-182.23
-127.01
-63.41
-3.39
42.52
69.09
77.97
75.01
66.71
57.74
50.22
43.70
35.82
24.57
10.17
-4.52
-16.07
-22.37
-23.35
-20.11
-14.10
-6.49
2.20
12.26
24.10
37.42
50.81
62.24
70.10
73.77
73.66
70.96
67.25
63.91
61.72
60.67
60.13
59.29
57.57
54.83
51.41
47.93
45.07
43.30
42.73
43.09
43.91
44.63
44.83
44.32
43.21
41.89
40.97
41.08
42.60
45.49
49.24
53.06
56.24
58.61
60.74
63.85
69.45
78.69
91.97
108.61
126.99
144.85
159.81
169.86
173.92
172.13
165.95
157.78
150.12
144.53
140.68
136.19
127.36
110.68
84.44
49.73
10.17
-28.78
-62.08
-86.49
-101.05
-106.98
-106.72
-103.03
-98.44
-95.10
-94.25
-96.69
-102.45
-110.69
-119.76
-127.60
-132.36
-133.06
-130.53
-126.00
-122.08
-121.28
-124.99
-132.85
-142.69
-151.18
-154.83
-152.45
-142.03
-125.11
-104.90
-85.20
-69.25
-58.85
-53.82
-52.28
-53.91
-53.07
-48.34
-40.07
-30.11
-21.03
-15.14
-13.54
-15.74
-24.02
-31.54
-37.01
-40.44
-42.84
-45.85
-51.17
-59.94
-71.96
-90.85
-108.28
-123.00
-135.40
-147.19
-160.90
-179.32
-204.73
-203.90
-218.88
-239.83
-263.22
-284.70
-298.23
-297.15
-276.61
-235.54
-175.99
-107.12
-27.47
57.11
139.86
213.80
271.70
306.99
315.65
294.85
245.64
190.30
147.22
122.60
110.87
102.32
89.44
67.84
41.56
14.57
-4.27
-12.08
-8.58
5.72
29.69
63.62
101.69
135.85
157.80
165.22
157.72
137.45
108.01
72.98
35.46
-1.28
-31.51
-48.70
-47.04
-26.77
5.49
39.45
65.56
78.72
79.42
72.93
65.33
60.29
57.23
52.85
44.22
31.13
16.50
4.64
-0.60
2.13
11.08
22.16
31.00
34.80
33.39
28.49
22.39
16.84
12.41
8.71
5.04
1.05
-2.90
-6.08
-7.88
-8.29
-7.98
-7.96
-9.15
-11.85
-15.52
-18.98
-20.86
-20.22
-16.80
-10.99
-3.54
4.80
13.53
22.39
31.15
39.47
46.83
52.61
56.32
57.75
57.02
54.42
50.10
43.85
35.09
23.15
7.60
-11.15
-31.72
-52.07
-70.00
-84.02
-93.92
-101.05
-107.72
-116.30
-127.75
-140.73
-151.62
-155.36
-147.06
-123.19
-82.71
-27.65
36.64
101.88
157.67
193.59
202.00
180.79
134.80
75.12
15.96
-29.78
-54.11
-55.30
-36.31
-1.83
43.63
96.09
150.71
200.64
237.57
254.27
247.66
220.21
179.39
134.76
95.05
66.67
54.11
61.15
90.84
143.82
215.74
296.00
369.63
422.05
444.10
435.17
402.40
357.03
309.36
265.27
225.62
187.87
148.90
107.08
62.99
18.97
-21.97
-56.83
-83.11
-99.47
-106.25
-105.88
-102.39
-100.46
-103.78
-113.70
-128.68
-145.04
-158.57
-166.45
-168.38
-166.60
-164.72
-165.88
-171.37
-180.19
-189.80
-197.50
-202.07
-203.59
-202.85
-200.67
-197.34
-192.59
-186.03
-177.95
-169.47
-162.53
-158.58
-157.76
-158.78
-159.61
-158.32
-153.84
-146.45
-137.57
-130.01
-125.65
-124.67
-125.94
-128.14
-130.33
-132.16
-133.74
-135.32
-139.10
-145.24
-151.29
-154.06
-151.78
-144.56
-133.59
-120.56
-107.07
-98.81
-97.80
-101.18
-104.56
-105.97
-106.07
-106.46
-108.40
-112.36
-125.03
-147.75
-174.79
-198.76
-216.51
-229.08
-238.97
-248.36
-258.65
-279.43
-312.98
-351.43
-383.27
-401.24
-403.55
-391.63
-368.50
-278.54
-116.34
71.90
232.76
345.98
417.14
457.23
474.45
475.14
461.99
429.05
378.52
322.58
275.30
244.69
231.57
231.88
239.91
250.68
254.79
250.67
245.54
249.40
267.88
299.42
337.35
372.55
395.56
394.45
363.86
306.52
231.51
150.80
75.13
13.59
-26.56
-41.59
-34.75
-13.10
13.07
33.57
41.76
33.60
9.70
-24.12
-59.55
-89.82
-110.72
-122.53
-126.90
-123.64
-114.19
-100.42
-82.94
-62.13
-39.24
-6.57
33.45
59.66
66.58
58.63
39.44
13.47
-14.98
-42.69
-67.54
-89.78
-108.75
-120.71
-124.18
-120.16
-110.69
-98.52
-86.38
-76.10
-69.39
-65.80
-61.53
-53.91
-41.79
-24.71
-3.25
20.81
44.84
65.19
79.56
88.82
94.97
100.70
108.92
121.38
137.76
155.84
172.14
183.99
190.93
193.82
194.25
194.03
194.49
196.15
199.01
202.58
206.21
208.91
208.72
202.77
188.16
163.20
128.58
87.93
47.02
11.82
-13.77
-29.49
-38.77
-47.10
-59.56
-78.59
-103.13
-129.38
-152.83
-170.32
-181.33
-187.93
-193.76
-202.65
-217.43
-239.27
-267.48
-299.47
-331.05
-357.10
-372.65
-374.04
-359.81
-330.96
-290.27
-241.25
-187.28
-131.26
-75.84
-23.75
22.10
59.19
85.89
101.92
107.98
105.23
94.60
76.88
53.06
24.90
-5.17
-34.82
-62.73
-89.02
-114.64
-140.11
-164.26
-183.95
-195.04
-194.20
-180.49
-155.72
-123.61
-88.19
-52.43
-17.90
14.65
44.36
69.89
89.72
103.09
110.59
114.20
116.43
119.29
123.39
127.84
130.81
130.39
125.43
115.94
103.04
88.54
74.37
62.00
52.09
44.46
38.27
32.51
26.43
19.84
13.02
6.44
0.49
-4.68
-9.15
-13.00
-16.20
-18.62
-20.00
-20.19
-19.15
-16.96
-13.84
-10.00
-5.61
-0.77
4.43
9.81
15.02
19.59
23.11
25.47
26.96
28.16
29.56
31.26
32.73
33.10
31.57
27.96
23.02
18.29
15.50
15.86
19.49
25.29
31.27
35.25
35.67
32.13
25.47
17.30
9.23
1.95
-5.04
-13.24
-24.28
-38.90
-56.27
-74.07
-89.29
-99.33
-102.99
-100.71
-94.24
-85.97
-78.14
-71.98
-66.92
-60.24
-47.72
-25.64
6.65
44.83
79.90
100.75
98.53
70.63
22.34
-34.43
-84.99
-116.14
-119.69
-94.24
-45.35
15.76
74.93
118.59
137.59
129.76
99.91
57.29
11.85
-28.95
-61.13
-83.38
-95.47
-97.44
-90.14
-76.34
-61.14
-50.57
-49.15
-57.57
-72.30
-87.20
-96.31
-96.37
-87.70
-73.36
-57.28
-42.51
-30.39
-20.67
-12.34
-4.37
3.82
12.60
22.60
35.18
52.17
75.02
103.56
135.16
164.85
186.61
195.51
189.57
170.58
143.40
114.12
87.98
67.92
54.45
46.31
41.61
38.68
36.48
34.41
32.05
28.92
24.42
18.03
9.68
-0.16
-10.48
-19.99
-27.51
-32.26
-34.02
-33.05
-29.81
-24.76
-18.18
-10.15
-0.59
10.53
23.04
36.48
50.06
62.82
73.85
82.61
89.03
93.61
97.18
100.54
104.21
108.14
111.90
114.79
116.21
115.74
113.21
108.72
102.73
96.15
90.26
86.28
84.61
84.33
83.14
78.12
66.85
48.64
24.89
-1.45
-26.88
-48.73
-65.69
-77.90
-86.23
-91.72
-95.11
-96.79
-97.05
-96.17
-94.43
-91.94
-88.45
-83.25
-75.38
-64.12
-49.42
-32.18
-13.99
3.41
18.83
32.02
43.41
53.45
61.84
67.31
68.05
62.81
51.78
36.99
21.75
9.37
2.02
0.09
2.56
7.74
14.21
21.07
27.83
33.88
38.25
39.73
37.46
31.46
22.86
13.64
5.81
0.53
-2.33
-4.17
-7.01
-12.60
-21.64
-33.55
-46.54
-58.35
-66.94
-71.08
-70.68
-66.66
-60.53
-53.81
-47.54
-42.11
-37.43
-33.34
-30.10
-28.39
-29.04
-32.37
-37.81
-43.84
-48.52
-50.34
-48.84
-44.91
-40.43
-37.70
-38.75
-44.83
-56.06
-71.45
-89.07
-106.59
-121.91
-133.55
-140.97
-144.31
-144.14
-141.22
-136.41
-130.77
-125.53
-121.74
-119.87
-119.53
-119.50
-118.22
-114.36
-107.06
-95.94
-80.76
-61.44
-38.35
-12.91
12.28
33.90
49.27
57.69
61.06
63.16
67.82
76.86
88.93
100.21
106.33
104.70
95.87
83.07
70.56
61.40
56.37
54.05
52.27
49.50
45.68
41.85
39.21
38.14
37.88
36.96
34.05
28.65
21.38
13.64
6.93
2.09
-0.95
-3.22
-6.07
-10.66
-17.29
-25.33
-33.48
-40.17
-44.15
-44.78
-42.04
-36.37
-28.49
-19.24
-9.48
-0.20
7.70
13.53
17.03
18.43
18.24
16.92
14.51
10.55
4.24
-5.03
-16.98
-29.95
-40.77
-45.30
-39.47
-20.73
10.54
50.26
91.00
123.61
140.02
136.11
113.45
79.31
44.57
20.48
15.10
30.77
63.23
102.95
137.99
157.61
155.33
130.54
88.21
36.98
-13.47
-54.84
-81.79
-92.41
-87.89
-71.86
-49.48
-26.46
-7.82
3.24
6.07
2.50
-4.16
-10.34
-13.40
-12.25
-7.35
-0.22
7.30
13.61
17.80
19.68
19.77
18.97
18.27
18.38
19.54
21.46
23.51
24.98
25.39
24.63
22.88
20.55
17.94
15.26
12.58
9.85
6.96
3.77
0.11
-4.15
-9.01
-14.31
-19.76
-25.03
-29.95
-34.47
-38.65
-42.32
-45.03
-45.98
-44.37
-39.75
-32.32
-23.00
-13.11
-3.94
3.75
9.77
14.49
18.43
21.93
25.09
27.81
30.03
31.75
33.08
33.97
34.20
33.37
31.17
27.55
22.84
17.65
12.62
8.28
4.95
2.73
1.51
0.97
0.58
-0.43
-2.81
-7.07
-13.06
-19.95
-26.26
-30.44
-31.45
-29.40
-25.80
-23.31
-24.96
-33.12
-48.53
-69.87
-94.19
-117.81
-137.65
-152.07
-161.07
-165.78
-167.60
-167.39
-165.01
-159.54
-149.64
-134.38
-114.13
-91.29
-70.33
-56.98
-56.43
-71.26
-99.92
-136.73
-173.44
-201.97
-216.91
-216.95
-204.38
-183.55
-158.73
-132.82
-106.91
-80.77
-53.51
-24.01
8.68
45.07
84.84
126.49
167.38
204.12
233.32
252.48
260.63
258.29
247.08
229.15
206.68
181.62
155.83
131.25
109.94
93.86
84.41
81.85
85.04
91.57
98.45
103.02
103.91
101.21
96.04
89.80
83.42
77.06
70.47
63.49
56.48
50.34
46.10
44.34
44.86
46.67
48.46
49.12
48.16
45.79
42.66
39.48
36.63
34.11
31.63
28.92
25.93
22.91
20.29
18.52
17.75
17.84
18.30
18.50
17.96
16.52
14.40
12.14
10.33
9.49
9.94
11.94
15.73
21.60
29.65
39.54
50.32
60.59
69.05
75.09
79.19
82.71
87.08
92.93
99.56
105.05
107.11
104.03
95.27
81.58
64.38
45.22
25.28
5.43
-13.63
-31.27
-46.92
-60.35
-71.81
-81.90
-91.17
-99.67
-106.80
-111.48
-112.80
-110.64
-105.95
-100.64
-96.74
-95.53
-96.70
-98.30
-97.33
-91.18
-78.94
-62.21
-44.67
-30.57
-22.90
-22.01
-25.55
-29.57
-30.38
-25.97
-16.57
-4.18
8.66
19.83
28.06
32.80
33.79
30.82
23.79
13.03
-0.50
-15.10
-28.54
-38.24
-41.83
-37.69
-25.53
-6.69
15.96
38.47
56.78
67.77
70.15
64.84
54.58
42.91
32.98
26.49
23.37
22.06
20.40
16.65
10.29
2.11
-6.12
-12.47
-15.63
-15.46
-13.01
-10.19
-8.99
-10.57
-14.62
-19.41
-22.70
-23.04
-20.73
-17.75
-16.51
-18.10
-21.16
-22.10
-17.02
-4.05
14.95
34.95
49.93
55.86
52.54
43.35
33.22
26.03
22.90
22.37
22.10
20.77
19.02
18.77
21.50
26.84
32.25
34.28
30.58
21.29
9.11
-2.17
-9.58
-12.43
-12.23
-11.50
-12.01
-14.06
-16.76
-19.19
-21.64
-25.64
-32.86
-43.44
-54.87
-62.63
-62.37
-52.40
-35.28
-17.13
-5.11
-4.23
-14.94
-32.84
-50.30
-59.26
-53.86
-31.94
4.60
50.38
97.42
136.47
158.74
158.23
133.95
90.93
39.27
-8.77
-42.40
-55.43
-47.50
-23.29
9.61
43.03
69.85
84.82
85.07
70.43
43.65
10.07
-23.69
-51.63
-70.03
-78.32
-78.63
-74.47
-69.16
-64.90
-62.56
-62.06
-62.99
-64.95
-67.75
-71.23
-75.34
-80.10
-85.54
-91.39
-96.69
-99.60
-97.82
-89.49
-74.30
-54.01
-32.03
-12.09
3.35
13.99
21.55
28.52
36.73
46.52
56.84
66.13
73.28
78.04
80.75
81.75
81.01
78.11
72.71
65.02
55.93
46.73
38.67
32.33
27.40
22.97
18.01
12.00
5.07
-2.10
-8.51
-12.96
-14.45
-12.55
-7.73
-1.48
3.94
6.11
3.39
-4.32
-15.07
-25.80
-33.69
-37.36
-37.15
-34.58
-31.36
-28.63
-26.55
-23.77
-19.00
-12.15
-4.73
1.27
4.57
5.19
4.30
3.58
6.11
13.90
26.26
39.81
50.47
55.63
54.92
49.86
42.94
39.20
42.32
52.23
64.71
74.36
77.69
74.04
65.17
54.06
47.47
51.43
68.66
97.53
134.73
177.29
222.15
265.02
278.12
240.85
153.99
42.04
-66.05
-153.00
-215.08
-256.56
-283.80
-301.22
-307.84
-298.86
-271.28
-228.14
-176.70
-124.78
-78.12
-39.18
-7.06
24.29
56.35
88.91
118.27
139.86
151.46
154.29
152.18
149.74
151.86
160.81
175.22
189.63
197.45
193.88
177.86
152.41
123.61
98.90
83.00
75.62
70.95
61.39
42.12
13.89
-17.63
-45.45
-65.10
-77.12
-85.71
-95.69
-108.96
-123.46
-135.09
-140.89
-141.19
-139.15
-138.42
-140.73
-145.11
-148.83
-149.42
-146.19
-140.36
-134.25
-129.58
-126.59
-124.06
-120.14
-113.32
-103.03
-89.81
-74.96
-60.06
-46.39
-34.73
-25.25
-17.61
-11.20
-5.50
-0.33
4.19
7.74
10.14
11.49
12.14
12.48
12.68
12.58
11.84
10.21
7.84
5.30
3.29
2.24
2.07
2.19
1.79
0.34
-2.16
-5.20
-8.06
-10.19
-11.51
-12.35
-13.22
-14.45
-16.07
-17.80
-19.32
-20.49
-21.49
-22.62
-24.11
-25.83
-27.29
-27.73
-26.50
-23.30
-18.38
-12.38
-6.12
-0.25
4.85
9.06
12.42
14.99
16.78
17.81
18.18
18.13
17.98
17.95
18.08
18.21
18.12
17.67
16.93
16.13
15.46
14.93
14.38
13.57
12.38
10.86
9.24
7.75
6.50
5.45
4.40
3.18
1.65
-0.19
-2.34
-4.73
-7.25
-9.79
-12.24
-14.65
-17.10
-19.72
-22.45
-24.93
-26.56
-26.72
-25.07
-21.75
-17.27
-12.27
-7.23
-2.29
2.61
7.57
12.42
16.77
20.15
22.25
23.13
23.18
22.86
22.54
22.26
21.83
21.00
19.66
17.95
16.21
14.75
13.73
13.00
12.20
10.98
9.21
7.12
5.11
3.58
2.60
1.88
0.92
-0.69
-2.97
-5.56
-7.90
-9.60
-10.70
-11.65
-13.07
-15.35
-18.36
-21.42
-23.72
-24.55
-23.53
-20.66
-16.21
-10.54
-4.11
2.28
7.34
9.28
6.64
-0.96
-12.45
-25.73
-38.73
-50.45
-61.34
-72.71
-85.74
-100.08
-113.39
-122.00
-122.36
-112.32
-91.76
-62.49
-27.72
7.96
40.31
66.41
85.04
96.31
101.16
101.01
97.29
91.06
81.53
68.07
51.33
33.13
15.34
-0.97
-15.55
-28.83
-41.61
-56.84
-76.24
-98.77
-121.01
-139.24
-150.67
-153.82
-148.55
-136.11
-121.98
-111.28
-106.36
-106.41
-109.62
-114.68
-121.35
-130.46
-125.29
-98.28
-55.73
-12.23
22.96
49.76
72.39
94.65
117.68
139.88
155.08
158.22
148.58
130.12
109.01
91.02
80.00
77.17
81.25
87.14
90.42
89.39
85.02
79.10
73.05
67.73
63.61
60.70
56.78
50.36
41.70
32.80
25.96
22.46
21.93
22.60
22.18
18.16
10.04
-0.57
-11.03
-19.29
-24.69
-27.54
-28.22
-25.27
-18.70
-8.62
4.17
17.93
30.52
40.13
45.80
47.59
46.45
43.60
40.40
37.61
35.03
31.61
26.06
17.75
7.04
-4.95
-17.26
-29.60
-42.28
-55.15
-66.55
-72.89
-70.06
-55.81
-31.86
-4.18
19.35
32.62
34.46
28.73
21.87
19.33
22.49
27.73
29.02
21.75
5.81
-14.17
-31.35
-40.34
-39.73
-32.08
-21.85
-12.66
-5.73
-0.16
5.91
13.70
22.70
30.89
35.40
33.31
23.48
7.01
-12.39
-29.01
-37.29
-34.30
-21.26
-3.08
13.79
24.44
27.46
24.40
18.62
13.45
10.42
9.09
7.90
5.44
1.51
-2.73
-5.41
-4.64
0.59
9.34
19.08
26.79
30.34
29.40
25.26
19.91
15.27
12.17
9.58
5.50
-1.84
-12.62
-24.70
-35.64
-43.99
-50.61
-54.03
-52.68
-45.86
-34.76
-22.88
-15.68
-17.74
-32.35
-58.23
-88.70
-113.75
-122.89
-108.73
-69.75
-11.47
54.36
112.66
149.56
156.74
133.85
89.04
36.52
-8.27
-33.86
-36.30
-19.61
7.17
34.23
54.19
63.86
63.83
56.75
45.71
33.40
21.95
13.17
8.53
8.52
12.18
17.21
20.60
19.60
12.67
0.01
-16.50
-33.95
-49.40
-60.72
-67.15
-69.37
-69.15
-68.62
-69.45
-72.20
-76.15
-79.61
-80.69
-78.17
-72.12
-63.99
-55.97
-50.16
-47.76
-48.52
-50.85
-52.34
-50.35
-42.58
-27.38
-4.06
26.51
61.62
96.97
127.65
149.55
160.65
161.50
154.82
144.37
133.38
123.57
115.16
107.63
100.44
93.48
86.99
81.50
77.68
75.57
73.85
70.44
63.41
51.80
35.93
17.20
-2.07
-18.86
-31.27
-39.92
-47.30
-56.01
-67.60
-82.15
-98.50
-114.11
-125.00
-128.35
-124.78
-117.81
-111.57
-109.26
-112.56
-121.46
-133.35
-142.09
-140.79
-124.66
-91.31
-39.90
28.17
108.00
185.78
234.98
236.86
196.95
137.16
78.66
33.89
5.49
-11.07
-23.23
-35.73
-47.30
-53.78
-52.24
-44.15
-34.10
-28.38
-30.90
-43.43
-64.59
-89.50
-112.14
-126.92
-130.64
-122.09
-102.12
-73.85
-42.70
-13.89
10.11
24.56
30.37
31.81
33.15
35.77
38.12
36.86
31.66
24.46
19.24
21.48
33.84
55.59
83.72
114.29
142.36
164.23
179.39
181.86
171.62
151.93
128.74
108.74
97.01
93.45
94.04
93.19
85.18
68.27
43.85
15.77
-13.67
-35.64
-46.76
-53.81
-62.50
-78.93
-106.31
-144.15
-186.85
-224.34
-244.96
-241.18
-211.83
-162.52
-104.94
-51.57
-12.15
8.65
10.83
-2.53
-27.67
-59.24
-88.86
-106.59
-103.15
-74.84
-27.20
25.17
64.13
75.56
57.65
23.10
-6.68
-11.21
19.25
79.39
151.17
211.92
243.78
240.76
210.04
167.07
128.19
104.20
97.88
105.50
120.66
137.94
154.46
168.85
179.19
181.89
173.26
152.78
125.14
98.97
82.63
79.17
83.53
84.18
68.74
29.81
-30.17
-100.08
-166.12
-218.58
-255.19
-280.06
-299.39
-317.01
-333.48
-344.61
-344.11
-327.78
-295.95
-252.87
-204.46
-156.10
-111.58
-75.09
-47.97
-29.03
-16.78
-11.21
-13.10
-22.50
-37.97
-56.89
-79.00
-102.33
-123.14
-138.10
-145.90
-146.29
-139.01
-123.66
-83.65
-20.94
45.75
98.10
130.58
146.50
151.16
148.88
142.68
134.65
123.68
110.54
98.32
89.75
84.97
82.29
79.76
76.31
71.88
65.12
56.57
48.60
43.30
40.72
39.59
38.47
36.80
34.89
32.22
29.34
27.62
27.95
29.84
32.52
34.78
36.22
37.03
36.92
36.08
35.42
36.32
39.81
45.83
52.28
55.04
49.10
30.73
0.27
-37.31
-74.23
-103.55
-122.00
-130.68
-132.98
-131.75
-127.41
-118.64
-104.73
-87.51
-71.06
-59.40
-53.67
-50.85
-45.25
-31.76
-8.29
22.10
53.00
77.47
90.82
91.65
81.10
61.10
33.05
-2.22
-43.26
-86.61
-126.59
-156.54
-171.00
-167.63
-147.78
-116.09
-78.84
-41.92
-9.19
17.80
39.04
55.01
66.17
73.71
78.91
82.92
86.52
90.23
94.07
97.44
99.29
98.70
96.69
94.28
91.32
86.66
79.39
69.65
58.61
48.01
39.58
36.88
41.62
52.22
64.76
75.66
83.42
88.70
93.63
100.92
116.14
142.43
178.28
217.96
254.49
282.00
296.41
295.90
261.75
189.66
94.50
1.82
-70.17
-117.83
-146.86
-165.15
-178.14
-187.55
-189.30
-180.36
-162.22
-140.77
-122.73
-112.18
-110.01
-114.33
-122.03
-127.59
-126.93
-118.31
-101.47
-76.48
-44.29
-9.14
21.53
39.11
39.24
23.09
-2.85
-29.04
-48.36
-57.03
-56.74
-52.14
-47.74
-44.31
-39.41
-29.60
-13.09
8.79
32.17
51.40
62.66
64.76
59.05
47.83
32.93
14.99
-6.37
-31.64
-61.29
-92.79
-121.23
-140.37
-144.56
-130.66
-99.48
-55.75
-3.48
43.34
73.65
84.63
81.15
71.00
60.57
53.02
49.15
48.99
52.27
61.12
75.04
90.44
100.35
97.42
77.56
43.74
4.98
-27.70
-44.40
-41.40
-22.35
2.75
23.30
30.23
20.64
-2.27
-32.43
-62.93
-88.60
-101.31
-94.24
-67.02
-26.86
15.86
51.05
70.79
74.16
63.43
43.04
18.04
-7.18
-29.62
-46.55
-53.42
-48.16
-32.23
-11.84
4.20
8.70
-0.21
-18.59
-38.68
-52.89
-57.02
-49.75
-31.14
-1.97
37.55
85.02
132.90
169.75
184.66
172.00
133.82
77.89
12.81
-52.09
-108.22
-148.54
-168.38
-165.92
-142.80
-104.11
-48.42
13.01
64.68
98.09
114.54
119.78
117.19
107.55
91.28
68.92
40.71
10.13
-16.62
-33.05
-35.14
-23.48
-3.35
16.81
28.99
28.36
17.43
3.25
-7.84
-14.23
-18.66
-24.83
-34.12
-44.42
-52.33
-54.67
-50.92
-43.85
-37.72
-35.86
-39.00
-45.63
-53.31
-59.61
-62.23
-60.30
-54.88
-48.56
-44.23
-43.54
-45.99
-49.48
-50.47
-46.02
-36.25
-24.52
-15.48
-12.68
-17.15
-27.39
-40.93
-53.81
-62.52
-66.31
-67.03
-67.15
-68.31
-71.08
-75.53
-82.51
-90.80
-97.03
-97.12
-86.80
-62.15
-21.65
31.33
92.70
143.06
162.72
149.34
117.38
84.72
62.12
50.49
44.06
36.42
25.23
16.13
18.48
37.32
68.89
102.23
124.38
126.57
107.73
74.38
36.59
4.27
-17.31
-27.73
-28.40
-19.86
-1.18
28.37
66.93
110.00
150.48
179.39
188.81
174.63
137.98
84.47
21.66
-44.07
-106.07
-157.68
-195.53
-219.55
-231.60
-233.93
-228.64
-217.74
-203.42
-187.98
-173.95
-164.16
-161.03
-165.96
-178.75
-197.80
-220.44
-243.40
-263.31
-277.30
-283.40
-280.35
-267.52
-244.90
-213.28
-174.40
-130.69
-84.84
-39.28
4.24
45.27
84.57
123.49
162.94
202.63
240.83
274.90
302.28
321.42
332.33
336.38
335.56
331.53
325.17
316.56
305.44
291.56
274.88
255.45
233.29
208.32
180.54
150.37
118.80
87.34
57.66
31.17
8.62
-9.92
-24.96
-37.26
-47.65
-56.85
-65.50
-74.13
-83.04
-92.25
-101.35
-109.67
-116.47
-121.25
-123.94
-124.87
-124.51
-123.21
-121.06
-117.90
-113.52
-107.83
-100.97
-93.31
-85.26
-77.15
-69.16
-61.28
-53.36
-45.23
-36.77
-27.91
-18.72
-9.30
0.15
9.38
18.07
25.87
32.47
37.68
41.52
44.20
46.17
47.88
49.72
51.88
54.32
56.80
58.95
60.36
60.65
59.50
56.66
52.02
45.64
37.85
29.25
20.64
12.91
6.87
3.12
2.03
3.67
7.89
14.35
22.53
31.78
41.28
50.16
57.53
62.67
65.11
64.69
61.62
56.41
49.78
42.53
35.38
28.86
23.30
18.77
15.13
12.09
9.34
6.62
3.79
0.86
-2.08
-4.91
-7.64
-10.36
-13.29
-16.60
-20.33
-24.34
-28.36
-32.11
-35.43
-38.39
-41.18
-44.06
-47.23
-50.68
-54.13
-57.09
-58.94
-59.10
-57.16
-52.98
-46.71
-38.72
-29.56
-19.75
-9.80
-0.08
9.14
17.67
25.37
32.11
37.76
42.15
45.15
46.74
47.06
46.46
45.38
44.28
43.42
42.82
42.24
41.38
39.99
38.02
35.60
32.92
30.06
26.95
23.39
19.27
14.62
9.71
4.86
0.32
-3.91
-8.04
-12.35
-17.04
-22.14
-27.60
-33.33
-39.27
-45.28
-51.03
-55.93
-59.20
-60.12
-58.33
-53.90
-47.37
-39.45
-30.77
-21.75
-12.62
-3.65
4.73
11.81
16.89
19.46
19.47
17.43
14.22
10.87
8.19
6.66
6.31
6.95
8.27
10.00
11.93
13.80
15.20
15.62
14.55
11.66
7.03
1.26
-4.71
-9.83
-13.34
-14.94
-14.89
-13.84
-12.58
-11.80
-11.97
-13.32
-15.91
-19.61
-24.16
-29.10
-33.69
-37.05
-38.30
-36.80
-32.30
-25.06
-15.71
-5.05
6.16
17.37
28.28
38.71
48.48
57.35
64.98
71.09
75.53
78.39
79.93
80.48
80.32
79.55
78.11
75.89
72.84
69.04
64.71
60.09
55.28
50.23
44.82
39.02
32.97
27.01
21.51
16.64
12.34
8.34
4.39
0.39
-3.54
-7.18
-10.38
-13.18
-15.81
-18.66
-22.08
-26.25
-31.02
-35.87
-39.91
-42.17
-41.87
-38.75
-33.14
-25.86
-17.85
-9.90
-2.48
4.20
10.06
14.93
18.60
20.84
21.51
20.70
18.71
15.96
12.94
10.03
7.52
5.51
3.92
2.58
1.28
-0.11
-1.63
-3.29
-5.08
-6.97
-8.95
-10.97
-12.92
-14.69
-16.21
-17.51
-18.74
-20.07
-21.62
-23.38
-25.22
-26.99
-28.59
-30.02
-31.45
-33.08
-35.10
-37.61
-40.57
-43.79
-46.91
-49.42
-50.82
-50.65
-48.67
-44.87
-39.45
-32.77
-25.28
-17.43
-9.72
-2.65
3.34
7.98
11.22
13.23
14.35
14.89
15.10
15.11
14.98
14.76
14.56
14.47
14.53
14.72
14.92
15.02
14.93
14.59
13.99
13.17
12.15
11.00
9.73
8.35
6.81
5.06
3.13
1.11
-0.81
-2.43
-3.70
-4.70
-5.68
-6.86
-8.35
-10.07
-11.81
-13.38
-14.72
-15.95
-17.24
-18.66
-20.10
-21.18
-21.41
-20.21
-17.27
-12.63
-6.67
-0.10
6.27
11.57
15.12
16.67
16.75
16.57
17.64
21.03
26.64
32.86
37.00
36.36
29.34
16.23
-1.46
-22.02
-44.22
-67.25
-90.14
-111.43
-129.31
-142.11
-148.25
-146.86
-137.44
-119.37
-91.82
-54.52
-9.12
40.15
87.23
127.05
156.27
173.83
180.79
179.97
175.02
169.01
163.28
157.04
149.69
140.22
128.10
114.08
100.64
91.01
86.93
87.43
89.43
91.78
94.53
98.48
104.36
112.36
121.61
129.72
133.50
118.11
77.80
19.98
-38.81
-84.86
-113.88
-129.19
-136.98
-142.53
-148.29
-151.82
-149.93
-141.68
-129.24
-116.27
-105.85
-99.40
-96.62
-96.05
-94.45
-89.46
-81.17
-71.73
-63.77
-58.91
-57.41
-58.58
-61.34
-64.02
-64.64
-62.86
-59.76
-57.19
-57.12
-61.08
-69.71
-81.85
-93.37
-98.49
-92.10
-72.18
-40.81
-3.61
32.35
60.38
76.09
78.81
70.86
56.07
38.70
22.79
11.88
8.85
14.59
28.41
46.75
64.32
76.78
83.07
85.32
87.53
93.53
105.49
119.71
130.82
133.58
124.20
102.21
70.61
32.88
-0.40
-20.96
-27.28
-23.09
-13.90
-4.40
3.59
10.36
16.70
21.96
25.41
25.75
22.96
18.51
13.73
9.86
7.18
4.97
2.33
-2.06
-9.43
-20.46
-29.91
-35.08
-34.80
-29.69
-21.87
-13.84
-7.92
-5.36
-5.50
-6.19
-5.78
-3.24
1.04
5.37
7.70
6.35
0.88
-7.61
-17.02
-25.99
-33.79
-40.66
-47.40
-54.72
-62.84
-71.57
-80.40
-88.90
-97.34
-106.10
-115.40
-125.03
-134.04
-140.83
-143.69
-141.49
-134.42
-124.34
-114.04
-106.14
-102.08
-101.40
-101.99
-101.00
-96.10
-86.41
-72.71
-56.75
-40.37
-24.84
-10.69
2.23
14.40
26.31
38.31
50.40
62.34
73.44
82.08
85.89
82.66
71.47
53.48
31.89
10.88
-5.32
-13.97
-15.15
-11.71
-7.63
-6.36
-9.91
-18.42
-30.77
-43.85
-52.97
-53.72
-43.83
-23.97
2.17
28.61
49.19
59.12
58.07
50.62
43.35
41.97
49.93
68.25
95.64
129.67
159.82
174.05
168.10
147.65
121.43
95.89
74.91
60.89
55.93
60.72
72.20
86.29
97.15
98.29
85.40
58.63
18.57
-23.58
-56.42
-73.47
-75.13
-67.64
-58.90
-54.19
-54.09
-56.61
-55.98
-48.99
-34.19
-12.09
14.26
39.82
59.56
70.23
70.93
63.55
47.97
27.01
5.34
-12.84
-24.97
-30.27
-29.48
-24.86
-19.13
-16.70
-19.95
-28.08
-38.76
-49.09
-56.57
-59.69
-59.08
-57.07
-58.40
-65.39
-76.11
-86.64
-92.07
-88.14
-72.11
-44.40
-2.00
46.65
88.16
116.28
133.35
145.28
155.26
164.99
170.10
165.60
147.92
118.68
84.73
51.36
21.12
-5.27
-28.25
-43.85
-48.62
-43.85
-42.22
-46.26
-57.53
-73.23
-92.86
-114.58
-135.07
-150.84
-159.73
-160.95
-154.09
-142.28
-129.85
-120.64
-115.55
-112.94
-110.30
-105.78
-98.30
-86.66
-71.67
-54.76
-37.59
-20.98
-5.38
8.49
19.49
26.81
31.04
32.82
33.23
33.28
33.93
35.50
37.34
38.29
37.37
34.75
31.26
28.28
26.97
27.80
30.08
32.16
32.26
29.50
24.57
19.37
16.14
16.30
19.74
24.64
28.25
28.04
22.86
13.46
2.11
-8.22
-15.05
-17.29
-15.54
-11.78
-8.68
-8.65
-12.87
-20.72
-29.56
-35.07
-32.23
-16.84
12.73
54.11
100.80
143.67
173.80
185.72
179.23
159.21
133.22
108.24
88.22
73.45
61.84
51.06
40.09
29.46
20.45
13.87
9.34
5.65
1.46
-3.89
-10.21
-16.68
-22.31
-26.40
-28.78
-29.85
-30.44
-31.58
-34.04
-38.08
-43.24
-48.54
-52.96
-56.00
-57.95
-59.75
-62.39
-66.28
-70.81
-74.55
-75.79
-73.34
-67.05
-57.76
-46.95
-36.00
-25.77
-16.44
-7.82
0.22
7.45
13.31
17.32
19.37
20.00
20.09
20.42
21.28
22.44
23.44
24.03
24.47
25.35
27.21
30.08
33.18
35.19
34.79
31.31
25.12
17.69
11.10
7.24
6.99
9.76
13.60
15.84
14.14
7.34
-4.11
-18.39
-32.90
-45.08
-53.05
-56.02
-54.51
-50.11
-45.00
-41.02
-38.85
-37.73
-35.91
-31.71
-24.45
-14.69
-3.57
8.16
20.66
34.61
50.15
65.89
78.98
86.36
86.38
79.96
70.23
61.01
54.94
52.34
51.40
49.55
44.99
37.61
28.90
20.92
15.27
12.21
10.81
9.62
7.48
4.04
-0.17
-4.27
-7.60
-10.10
-12.28
-14.81
-18.11
-22.07
-26.14
-29.65
-32.22
-33.97
-35.41
-37.02
-38.88
-40.54
-41.21
-40.16
-37.05
-32.10
-25.87
-18.97
-11.81
-4.55
2.67
9.62
15.91
21.14
25.08
27.73
29.41
30.51
31.40
32.26
33.10
33.76
34.04
33.80
32.96
31.54
29.57
27.13
24.33
21.33
18.37
15.76
13.68
12.13
10.80
9.21
6.88
3.59
-0.50
-4.87
-8.88
-12.11
-14.52
-16.55
-18.85
-21.99
-26.06
-30.60
-34.74
-37.56
-38.41
-37.08
-33.77
-28.87
-22.91
-16.45
-10.14
-4.55
0.02
3.73
7.17
11.02
15.55
20.35
24.38
26.55
26.36
24.27
21.69
20.42
21.83
26.28
32.90
39.95
45.34
47.34
45.13
38.90
29.62
18.74
7.69
-2.29
-10.21
-15.35
-17.34
-16.38
-13.47
-10.29
-8.73
-10.10
-14.54
-20.88
-27.17
-31.60
-33.38
-33.03
-32.00
-31.84
-33.48
-36.95
-41.66
-46.93
-52.38
-57.89
-63.26
-67.88
-70.67
-70.51
-66.80
-59.89
-51.11
-42.29
-35.04
-30.03
-26.72
-23.53
-18.46
-9.92
2.75
19.06
37.58
56.32
72.96
85.09
90.87
89.95
84.44
78.80
78.37
86.79
103.61
123.61
138.44
139.63
121.59
83.25
27.83
-38.11
-106.13
-166.89
-211.18
-231.53
-224.12
-190.44
-137.53
-76.24
-18.23
27.14
54.94
65.25
62.49
53.64
46.08
45.35
53.49
68.60
85.91
100.10
107.71
108.31
103.98
97.63
91.08
84.31
76.07
65.33
52.44
39.06
27.01
17.05
8.29
-1.16
-12.88
-27.03
-42.11
-55.76
-65.99
-72.07
-74.64
-75.08
-74.70
-74.08
-73.03
-71.03
-67.62
-62.67
-56.17
-47.74
-36.26
-20.08
2.03
29.54
59.24
85.64
102.64
106.04
95.42
74.46
49.32
26.08
8.41
-3.28
-11.01
-17.51
-24.57
-32.31
-39.75
-45.79
-50.08
-53.23
-56.16
-59.23
-61.64
-61.61
-57.27
-47.86
-34.59
-20.39
-8.80
-2.45
-1.84
-5.23
-9.55
-11.95
-11.02
-7.19
-2.10
2.38
5.11
6.02
5.82
5.41
5.37
5.72
6.15
6.29
5.98
5.36
4.76
4.51
4.77
5.46
6.35
7.17
7.69
7.83
7.63
7.18
6.64
6.15
5.84
5.86
6.31
7.25
8.53
9.78
10.50
10.24
8.86
6.67
4.42
3.08
3.57
6.45
11.77
18.95
26.74
33.34
36.63
34.66
26.46
12.63
-4.52
-21.61
-35.34
-43.57
-45.80
-42.97
-36.74
-28.83
-20.57
-12.91
-6.54
-1.89
0.95
2.33
2.96
3.76
5.52
8.77
13.74
20.56
29.28
39.64
50.81
61.22
68.87
71.76
68.61
59.35
45.32
28.83
12.57
-1.30
-11.60
-18.34
-22.35
-24.84
-26.88
-29.15
-32.01
-35.55
-39.75
-44.53
-49.64
-54.68
-59.10
-62.32
-63.95
-63.92
-62.54
-60.42
-58.18
-56.14
-53.96
-50.59
-44.69
-35.53
-23.80
-11.87
-3.08
-0.26
-4.46
-14.41
-27.15
-39.50
-49.44
-56.58
-61.73
-65.84
-69.25
-71.56
-72.21
-71.12
-68.88
-66.44
-64.57
-63.42
-62.47
-60.88
-57.85
-52.99
-46.43
-38.75
-30.74
-23.08
-16.09
-9.69
-3.55
2.65
8.92
14.95
20.18
24.15
26.72
28.18
29.04
29.81
30.75
31.75
32.44
32.40
31.36
29.22
26.15
22.44
18.51
14.84
11.87
9.79
8.47
7.43
6.01
3.74
0.62
-2.80
-5.74
-7.53
-8.06
-7.82
-7.71
-8.58
-10.95
-14.87
-20.09
-26.13
-32.42
-38.20
-42.55
-44.54
-43.55
-39.51
-33.03
-25.16
-16.95
-9.12
-1.94
4.66
10.75
16.27
20.99
24.62
27.06
28.43
29.05
29.31
29.56
29.96
30.51
31.08
31.49
31.66
31.59
31.42
31.30
31.36
31.57
31.75
31.71
31.22
30.17
28.58
26.55
24.21
21.67
19.03
16.38
13.79
11.27
8.75
6.00
2.67
-1.55
-6.67
-12.14
-16.77
-19.08
-17.86
-12.77
-4.68
4.66
13.28
19.74
23.62
25.36
25.76
25.39
24.37
22.54
20.00
17.32
15.43
15.16
16.72
19.52
22.44
24.45
25.02
24.33
23.03
21.89
21.35
21.44
21.84
21.99
21.46
20.00
17.67
14.79
11.87
9.37
7.53
6.31
5.43
4.57
3.52
2.13
0.23
-2.44
-6.25
-11.48
-18.06
-25.47
-32.81
-39.03
-43.23
-44.81
-43.56
-39.56
-33.18
-25.00
-15.84
-6.60
1.82
8.75
13.86
17.27
19.40
20.82
22.06
23.38
24.74
25.87
26.41
26.13
25.04
23.37
21.44
19.58
17.93
16.53
15.30
14.17
13.07
11.95
10.77
9.49
8.09
6.65
5.26
4.00
2.88
1.77
0.52
-1.02
-2.88
-4.98
-7.19
-9.42
-11.64
-13.86
-16.10
-18.22
-19.99
-21.06
-21.10
-19.91
-17.44
-13.87
-9.52
-4.75
0.12
4.82
9.21
13.21
16.77
19.88
22.49
24.60
26.20
27.31
27.95
28.13
27.89
27.23
26.20
24.85
23.28
21.60
19.91
18.25
16.57
14.76
12.66
10.15
7.29
4.35
1.70
-0.27
-1.36
-1.64
-1.46
-1.35
-1.81
-3.20
-5.52
-8.49
-11.62
-14.41
-16.51
-17.76
-18.00
-16.98
-14.29
-9.41
-1.93
8.29
21.08
36.06
52.86
71.12
90.42
110.02
128.80
145.45
158.96
169.14
176.68
182.69
187.75
191.27
191.43
186.03
173.65
154.45
130.00
102.31
72.76
41.60
8.50
-26.44
-61.73
-94.53
-121.66
-140.96
-152.39
-158.02
-161.12
-164.68
-170.30
-177.81
-185.73
-192.35
-196.67
-198.89
-200.08
-201.43
-203.59
-206.22
-208.10
-207.43
-202.28
-190.73
-171.05
-142.15
-104.48
-60.95
-16.86
21.40
48.63
63.06
66.95
65.25
62.97
62.88
64.59
65.77
64.16
59.15
52.03
44.81
38.81
33.90
28.91
22.80
15.55
8.33
2.74
0.05
0.47
3.12
6.40
8.69
8.95
7.05
3.79
0.46
-1.75
-2.37
-1.79
-1.07
-1.30
-3.04
-6.12
-9.74
-13.05
-15.52
-17.19
-18.49
-19.91
-21.54
-23.00
-23.53
-22.33
-18.91
-13.27
-5.87
2.57
11.31
19.75
27.50
34.29
39.96
44.41
47.62
49.66
50.68
50.87
50.37
49.29
47.72
45.80
43.73
41.74
39.98
38.44
36.97
35.34
33.38
31.08
28.55
25.91
23.28
20.68
18.04
15.30
12.36
9.12
5.46
1.31
-3.26
-8.04
-12.75
-17.22
-21.48
-25.76
-30.42
-35.57
-41.06
-46.39
-50.86
-53.84
-54.84
-53.63
-50.22
-44.84
-37.93
-30.05
-21.78
-13.60
-5.84
1.31
7.68
13.10
17.32
20.20
21.75
22.26
22.18
21.97
21.88
21.90
21.89
21.64
21.15
20.57
20.17
20.13
20.49
21.10
21.70
22.02
21.89
21.25
20.06
18.30
16.01
13.30
10.35
7.40
4.62
2.04
-0.51
-3.34
-6.70
-10.71
-15.28
-20.07
-24.67
-28.65
-31.68
-33.49
-33.87
-32.62
-29.51
-24.41
-17.45
-9.02
0.14
9.14
17.17
23.69
28.62
32.22
34.97
37.25
39.26
40.83
41.66
41.42
40.02
37.76
35.18
32.96
31.60
31.14
31.20
31.06
30.06
27.90
24.87
21.74
19.45
18.60
19.13
20.15
20.19
17.90
12.73
5.63
-0.99
-3.70
0.97
15.56
40.75
74.73
113.15
149.59
176.72
187.86
178.83
149.36
103.58
49.21
-4.34
-48.42
-77.23
-88.75
-84.45
-67.88
-43.21
-14.35
15.17
41.94
62.53
73.91
74.44
64.82
48.33
29.70
13.40
1.90
-4.84
-8.67
-11.92
-16.00
-21.01
-26.22
-31.03
-35.61
-41.10
-48.65
-58.66
-70.40
-82.30
-92.76
-100.97
-107.19
-112.58
-118.70
-126.10
-133.91
-140.39
-144.03
-144.43
-142.27
-138.76
-134.82
-131.45
-128.59
-125.41
-121.04
-115.06
-107.51
-98.50
-88.20
-77.12
-67.61
-61.66
-60.01
-61.85
-65.39
-68.59
-69.80
-68.36
-64.61
-61.02
-58.87
-57.34
-54.26
-48.11
-39.33
-30.45
-25.35
-16.83
-3.14
12.97
27.64
40.07
51.57
62.83
73.14
81.17
86.08
86.38
82.14
74.69
65.80
56.67
48.15
41.48
38.41
40.65
47.51
57.28
67.63
76.59
82.71
85.74
86.70
87.19
88.21
88.69
87.49
82.61
73.66
61.44
47.91
35.68
27.23
23.93
25.13
28.83
32.10
33.26
31.66
28.08
24.12
21.47
21.00
22.19
23.61
23.39
20.30
13.98
5.80
-2.37
-7.95
-9.06
-5.69
0.09
4.99
6.20
2.50
-5.09
-14.00
-21.28
-25.09
-25.46
-23.83
-21.85
-20.32
-19.15
-17.36
-14.08
-8.80
-2.15
3.84
6.96
6.16
2.21
-3.05
-7.26
-9.19
-8.59
-6.29
-4.28
-4.64
-8.16
-14.34
-22.87
-33.86
-48.51
-64.29
-75.84
-78.15
-68.24
-47.32
-21.87
-2.69
0.52
-16.16
-49.64
-90.69
-130.11
-160.54
-177.93
-175.81
-151.80
-101.23
-32.34
35.13
92.42
131.30
146.71
140.88
122.72
102.82
89.57
84.56
84.51
84.81
80.58
70.51
56.85
43.17
31.69
24.04
20.39
21.50
29.28
44.03
64.50
87.01
105.64
114.33
111.07
97.97
81.12
68.09
63.60
68.10
77.59
85.42
80.26
58.30
26.10
-4.06
-23.28
-30.02
-27.95
-22.62
-20.15
-23.01
-29.95
-37.91
-43.41
-43.21
-34.45
-15.04
18.41
65.57
122.71
183.15
237.77
276.96
293.46
284.81
253.31
203.87
141.37
69.90
-6.79
-84.54
-157.77
-219.69
-263.72
-287.25
-294.14
-294.00
-297.65
-312.36
-338.77
-370.94
-399.10
-413.21
-407.82
-383.67
-345.89
-300.96
-255.11
-213.46
-179.27
-153.00
-130.42
-105.69
-74.89
-37.50
2.87
39.08
64.06
75.67
79.24
86.95
109.06
146.58
190.89
228.12
244.89
234.22
198.10
136.34
61.63
-4.12
-43.56
-52.74
-37.42
-7.14
28.98
63.31
90.16
107.73
119.91
125.77
124.68
118.43
109.24
99.58
91.58
86.30
84.60
85.38
87.54
84.81
78.03
70.90
68.26
73.92
88.85
111.86
128.21
126.19
104.32
71.37
36.73
5.67
-20.01
-40.13
-54.28
-62.70
-65.27
-62.81
-56.79
-49.86
-44.46
-40.48
-37.74
-34.75
-29.93
-21.36
-8.67
6.49
20.30
28.28
27.44
17.21
-0.21
-21.01
-40.46
-55.31
-65.81
-73.06
-79.13
-85.72
-93.42
-101.35
-107.83
-110.69
-108.48
-100.88
-88.52
-72.83
-55.38
-37.60
-20.68
-5.65
6.71
15.88
21.64
24.40
24.93
24.37
23.92
24.43
26.13
28.51
30.57
31.16
29.48
25.05
17.99
8.83
-1.58
-12.30
-22.40
-31.11
-37.81
-42.04
-43.60
-42.48
-38.88
-33.24
-26.19
-18.54
-11.16
-4.80
0.13
3.56
5.82
7.44
9.08
11.33
14.59
19.00
24.34
30.11
35.62
40.19
43.28
44.62
44.15
42.00
38.44
33.91
29.08
24.76
21.73
20.51
21.17
23.30
26.28
29.43
32.31
34.75
36.78
38.51
40.00
41.26
42.20
42.71
42.66
41.91
40.32
37.79
34.31
29.96
24.98
19.69
14.46
9.56
5.05
0.79
-3.55
-8.34
-13.74
-19.59
-25.40
-30.44
-34.02
-35.63
-35.13
-32.74
-28.93
-24.25
-19.20
-14.10
-9.07
-4.06
1.03
6.24
11.49
16.46
20.69
23.71
25.22
25.23
24.10
22.40
20.69
19.25
18.02
16.63
14.59
11.48
7.12
1.56
-4.96
-12.06
-19.34
-26.39
-32.87
-38.60
-43.47
-47.48
-50.59
-52.67
-53.51
-52.87
-50.63
-46.76
-41.45
-34.98
-27.64
-19.75
-11.60
-3.57
3.95
10.42
15.39
18.51
19.69
19.10
17.06
13.92
9.88
5.11
-0.24
-5.68
-10.43
-13.44
-13.80
-11.11
-5.64
1.71
9.78
17.52
24.21
29.44
32.98
34.67
34.46
32.52
29.32
25.52
21.78
18.57
16.05
14.10
12.42
10.71
8.65
5.97
2.50
-1.79
-6.63
-11.47
-15.58
-18.28
-19.12
-18.03
-15.24
-11.24
-6.58
-1.74
2.90
7.14
10.93
14.32
17.43
20.37
23.21
25.86
28.14
29.79
30.59
30.45
29.44
27.78
25.75
23.61
21.56
19.70
18.03
16.51
15.05
13.53
11.86
9.97
7.83
5.49
3.03
0.57
-1.81
-4.05
-6.14
-8.12
-10.03
-11.92
-13.85
-15.81
-17.74
-19.50
-20.90
-21.69
-21.67
-20.70
-18.80
-16.07
-12.70
-8.92
-4.92
-0.89
3.01
6.61
9.74
12.23
13.96
14.89
15.13
14.91
14.51
14.19
14.10
14.22
14.39
14.42
14.23
13.84
13.36
12.95
12.63
12.32
11.80
10.85
9.33
7.26
4.83
2.27
-0.25
-2.64
-4.97
-7.35
-9.85
-12.50
-15.26
-18.06
-20.81
-23.41
-25.65
-27.27
-28.08
-27.92
-26.74
-24.55
-21.52
-17.88
-13.94
-9.96
-6.22
-3.01
-0.54
1.12
2.10
2.62
2.90
3.01
3.07
2.94
2.27
0.90
-1.01
-2.93
-4.20
-4.39
-3.68
-2.44
-1.50
-1.56
-2.46
-2.74
-0.23
6.91
18.94
34.03
49.61
61.91
67.03
62.31
47.38
24.25
-3.24
-30.19
-51.19
-59.84
-52.40
-29.20
5.78
46.62
87.41
123.58
152.86
175.44
194.72
212.52
227.45
235.66
233.34
218.58
192.02
156.58
105.02
40.33
-26.22
-82.22
-122.02
-146.87
-160.33
-165.28
-163.65
-157.34
-146.89
-134.26
-122.36
-113.62
-108.39
-105.01
-101.47
-96.56
-90.50
-83.09
-75.33
-68.82
-64.68
-62.46
-60.57
-57.66
-53.45
-48.83
-44.36
-40.90
-39.26
-39.89
-42.51
-46.35
-50.79
-54.24
-55.02
-51.48
-43.74
-34.39
-27.42
-25.75
-29.15
-33.74
-33.65
-24.14
-4.24
22.18
48.20
66.53
73.64
70.98
63.08
54.65
48.39
44.59
42.15
39.91
37.38
35.02
33.39
32.69
32.66
32.86
32.87
32.87
33.78
36.96
43.25
51.63
59.18
61.01
52.86
33.33
5.09
-25.59
-51.28
-65.93
-68.12
-60.97
-49.88
-39.53
-32.17
-27.78
-25.26
-23.72
-22.69
-21.77
-20.08
-16.54
-10.91
-4.03
1.74
3.86
1.06
-5.65
-13.69
-20.27
-23.85
-24.37
-22.57
-19.18
-14.37
-8.65
-3.40
-0.83
-2.54
-7.74
-12.19
-10.00
2.79
25.82
53.14
76.29
88.07
86.05
73.41
56.98
43.24
34.19
27.70
19.11
5.64
-11.94
-30.08
-44.89
-54.44
-60.02
-66.35
-77.69
-95.80
-117.28
-135.24
-143.06
-137.57
-120.06
-89.78
-51.61
-7.84
32.90
62.82
79.90
87.45
89.78
89.47
86.89
80.57
70.55
58.38
48.31
45.05
50.72
63.04
76.04
82.95
75.64
50.41
8.81
-41.61
-90.08
-126.38
-143.46
-138.01
-111.33
-69.35
-20.27
26.49
63.18
85.57
93.81
89.21
77.48
65.45
58.08
57.40
61.57
65.95
64.57
51.71
24.05
-16.65
-64.65
-111.08
-145.34
-159.38
-150.68
-122.95
-84.48
-45.06
-12.14
8.11
12.53
2.94
-15.14
-34.51
-48.99
-55.56
-54.72
-48.12
-39.51
-31.12
-20.51
-3.06
24.71
62.96
106.16
142.81
172.41
197.31
212.93
216.16
204.80
177.97
137.21
86.74
29.75
-21.43
-56.33
-72.30
-72.86
-64.35
-52.87
-42.68
-36.00
-33.57
-33.35
-34.66
-37.51
-42.19
-47.39
-52.79
-59.00
-67.04
-78.46
-92.87
-110.06
-129.14
-147.69
-163.03
-174.17
-182.68
-185.94
-185.80
-184.72
-185.45
-189.34
-194.97
-198.48
-195.29
-181.57
-155.67
-119.52
-76.88
-32.68
8.78
45.27
77.20
106.87
137.47
172.15
212.14
256.99
303.98
348.47
384.85
408.17
415.30
405.81
382.14
348.70
311.64
277.57
251.72
236.36
230.01
227.62
222.63
209.54
185.78
152.72
114.51
75.69
39.31
6.09
-25.34
-57.55
-93.43
-135.20
-183.06
-233.70
-280.23
-313.82
-327.00
-316.98
-287.01
-245.17
-200.92
-161.66
-131.02
-109.54
-96.62
-91.82
-94.46
-102.91
-114.61
-127.10
-139.36
-152.15
-166.93
-183.65
-199.36
-207.74
-201.44
-175.99
-132.07
-76.12
-17.82
32.59
67.10
81.66
78.31
64.27
48.60
39.19
39.55
48.93
62.70
74.42
78.12
72.39
60.56
47.96
40.04
39.73
48.50
66.00
91.18
114.96
126.84
125.04
117.12
116.00
123.17
134.30
142.63
142.47
127.86
98.37
58.73
14.44
-22.56
-41.26
-38.34
-20.07
2.99
21.01
28.55
28.35
22.79
13.02
-2.38
-25.13
-56.34
-91.14
-123.97
-148.35
-158.83
-154.06
-136.92
-114.47
-94.16
-80.70
-74.24
-71.94
-69.07
-61.54
-49.33
-36.25
-28.84
-32.74
-49.87
-77.46
-109.85
-140.23
-161.91
-170.99
-166.40
-149.67
-123.97
-93.32
-62.26
-35.82
-17.57
-6.68
0.66
10.03
26.27
51.77
86.01
126.29
168.03
206.22
238.20
261.31
272.95
271.65
259.10
240.70
224.46
217.13
209.29
194.30
170.87
143.89
118.88
97.36
76.48
51.36
16.80
-29.32
-81.83
-131.21
-167.14
-182.33
-175.23
-153.86
-126.93
-104.94
-95.98
-100.46
-112.18
-121.21
-118.63
-100.93
-71.80
-39.83
-15.24
-4.62
-7.48
-18.74
-33.28
-46.91
-57.55
-64.49
-66.99
-64.63
-57.16
-44.77
-29.40
-14.08
-1.12
9.48
20.73
37.82
65.25
104.79
154.32
207.90
257.34
294.76
314.70
315.44
298.93
269.12
230.05
184.53
134.29
81.40
29.85
-14.43
-45.36
-59.57
-58.73
-49.06
-38.37
-31.97
-30.14
-28.80
-23.30
-12.72
-1.85
0.75
-12.31
-42.27
-82.45
-120.95
-146.14
-152.07
-140.55
-119.41
-98.24
-84.21
-79.92
-83.58
-90.81
-96.49
-96.29
-87.60
-69.99
-45.40
-17.77
7.98
27.34
37.30
36.65
25.61
5.48
-21.33
-50.89
-77.77
-96.06
-101.26
-92.25
-72.01
-46.37
-21.60
-1.94
11.53
20.42
27.37
34.24
41.19
46.71
48.44
44.20
32.90
15.03
-7.25
-30.59
-51.34
-66.64
-75.08
-76.88
-73.49
-66.86
-58.93
-51.08
-44.12
-38.29
-33.43
-29.32
-25.96
-23.59
-22.54
-22.85
-23.82
-23.88
-20.79
-12.27
3.01
24.58
49.77
74.27
93.24
102.95
101.99
91.66
75.34
56.99
39.63
24.46
11.05
-1.65
-14.24
-26.31
-36.63
-43.85
-47.20
-46.71
-43.06
-37.20
-30.03
-22.23
-14.34
-6.89
-0.33
4.99
9.05
12.21
15.15
18.70
23.59
30.08
37.84
45.87
52.69
56.70
56.66
52.05
43.23
31.29
17.63
3.43
-10.69
-24.73
-38.99
-53.37
-66.77
-76.93
-81.12
-77.37
-65.88
-49.48
-32.77
-20.29
-14.44
-14.57
-17.56
-19.56
-18.16
-13.28
-6.90
-1.53
1.30
1.76
1.34
1.83
4.35
8.90
14.61
20.28
25.00
28.33
30.22
30.76
29.99
27.84
24.35
19.81
14.86
10.40
7.24
5.65
5.10
4.32
1.73
-3.93
-13.04
-24.84
-37.62
-49.37
-58.60
-64.92
-69.20
-73.16
-78.53
-86.30
-96.25
-107.17
-117.46
-125.76
-131.46
-134.66
-135.91
-135.83
-135.02
-134.13
-133.88
-134.85
-137.09
-139.87
-141.83
-141.40
-137.25
-128.19
-112.93
-89.88
-57.71
-16.31
32.33
84.19
134.51
179.65
218.38
251.83
282.02
309.91
334.19
351.58
358.51
352.89
335.28
308.60
277.01
244.45
213.61
185.79
161.23
139.80
121.34
105.95
93.60
83.93
76.09
69.01
61.92
54.75
48.17
43.16
40.45
40.10
41.45
43.61
45.83
47.72
48.99
48.98
46.48
40.05
28.78
13.05
-5.37
-23.93
-40.47
-54.20
-65.90
-77.19
-89.39
-102.75
-116.38
-129.08
-140.19
-149.87
-158.56
-165.73
-169.26
-165.89
-152.70
-129.05
-97.65
-64.15
-35.02
-15.21
-6.75
-8.89
-19.74
-38.12
-64.51
-100.26
-145.63
-197.82
-250.69
-296.31
-327.60
-340.59
-335.42
-315.42
-285.23
-248.72
-207.93
-163.40
-115.41
-64.74
-12.56
39.83
90.94
138.64
179.68
210.55
228.19
231.15
220.59
200.65
177.18
155.81
140.36
132.49
133.31
142.77
158.67
176.41
190.39
195.55
188.54
168.47
136.98
99.78
64.39
37.67
24.27
26.14
41.17
62.18
78.22
79.07
62.72
35.85
10.08
-3.46
2.16
27.42
66.68
111.28
139.27
135.27
102.59
59.56
21.73
-5.99
-25.65
-40.73
-53.49
-64.36
-70.45
-68.78
-59.47
-46.30
-34.24
-27.57
-28.78
-38.57
-55.12
-72.74
-85.24
-89.75
-88.70
-86.49
-86.63
-89.26
-91.02
-86.27
-69.73
-40.89
-6.25
22.68
35.89
27.94
3.58
-26.15
-50.31
-63.53
-67.63
-68.85
-72.63
-79.47
-83.31
-76.67
-55.88
-22.90
14.88
48.69
72.32
82.35
81.76
76.55
73.05
70.11
63.33
47.38
20.15
-15.80
-54.40
-87.54
-108.70
-114.71
-106.71
-88.71
-66.38
-43.56
-19.88
4.70
30.09
52.53
67.14
70.54
66.31
55.89
41.26
24.80
6.63
-12.57
-32.71
-53.15
-72.00
-85.87
-91.90
-88.14
-75.25
-56.91
-37.76
-22.01
-11.56
-5.88
-2.85
-0.65
2.20
6.29
11.33
17.13
23.46
30.23
37.06
43.18
47.38
49.24
49.20
48.27
47.51
47.23
46.78
44.58
38.70
27.57
11.25
-7.98
-25.80
-37.03
-37.77
-27.58
-10.39
6.59
15.77
12.75
-1.60
-21.71
-40.14
-51.29
-53.84
-50.52
-45.94
-43.63
-44.16
-45.43
-44.41
-39.07
-29.57
-17.82
-6.15
4.04
12.97
21.95
32.22
43.87
55.32
63.98
67.47
65.00
57.85
48.87
41.20
36.75
35.57
36.22
36.67
35.18
30.49
21.52
7.29
-12.49
-36.17
-59.44
-75.99
-79.78
-67.96
-42.56
-10.09
21.13
44.29
56.40
58.47
53.92
46.41
38.34
30.71
23.73
17.53
12.42
8.63
6.01
3.81
0.96
-3.51
-10.03
-18.27
-27.15
-35.33
-41.92
-46.92
-51.34
-56.35
-62.21
-67.29
-68.33
-61.79
-45.95
-22.28
4.70
29.21
46.77
55.92
58.48
57.96
57.46
58.11
58.95
58.07
54.12
47.32
39.35
32.51
28.55
28.01
30.20
33.67
36.91
39.00
39.77
39.76
39.72
40.18
41.06
41.64
40.68
36.78
28.78
16.31
0.04
-18.15
-35.65
-49.72
-58.23
-60.08
-55.33
-45.05
-31.13
-16.15
-3.16
4.88
5.86
-0.69
-13.29
-28.82
-43.57
-54.43
-59.71
-59.32
-54.28
-46.22
-36.97
-28.28
-21.62
-17.89
-17.13
-18.54
-20.90
-23.21
-25.18
-27.16
-29.60
-32.40
-34.66
-34.90
-31.70
-24.34
-12.90
1.88
18.81
36.32
52.25
63.99
68.98
65.88
55.47
40.93
26.90
17.71
15.66
20.19
28.49
36.98
42.89
45.09
43.98
40.72
36.43
31.91
27.71
24.60
23.55
25.56
31.06
39.44
48.98
57.24
61.83
61.15
54.87
43.90
30.00
15.27
1.64
-9.36
-16.79
-20.38
-20.63
-18.84
-16.86
-16.42
-18.41
-22.42
-26.88
-29.86
-30.08
-27.54
-23.51
-19.84
-18.09
-18.93
-22.13
-26.99
-32.87
-39.48
-46.81
-54.88
-63.40
-71.74
-78.91
-83.81
-85.49
-83.44
-77.77
-69.25
-59.17
-49.04
-40.21
-33.56
-29.41
-27.47
-27.02
-27.08
-26.55
-24.45
-20.03
-12.86
-2.96
9.14
22.45
35.65
47.35
56.40
62.24
64.90
64.92
62.94
59.40
54.39
47.84
39.80
30.66
21.19
12.33
4.89
-0.69
-4.29
-6.08
-6.40
-5.67
-4.45
-3.33
-2.85
-3.27
-4.44
-5.80
-6.55
-6.00
-3.78
0.06
5.18
11.02
17.01
22.57
27.14
30.29
31.83
31.96
31.18
30.16
29.38
28.96
28.66
28.12
27.10
25.73
24.34
23.24
22.49
21.79
20.65
18.62
15.52
11.55
7.15
2.87
-0.84
-3.63
-5.34
-6.00
-5.77
-4.93
-3.83
-2.73
-1.76
-0.95
-0.28
0.12
-0.04
-1.14
-3.35
-6.46
-9.83
-12.57
-14.05
-14.13
-13.25
-12.18
-11.50
-11.31
-11.12
-10.19
-7.96
-4.45
-0.38
3.14
5.02
4.68
2.28
-1.36
-5.05
-7.73
-8.85
-8.56
-7.71
-7.51
-9.24
-13.88
-21.80
-32.57
-44.70
-55.64
-62.10
-61.04
-50.88
-32.65
-10.24
10.52
23.82
25.99
16.94
0.11
-19.10
-35.47
-45.76
-49.38
-47.75
-42.97
-36.50
-28.74
-19.35
-7.97
4.97
18.24
30.22
39.65
46.18
50.36
53.17
55.35
57.02
57.69
56.67
53.58
48.52
42.01
34.63
26.69
18.24
9.37
0.48
-7.46
-13.13
-15.37
-13.77
-8.96
-2.61
3.08
6.06
5.10
0.18
-7.49
-15.91
-22.88
-26.80
-27.03
-24.11
-19.38
-14.40
-10.30
-7.44
-5.46
-3.71
-1.81
0.19
1.80
2.49
2.00
0.52
-1.48
-3.51
-5.24
-6.66
-7.98
-9.53
-11.75
-15.04
-19.60
-25.12
-30.40
-33.40
-31.68
-23.38
-8.21
11.98
33.35
51.15
61.12
60.73
49.77
30.21
5.52
-20.30
-43.51
-61.16
-71.36
-73.37
-67.47
-54.87
-37.49
-17.67
2.05
19.40
32.69
41.14
45.00
45.38
43.72
41.36
39.04
36.78
34.01
29.80
23.30
14.22
3.10
-8.51
-18.40
-24.25
-24.55
-19.13
-9.45
1.96
12.22
19.04
21.24
18.86
12.98
5.28
-2.43
-8.63
-12.46
-13.90
-13.77
-13.32
-13.68
-15.31
-17.80
-20.04
-20.80
-19.36
-15.93
-11.70
-8.29
-7.11
-8.74
-12.72
-17.95
-23.12
-27.41
-30.56
-32.80
-34.44
-35.66
-36.43
-36.58
-35.75
-33.25
-27.99
-18.86
-5.65
9.96
24.10
31.63
28.33
13.15
-10.64
-36.29
-56.15
-64.67
-60.39
-45.85
-25.80
-4.89
14.06
30.26
44.05
55.72
64.88
70.62
72.34
70.28
65.77
60.68
56.67
54.57
54.10
54.23
53.64
51.31
46.87
40.71
33.70
26.81
20.70
15.40
10.38
4.84
-1.89
-9.87
-18.60
-27.14
-34.63
-40.60
-45.14
-48.63
-51.44
-53.66
-55.11
-55.46
-54.48
-52.15
-48.65
-44.26
-39.31
-34.11
-28.98
-24.17
-19.85
-16.04
-12.61
-9.37
-6.20
-3.06
-0.05
2.70
5.19
7.46
9.67
11.90
14.14
16.26
18.08
19.47
20.44
21.11
21.65
22.16
22.60
22.84
22.67
21.95
20.67
18.91
16.82
14.56
12.21
9.83
7.43
5.03
2.67
0.39
-1.74
-3.71
-5.50
-7.09
-8.44
-9.46
-10.00
-9.91
-9.09
-7.55
-5.42
-2.96
-0.45
1.89
3.94
5.70
7.17
8.36
9.22
9.68
9.70
9.35
8.73
8.00
7.28
6.68
6.17
5.73
5.30
4.85
4.40
4.00
3.70
3.51
3.39
3.25
2.96
2.43
1.65
0.71
-0.29
-1.26
-2.18
-3.09
-4.06
-5.13
-6.27
-7.38
-8.33
-9.05
-9.58
-9.99
-10.36
-10.69
-10.86
-10.67
-9.85
-8.24
-5.79
-2.68
0.75
4.06
6.84
8.89
10.16
10.83
11.13
11.28
11.40
11.53
11.55
11.17
9.83
6.82
1.53
-6.12
-15.40
-24.75
-32.30
-36.46
-36.64
-33.34
-27.96
-22.08
-16.96
-13.24
-10.98
-9.99
-9.91
-10.30
-10.56
-9.97
-7.84
-3.85
1.81
8.43
14.92
20.22
23.55
24.61
23.50
20.68
16.73
12.24
7.79
3.83
0.67
-1.57
-2.91
-3.46
-3.31
-2.44
-0.71
2.00
5.67
10.05
14.63
18.81
22.03
23.94
24.44
23.60
21.59
18.60
14.85
10.62
6.21
1.92
-1.98
-5.31
-7.99
-9.98
-11.28
-11.91
-11.89
-11.27
-10.15
-8.61
-6.78
-4.72
-2.52
-0.23
2.11
4.39
6.45
8.06
8.93
8.77
7.30
4.42
0.23
-4.85
-10.14
-14.82
-18.21
-20.00
-20.42
-20.13
-19.94
-20.39
-21.49
-22.70
-23.21
-22.40
-20.09
-16.71
-12.98
-9.62
-7.06
-5.50
-4.99
-5.53
-6.76
-7.66
-6.51
-1.56
7.88
20.65
33.74
43.49
47.24
44.64
37.73
29.78
23.58
20.24
19.08
18.59
17.60
15.90
14.08
12.78
12.11
11.58
10.57
8.72
6.31
4.04
2.67
2.58
3.58
4.99
6.00
6.06
5.06
3.39
1.71
0.58
0.25
0.49
0.66
-0.06
-2.33
-6.31
-11.52
-16.90
-21.19
-23.40
-23.19
-20.95
-17.66
-14.31
-11.51
-9.22
-6.91
-4.02
-0.34
3.73
7.35
9.61
9.96
8.51
5.96
3.36
1.68
1.50
2.78
4.99
7.31
8.98
9.49
8.67
6.65
3.67
0.04
-3.92
-7.91
-11.73
-15.40
-19.28
-23.89
-29.52
-35.73
-41.00
-42.89
-38.95
-27.86
-10.48
9.92
28.49
40.38
42.39
34.16
18.18
-1.14
-19.07
-32.09
-38.76
-39.71
-36.81
-32.16
-27.16
-22.25
-17.06
-11.05
-4.03
3.65
11.21
17.79
22.81
26.04
27.50
27.35
25.82
23.24
20.14
17.19
15.00
13.80
13.24
12.48
10.58
7.14
2.58
-1.92
-5.00
-5.90
-4.89
-3.11
-1.94
-2.21
-3.81
-5.82
-7.24
-7.55
-7.00
-6.37
-6.39
-7.20
-8.26
-8.65
-7.53
-4.59
-0.13
5.10
10.19
14.42
17.39
18.99
19.15
17.63
13.94
7.54
-1.86
-13.94
-27.65
-41.40
-53.42
-62.19
-66.58
-65.98
-60.20
-49.61
-35.27
-18.93
-2.79
11.10
21.54
28.54
33.13
36.62
39.75
42.25
42.98
40.69
34.77
25.74
15.06
4.56
-4.13
-9.99
-12.62
-12.15
-9.07
-4.11
1.80
7.82
13.34
18.12
22.14
25.31
27.13
26.80
23.64
17.70
10.09
2.68
-2.72
-5.29
-5.57
-5.10
-5.45
-7.42
-10.59
-13.78
-15.80
-16.09
-14.94
-13.04
-10.94
-8.67
-5.80
-1.86
3.23
8.98
14.46
18.79
21.48
22.62
22.77
22.56
22.34
21.93
20.77
18.15
13.56
6.80
-2.02
-12.70
-24.91
-38.04
-50.78
-60.97
-65.87
-62.99
-51.11
-30.98
-5.18
22.77
49.54
72.77
91.15
103.86
109.87
107.70
95.88
73.89
42.96
6.33
-31.19
-64.25
-88.16
-99.91
-98.68
-86.02
-65.39
-41.28
-18.13
0.64
13.27
19.58
20.57
17.70
12.44
6.02
-0.58
-6.51
-11.00
-13.45
-13.60
-11.65
-8.25
-4.48
-1.49
-0.21
-0.97
-3.42
-6.69
-9.74
-11.73
-12.32
-11.58
-9.77
-7.04
-3.36
1.41
7.21
13.64
19.92
25.18
28.69
30.12
29.51
27.20
23.67
19.42
14.90
10.47
6.31
2.24
-2.29
-7.94
-15.06
-23.01
-29.95
-33.13
-30.01
-19.40
-2.27
18.40
38.59
54.60
64.09
66.27
61.57
50.96
35.56
16.62
-4.27
-25.06
-43.46
-57.37
-65.33
-66.82
-62.13
-52.20
-38.42
-22.51
-6.40
7.96
18.90
25.36
27.07
24.43
18.22
9.31
-1.33
-12.51
-22.62
-29.80
-32.43
-29.87
-22.95
-13.91
-5.63
-0.49
0.57
-1.77
-5.69
-9.20
-10.95
-10.58
-8.42
-5.11
-1.17
3.03
7.15
10.83
13.67
15.48
16.44
17.00
17.61
18.44
19.16
19.19
18.11
16.00
13.59
11.85
11.49
12.48
13.83
13.99
11.50
5.97
-1.41
-7.87
-10.00
-5.03
8.07
28.02
51.67
74.83
93.24
103.19
101.84
87.62
60.73
23.58
-19.08
-61.07
-96.23
-119.98
-130.31
-127.63
-113.94
-91.99
-64.84
-35.96
-9.16
11.78
24.08
26.74
20.89
9.24
-5.06
-19.38
-32.10
-42.34
-49.43
-52.59
-50.98
-44.28
-33.18
-19.59
-6.15
4.51
10.78
12.52
11.06
8.47
6.67
6.75
8.78
12.05
15.67
18.94
21.54
23.33
24.22
24.04
22.60
19.98
16.52
12.85
9.58
7.01
4.97
2.91
0.22
-3.52
-8.37
-14.07
-20.33
-26.93
-33.65
-39.85
-44.29
-45.23
-41.12
-31.57
-17.93
-3.05
9.82
18.38
22.26
22.92
22.84
24.24
28.16
34.22
41.02
46.90
50.56
51.50
49.93
46.74
43.10
40.21
38.83
39.10
40.53
42.16
42.97
42.08
38.91
33.08
24.44
13.17
0.02
-13.65
-25.98
-35.10
-39.81
-40.02
-36.89
-32.29
-28.11
-25.56
-25.00
-26.24
-28.88
-32.63
-37.23
-42.14
-46.39
-48.71
-48.05
-44.13
-37.56
-29.64
-21.64
-14.32
-7.72
-1.39
5.14
12.02
18.93
25.18
30.07
32.99
33.70
32.45
29.93
27.13
25.04
24.19
24.53
25.52
26.55
27.39
28.37
30.19
33.44
38.31
44.55
51.84
60.01
68.94
78.00
85.45
88.33
83.17
67.45
40.98
6.53
-30.77
-65.08
-91.55
-107.56
-112.90
-109.21
-99.05
-85.28
-70.60
-57.44
-47.76
-42.69
-42.33
-45.63
-50.70
-55.30
-57.41
-55.76
-50.03
-40.90
-29.80
-18.50
-8.49
-0.65
4.89
8.37
9.90
9.16
5.58
-1.02
-9.78
-18.58
-24.64
-25.62
-20.67
-10.88
1.24
12.81
21.73
27.23
29.69
30.00
28.83
26.36
22.44
17.00
10.44
3.69
-2.16
-6.29
-8.59
-9.59
-10.06
-10.36
-9.96
-7.42
-0.99
10.40
26.41
45.18
64.09
80.84
94.23
104.16
110.86
113.84
111.41
101.17
81.24
51.65
15.03
-23.80
-59.10
-85.69
-100.07
-100.92
-88.96
-66.67
-37.83
-7.11
20.60
41.20
52.29
53.83
48.04
38.51
28.99
22.19
19.11
18.91
19.00
15.56
4.36
-17.75
-51.04
-91.47
-130.77
-158.69
-166.75
-151.98
-118.43
-75.70
-34.79
-3.72
14.99
23.88
27.81
30.76
34.11
36.86
37.26
34.48
29.17
23.06
17.81
14.10
11.53
9.10
6.12
2.67
-0.26
-1.36
0.11
3.73
7.92
10.89
11.86
12.08
14.58
22.84
38.81
61.46
86.67
108.70
122.54
125.85
119.72
107.86
94.81
84.15
77.48
74.36
73.18
72.02
69.08
62.78
51.48
33.48
7.37
-27.31
-69.41
-115.89
-162.11
-202.72
-232.93
-249.57
-251.84
-241.15
-220.41
-192.80
-160.78
-125.77
-88.61
-50.48
-13.59
19.06
44.50
61.04
68.77
69.20
64.20
55.26
43.20
28.78
13.39
-0.68
-10.81
-15.14
-13.34
-6.74
