1.593609973000000000e+09
-2.999999999999999889e-02
5.059999999999999609e+00
1.791000000000000014e+01
7.934000000000000341e+01
2.282500000000000000e+02
-4.865000000000000000e+02
-5.900000000000000355e+00
1.561500000000000057e+02
4.678000000000000114e+01
4.049999999999999822e+00
2.300000000000000100e-01
-2.000000000000000042e-02
-4.899999999999999911e-01
1.070000000000000062e+00
-1.882999999999999829e+01
-3.859999999999999876e+00
-2.873999999999999844e+01
4.009999999999999787e+00
-4.110000000000000142e+01
-3.164000000000000057e+01
-1.053100000000000023e+02
1.043900000000000006e+02
1.264399999999999977e+02
-2.625000000000000000e+01
-6.175999999999999801e+01
3.611999999999999744e+01
-5.309999999999999609e+00
-1.005000000000000071e+01
8.679999999999999716e+00
-2.517000000000000171e+01
-3.617999999999999972e+01
4.709999999999999964e+00
-3.975999999999999801e+01
1.696999999999999886e+01
5.429999999999999716e+00
7.931999999999999318e+01
-1.133900000000000006e+02
-1.490500000000000114e+02
4.735000000000000142e+01
3.157999999999999829e+01
4.513000000000000256e+01
3.403000000000000114e+01
-1.232399999999999949e+02
-2.290200000000000102e+02
1.216899999999999977e+02
1.601200000000000045e+02
-5.639999999999999680e+00
1.038599999999999994e+02
-1.469000000000000057e+02
-4.286999999999999744e+01
-1.787000000000000099e+01
8.582999999999999829e+01
3.289999999999999858e+01
-5.490999999999999659e+01
-2.487000000000000099e+01
-3.049999999999999822e+00
2.687999999999999901e+01
-3.842999999999999972e+01
3.218999999999999773e+01
7.420000000000000284e+01
-1.695699999999999932e+02
-6.132999999999999829e+01
-1.689099999999999966e+02
-1.072800000000000011e+02
6.466900000000000546e+02
-2.337299999999999898e+02
-7.823000000000000398e+01
-6.814000000000000057e+01
-3.232000000000000028e+01
-6.309999999999999609e+00
3.739999999999999858e+01
1.523000000000000043e+01
3.200000000000000178e+00
-1.721299999999999955e+02
-7.951000000000000512e+01
-2.627900000000000205e+02
2.945699999999999932e+02
3.484499999999999886e+02
-3.104399999999999977e+02
-3.447599999999999909e+02
2.257500000000000000e+02
1.080000000000000000e+02
-5.382000000000000028e+01
-8.750000000000000000e+00
-8.401999999999999602e+01
1.203100000000000023e+02
-7.581000000000000227e+01
1.129599999999999937e+02
1.128400000000000034e+02
-1.143499999999999943e+02
4.821000000000000085e+01
-1.154000000000000057e+02
-1.724399999999999977e+02
2.967000000000000171e+01
-5.613000000000000256e+01
1.280699999999999932e+02
-6.681000000000000227e+01
-6.040999999999999659e+01
-8.434999999999999432e+01
1.800000000000000000e+01
1.024300000000000068e+02
-1.067300000000000040e+02
-4.820000000000000284e+00
1.868600000000000136e+02
-1.517800000000000011e+02
9.489000000000000057e+01
-3.639000000000000057e+01
3.103000000000000114e+01
-9.990000000000000213e+00
-4.136999999999999744e+01
5.064000000000000057e+01
1.726899999999999977e+02
4.118999999999999773e+01
-1.104500000000000028e+02
-8.900000000000000355e+00
-1.593999999999999950e+01
-6.710999999999999943e+01
7.835999999999999943e+01
8.984999999999999432e+01
3.259999999999999787e+00
-1.541899999999999977e+02
4.414999999999999858e+01
6.168999999999999773e+01
1.690200000000000102e+02
-2.210800000000000125e+02
-1.179000000000000057e+02
4.888000000000000256e+01
-7.143000000000000682e+01
7.162000000000000455e+01
-1.405500000000000114e+02
4.357999999999999829e+01
1.547199999999999989e+02
-7.464000000000000057e+01
2.060999999999999943e+01
-1.361999999999999922e+01
-8.829999999999999716e+01
-1.240000000000000036e+01
1.580000000000000071e+01
-6.689000000000000057e+01
-2.426999999999999957e+01
-1.449999999999999956e+00
-1.347000000000000064e+01
4.457999999999999829e+01
4.270000000000000284e+01
-9.340999999999999659e+01
4.771999999999999886e+01
-2.173999999999999844e+01
2.487000000000000099e+01
1.185300000000000011e+02
1.954099999999999966e+02
-9.187999999999999545e+01
-1.512500000000000000e+02
2.444999999999999929e+01
1.114000000000000057e+01
-3.209000000000000341e+01
-5.579999999999999716e+01
-2.553100000000000023e+02
1.571599999999999966e+02
5.562100000000000364e+02
-3.090099999999999909e+02
-4.982000000000000028e+01
-1.935200000000000102e+02
-3.321999999999999886e+01
2.341200000000000045e+02
-2.484600000000000080e+02
3.049999999999999822e+00
5.259000000000000341e+01
1.002399999999999949e+02
-4.357000000000000028e+01
-1.966000000000000014e+01
-8.679000000000000625e+01
9.467000000000000171e+01
6.573000000000000398e+01
-7.984000000000000341e+01
3.814999999999999858e+01
-8.800000000000000000e+01
8.834000000000000341e+01
-3.121000000000000085e+01
-3.700000000000000000e+01
-5.968999999999999773e+01
1.329000000000000057e+02
2.125800000000000125e+02
-1.614099999999999966e+02
-3.717000000000000171e+01
0.000000000000000000e+00
9.506000000000000227e+01
-3.611999999999999744e+01
-8.801000000000000512e+01
-7.579999999999999716e+01
7.834000000000000341e+01
7.240999999999999659e+01
-1.848000000000000043e+01
6.236999999999999744e+01
-2.316899999999999977e+02
2.278999999999999915e+01
7.280000000000000249e+00
-7.730000000000000426e+00
-5.278000000000000114e+01
6.987000000000000455e+01
7.990999999999999659e+01
-1.530000000000000027e+00
4.457000000000000028e+01
-1.559600000000000080e+02
-1.667999999999999972e+01
4.035999999999999943e+01
-7.189000000000000057e+01
-3.900000000000000133e-01
6.052000000000000313e+01
8.662000000000000455e+01
-6.634999999999999432e+01
3.137000000000000099e+01
-1.288799999999999955e+02
8.667000000000000171e+01
8.056999999999999318e+01
-8.206999999999999318e+01
-1.989999999999999858e+01
6.500000000000000000e+01
7.937000000000000455e+01
-2.385999999999999943e+01
-6.800000000000000488e-01
-1.324499999999999886e+02
9.096999999999999886e+01
6.029999999999999716e+01
-1.079800000000000040e+02
1.680999999999999872e+01
5.147999999999999687e+01
5.653000000000000114e+01
-1.735000000000000142e+01
3.320000000000000284e+01
-1.463600000000000136e+02
6.306000000000000227e+01
2.566000000000000014e+01
-7.114000000000000057e+01
1.905000000000000071e+01
3.146999999999999886e+01
5.546999999999999886e+01
-5.046999999999999886e+01
8.710000000000000853e+00
-2.016000000000000014e+01
-9.289999999999999147e+00
9.515000000000000568e+01
-9.362000000000000455e+01
1.778999999999999915e+01
5.679999999999999716e+00
6.324000000000000199e+01
-6.770999999999999375e+01
-1.660999999999999943e+01
2.508999999999999986e+01
5.950000000000000178e+00
1.138900000000000006e+02
-7.876000000000000512e+01
5.525000000000000000e+01
-6.443999999999999773e+01
-1.273499999999999943e+02
-4.985999999999999943e+01
-3.012999999999999901e+01
-6.290000000000000036e+00
1.039300000000000068e+02
6.918999999999999773e+01
-4.229999999999999716e+01
3.853999999999999915e+01
-7.640000000000000568e+01
-5.464000000000000057e+01
1.547000000000000064e+01
-5.139999999999999858e+01
4.870000000000000107e+00
7.903000000000000114e+01
7.173999999999999488e+01
-3.218999999999999773e+01
5.078000000000000114e+01
-1.229500000000000028e+02
2.587999999999999901e+01
6.799999999999999822e+00
-2.457999999999999829e+01
-5.074000000000000199e+01
7.495000000000000284e+01
6.346999999999999886e+01
-4.722999999999999687e+01
5.164000000000000057e+01
-3.589000000000000057e+01
4.507000000000000028e+01
-4.545000000000000284e+01
9.769999999999999574e+00
-1.250600000000000023e+02
5.310000000000000142e+01
5.157999999999999829e+01
-4.056000000000000227e+01
-1.036999999999999922e+01
9.080000000000000071e+00
6.628000000000000114e+01
-2.501000000000000156e+01
3.767000000000000171e+01
-1.012099999999999937e+02
8.081999999999999318e+01
7.410000000000000142e+00
-3.107999999999999829e+01
-5.818999999999999773e+01
6.854999999999999716e+01
4.817999999999999972e+01
-5.420000000000000284e+01
-4.889999999999999680e+00
9.360999999999999943e+01
5.067000000000000171e+01
-3.613000000000000256e+01
-1.714000000000000057e+01
-8.096999999999999886e+01
5.442999999999999972e+01
-2.548000000000000043e+01
-5.074000000000000199e+01
-2.639000000000000057e+01
7.720999999999999375e+01
5.889000000000000057e+01
-1.542999999999999972e+01
-1.339000000000000057e+01
-1.223599999999999994e+02
5.343999999999999773e+01
4.286999999999999744e+01
-4.429999999999999716e+01
1.076999999999999957e+01
-2.180000000000000071e+01
3.564000000000000057e+01
-1.167999999999999972e+01
-3.479999999999999716e+01
-3.299999999999999822e+00
5.810000000000000142e+01
2.864000000000000057e+01
-1.110999999999999943e+01
2.553999999999999915e+01
-1.033700000000000045e+02
3.192999999999999972e+01
1.699999999999999956e+00
-3.132000000000000028e+01
9.499999999999999556e-01
3.924000000000000199e+01
4.307000000000000028e+01
-3.771999999999999886e+01
4.330000000000000071e+00
-3.829999999999999716e+01
3.192999999999999972e+01
-9.089999999999999858e+00
-6.115999999999999659e+01
2.100000000000000000e+01
7.448000000000000398e+01
3.148000000000000043e+01
-4.096999999999999886e+01
2.205000000000000071e+01
-8.615999999999999659e+01
3.671999999999999886e+01
3.452000000000000313e+01
-4.335999999999999943e+01
4.839999999999999858e+00
2.860000000000000142e+01
3.614000000000000057e+01
-2.541000000000000014e+01
-2.290000000000000036e+00
-9.670999999999999375e+01
6.400000000000000000e+01
3.914000000000000057e+01
-3.868999999999999773e+01
-3.549999999999999822e+00
-1.101999999999999957e+01
5.521000000000000085e+01
-9.210000000000000853e+00
-2.287000000000000099e+01
-2.651999999999999957e+01
5.835000000000000142e+01
1.494999999999999929e+01
-2.433999999999999986e+01
9.710000000000000853e+00
1.739999999999999858e+01
-4.952000000000000313e+01
-3.639999999999999858e+01
4.269999999999999574e+00
1.300000000000000044e+00
3.810000000000000142e+01
2.930000000000000071e+01
-1.842999999999999972e+01
1.958999999999999986e+01
-6.299000000000000199e+01
1.479999999999999982e+00
2.116000000000000014e+01
-4.004999999999999716e+01
-4.272999999999999687e+01
6.660999999999999943e+01
4.317999999999999972e+01
-1.564000000000000057e+01
1.231000000000000050e+01
-9.918000000000000682e+01
4.538000000000000256e+01
1.919999999999999929e+01
-3.500999999999999801e+01
-2.587000000000000099e+01
4.168999999999999773e+01
2.598000000000000043e+01
-2.587000000000000099e+01
9.210000000000000853e+00
4.190000000000000391e+00
2.970000000000000195e+00
1.027999999999999936e+01
-2.185999999999999943e+01
1.916000000000000014e+01
9.535999999999999943e+01
-9.793000000000000682e+01
-3.546000000000000085e+01
-7.530000000000000249e+00
-4.940000000000000391e+00
6.238000000000000256e+01
4.099999999999999645e+00
8.689999999999999503e+00
-9.051000000000000512e+01
7.168999999999999773e+01
2.419999999999999929e+01
-1.104300000000000068e+02
1.049899999999999949e+02
4.096999999999999886e+01
-1.091000000000000014e+01
-5.203000000000000114e+01
1.600000000000000033e-01
-6.228000000000000114e+01
9.828000000000000114e+01
6.042999999999999972e+01
-6.601000000000000512e+01
2.739000000000000057e+01
-1.550000000000000044e+00
-9.126999999999999602e+01
-4.857999999999999829e+01
2.419999999999999929e+01
-5.165999999999999659e+01
3.459000000000000341e+01
5.750000000000000000e+01
-6.743999999999999773e+01
6.209999999999999964e+00
2.601000000000000156e+01
4.027000000000000313e+01
-2.760000000000000142e+01
2.060000000000000053e+00
-6.397999999999999687e+01
4.572999999999999687e+01
6.129999999999999893e+00
-1.871000000000000085e+01
9.880000000000000782e+00
3.907000000000000028e+01
2.957999999999999829e+01
-3.215999999999999659e+01
-6.009999999999999787e+00
-3.899999999999999911e+00
8.476000000000000512e+01
6.179999999999999716e+00
-6.945000000000000284e+01
3.524000000000000199e+01
1.023700000000000045e+02
-3.459999999999999964e+00
-4.246999999999999886e+01
2.926999999999999957e+01
-4.486999999999999744e+01
-3.834000000000000341e+01
-8.330000000000000071e+00
-1.513000000000000078e+01
-2.751999999999999957e+01
5.321000000000000085e+01
4.264000000000000057e+01
-7.526999999999999602e+01
2.855999999999999872e+01
-5.589000000000000057e+01
6.240000000000000213e+00
-1.033999999999999986e+01
-6.490000000000000213e+00
-2.657999999999999829e+01
5.754999999999999716e+01
6.161999999999999744e+01
-5.954999999999999716e+01
4.781000000000000227e+01
6.500000000000000000e+01
-8.037000000000000455e+01
-1.499199999999999875e+02
8.290000000000000568e+01
-1.524799999999999898e+02
-1.049699999999999989e+02
7.450000000000000178e+00
6.335000000000000142e+01
-1.222800000000000011e+02
5.707999999999999829e+01
1.391999999999999993e+01
-6.589999999999999858e+00
-1.419999999999999929e+01
7.251000000000000512e+01
4.643999999999999773e+01
-2.835999999999999943e+01
1.898000000000000043e+01
-8.395999999999999375e+01
3.430000000000000160e+00
5.088000000000000256e+01
-3.631000000000000227e+01
-3.669999999999999929e+00
2.585999999999999943e+01
2.325000000000000000e+01
-1.728999999999999915e+01
1.619999999999999929e+01
-7.893999999999999773e+01
2.462000000000000099e+01
2.112000000000000099e+01
-1.569999999999999929e+01
-2.605999999999999872e+01
7.515999999999999659e+01
6.939000000000000057e+01
-2.557999999999999829e+01
1.324000000000000021e+01
-5.238000000000000256e+01
-2.412000000000000099e+01
9.599999999999999645e+00
-2.085000000000000142e+01
-5.935999999999999943e+01
7.073999999999999488e+01
2.757000000000000028e+01
-4.354999999999999716e+01
-2.535999999999999943e+01
4.370000000000000284e+01
7.526000000000000512e+01
-5.334000000000000341e+01
-6.300000000000000044e-01
-7.106000000000000227e+01
3.756000000000000227e+01
4.340999999999999659e+01
-4.353999999999999915e+01
-2.790000000000000036e+00
5.810000000000000142e+01
3.877000000000000313e+01
3.799999999999999822e+00
1.139999999999999902e+00
-5.771000000000000085e+01
9.359999999999999432e+00
1.098000000000000043e+01
-2.307000000000000028e+01
-2.689999999999999947e+00
5.396999999999999886e+01
2.064999999999999858e+01
4.000000000000000222e-01
9.150000000000000355e+00
-6.267000000000000171e+01
-1.883999999999999986e+01
1.876000000000000156e+01
-3.456000000000000227e+01
-1.392999999999999972e+01
4.559000000000000341e+01
2.373000000000000043e+01
-5.100000000000000089e-01
2.370000000000000107e+00
-4.170000000000000284e+01
1.951000000000000156e+01
1.671999999999999886e+01
-3.393999999999999773e+01
-1.798999999999999844e+01
4.671000000000000085e+01
3.696000000000000085e+01
-6.669999999999999929e+00
3.770000000000000018e+00
-4.117000000000000171e+01
1.039000000000000057e+01
2.582999999999999829e+01
-4.168999999999999773e+01
-9.310000000000000497e+00
2.507000000000000028e+01
6.178000000000000114e+01
-1.678999999999999915e+01
-3.259000000000000341e+01
-8.470000000000000639e+00
1.814999999999999858e+01
8.519999999999999574e+00
-2.328000000000000114e+01
-3.600999999999999801e+01
6.660000000000000142e+00
-2.620000000000000107e+00
-1.867999999999999972e+01
8.650000000000000355e+00
-1.046700000000000017e+02
-8.004999999999999716e+01
3.700999999999999801e+01
-6.681999999999999318e+01
-4.150000000000000355e+00
-5.990000000000000213e+00
6.035999999999999943e+01
-8.299999999999999600e-01
-3.729999999999999982e+00
2.000000000000000042e-02
1.831500000000000057e+02
-1.050999999999999979e+01
-1.267300000000000040e+02
-9.201000000000000512e+01
-3.520000000000000284e+01
-6.604999999999999716e+01
-1.265799999999999983e+02
2.606399999999999864e+02
2.800000000000000000e+01
-6.635999999999999943e+01
-1.070000000000000062e+00
-1.038000000000000078e+01
-1.200999999999999979e+01
-6.099999999999999867e-01
-2.930000000000000160e+00
2.020000000000000018e+00
2.189999999999999947e+00
-2.470000000000000195e+00
-2.879999999999999893e+00
-3.689999999999999947e+00
-2.770000000000000018e+00
-3.350000000000000089e+00
-6.320000000000000284e+00
-5.910000000000000142e+00
7.610000000000000320e+00
8.550000000000000711e+00
1.542999999999999972e+01
-5.860000000000000320e+00
-4.110000000000000320e+00
7.139999999999999680e+00
1.136999999999999922e+01
-1.075999999999999979e+01
5.389999999999999680e+00
3.850000000000000089e+00
2.642999999999999972e+01
1.750000000000000000e+00
-1.563000000000000078e+01
-7.984999999999999432e+01
-4.210000000000000142e+01
2.066399999999999864e+02
9.787999999999999545e+01
-9.060999999999999943e+01
-9.156999999999999318e+01
5.081000000000000227e+01
9.454999999999999716e+01
-7.442000000000000171e+01
-2.428999999999999915e+01
7.150000000000000000e+01
6.879999999999999893e+00
3.803999999999999915e+01
-1.366999999999999993e+01
-6.393999999999999773e+01
-6.868000000000000682e+01
2.087999999999999901e+01
8.119999999999999218e+00
-3.001499999999999773e+02
2.694300000000000068e+02
7.165999999999999659e+01
-2.867999999999999972e+01
-1.052999999999999972e+02
6.465000000000000568e+01
1.310200000000000102e+02
-6.723000000000000398e+01
5.539000000000000057e+01
1.346299999999999955e+02
6.473999999999999488e+01
-1.050799999999999983e+02
5.557999999999999829e+01
-2.130000000000000071e+01
-4.099999999999999756e-01
9.390000000000000568e+00
-2.564999999999999858e+01
7.018000000000000682e+01
1.546699999999999875e+02
3.428199999999999932e+02
-3.948199999999999932e+02
-4.270299999999999727e+02
-1.699999999999999956e+00
3.149999999999999911e+00
2.500000000000000000e-01
-2.529999999999999805e+00
2.120000000000000107e+00
-3.120000000000000107e+00
-2.207999999999999829e+01
-1.433999999999999986e+01
1.040000000000000036e+01
-1.005199999999999960e+02
2.671000000000000085e+01
4.584000000000000341e+01
1.443700000000000045e+02
-4.572999999999999687e+01
1.732999999999999829e+01
1.480000000000000071e+01
-6.853000000000000114e+01
-2.932999999999999829e+01
-9.679999999999999716e+01
-1.265999999999999943e+02
1.445000000000000000e+02
9.909999999999999432e+01
8.670000000000000284e+01
4.437799999999999727e+02
-1.730000000000000000e+02
-2.858999999999999986e+01
-1.320000000000000000e+02
-1.179800000000000040e+02
-9.050000000000000000e+01
2.596000000000000085e+01
5.870000000000000284e+01
4.975999999999999801e+01
1.719099999999999966e+02
-3.135000000000000142e+01
6.670999999999999375e+01
2.410000000000000142e+01
5.140999999999999659e+01
4.924000000000000199e+01
1.659499999999999886e+02
-1.067199999999999989e+02
-1.249899999999999949e+02
-4.834000000000000341e+01
-9.084999999999999432e+01
-2.355399999999999920e+02
1.023199999999999932e+02
1.374499999999999886e+02
6.028999999999999915e+01
1.683999999999999986e+01
-2.021999999999999886e+01
4.385000000000000142e+01
-1.553600000000000136e+02
-5.529999999999999716e+01
6.114999999999999858e+01
1.070799999999999983e+02
-1.664499999999999886e+02
-1.779499999999999886e+02
-1.303300000000000125e+02
-1.045600000000000023e+02
-3.129800000000000182e+02
4.619900000000000091e+02
3.373500000000000227e+02
4.175999999999999801e+01
3.345000000000000284e+01
-8.637999999999999545e+01
1.089200000000000017e+02
2.087199999999999989e+02
-1.528300000000000125e+02
-2.902699999999999818e+02
-5.169999999999999929e+00
1.465000000000000036e+01
8.854000000000000625e+01
-1.862000000000000099e+01
2.816000000000000014e+01
3.213000000000000256e+01
-8.596999999999999886e+01
-1.161400000000000006e+02
-9.743999999999999773e+01
-2.067000000000000171e+01
1.434000000000000057e+02
-1.048000000000000043e+01
7.384999999999999432e+01
9.026000000000000512e+01
-9.510999999999999943e+01
4.340999999999999659e+01
2.782999999999999829e+01
-4.653999999999999915e+01
-3.781000000000000227e+01
-1.409699999999999989e+02
-6.143999999999999773e+01
8.306999999999999318e+01
1.364000000000000057e+01
-1.923999999999999844e+01
-4.529999999999999716e+01
1.029500000000000028e+02
3.240000000000000213e+00
1.837999999999999901e+01
-4.150000000000000355e+00
-3.939999999999999947e+00
2.283999999999999986e+01
-3.144999999999999929e+01
-1.650099999999999909e+02
-2.043799999999999955e+02
2.606299999999999955e+02
1.039099999999999966e+02
4.815999999999999659e+01
1.796000000000000085e+01
7.918999999999999773e+01
-4.692000000000000171e+01
-9.732999999999999829e+01
2.805999999999999872e+01
5.678000000000000114e+01
-1.563000000000000078e+01
-1.701999999999999957e+01
2.150000000000000000e+01
-2.164000000000000057e+01
-5.385999999999999943e+01
9.609999999999999432e+00
-6.256000000000000227e+01
-3.203000000000000114e+01
7.270999999999999375e+01
-7.730000000000000426e+00
-1.900000000000000000e+01
4.293999999999999773e+01
2.221500000000000057e+02
-1.766999999999999886e+02
1.752199999999999989e+02
-6.509999999999999432e+01
-1.403600000000000136e+02
-5.500000000000000000e+00
2.069999999999999840e+00
-2.148999999999999844e+01
1.678000000000000114e+01
1.238000000000000078e+01
-1.710000000000000142e+01
2.014999999999999858e+01
1.098000000000000043e+01
-1.534999999999999964e+01
-2.573000000000000043e+01
6.640999999999999659e+01
-5.684000000000000341e+01
-1.304600000000000080e+02
9.101999999999999602e+01
3.279999999999999716e+01
-8.619999999999999218e+00
-4.950000000000000178e+00
1.932999999999999829e+01
1.369999999999999929e+01
2.439999999999999858e+01
2.939999999999999858e+01
-3.475999999999999801e+01
1.338499999999999943e+02
1.316999999999999993e+01
-6.862000000000000455e+01
-4.257999999999999829e+01
1.004399999999999977e+02
-4.729999999999999716e+01
-1.407899999999999920e+02
-3.572999999999999687e+01
-7.384999999999999432e+01
5.559000000000000341e+01
6.826999999999999602e+01
-1.625200000000000102e+02
7.556000000000000227e+01
1.055000000000000000e+02
2.980999999999999872e+01
-1.560999999999999943e+02
-1.462899999999999920e+02
8.975000000000000000e+01
2.933999999999999986e+01
4.910000000000000142e+01
-5.367000000000000171e+01
-1.265900000000000034e+02
8.651999999999999602e+01
4.161999999999999744e+01
2.617500000000000000e+02
-1.100100000000000051e+02
-4.835999999999999943e+01
3.292999999999999972e+01
8.115000000000000568e+01
-4.439999999999999858e+01
5.104999999999999716e+01
-1.858999999999999986e+01
-5.209000000000000341e+01
6.892000000000000171e+01
-2.482999999999999829e+01
-4.856000000000000227e+01
-6.631000000000000227e+01
1.627199999999999989e+02
1.077300000000000040e+02
1.379799999999999898e+02
-1.610300000000000011e+02
-3.928000000000000114e+01
3.165600000000000023e+02
-3.725999999999999801e+01
-1.179000000000000057e+02
9.380000000000000782e+00
5.950000000000000000e+01
4.128000000000000114e+01
9.339999999999999858e+00
-4.117999999999999972e+01
9.140000000000000568e+00
3.999000000000000199e+01
-2.214000000000000057e+01
-3.649999999999999911e+00
1.380000000000000071e+01
-1.332000000000000028e+01
3.871000000000000085e+01
6.009000000000000341e+01
-1.317999999999999972e+01
4.200000000000000178e+00
-1.100000000000000006e-01
-2.698999999999999844e+01
-3.277000000000000313e+01
1.447000000000000064e+01
1.110000000000000098e+00
-2.117999999999999972e+01
3.285999999999999943e+01
-1.193700000000000045e+02
1.402199999999999989e+02
1.181099999999999994e+02
-9.940000000000000568e+01
-5.718999999999999773e+01
5.607000000000000028e+01
1.308199999999999932e+02
2.541000000000000014e+01
-2.187000000000000099e+01
-3.378999999999999915e+01
-1.344199999999999875e+02
1.440000000000000036e+01
-1.171000000000000085e+01
5.061999999999999744e+01
6.071999999999999886e+01
-5.660999999999999943e+01
-3.026999999999999957e+01
-8.664000000000000057e+01
1.186800000000000068e+02
-1.508400000000000034e+02
-2.098000000000000043e+01
2.828000000000000114e+01
1.346000000000000085e+01
5.410999999999999943e+01
1.386999999999999922e+01
-4.853999999999999915e+01
-1.644000000000000128e+01
2.721000000000000085e+01
-4.110000000000000320e+00
-3.569999999999999840e+00
4.499000000000000199e+01
-1.810999999999999943e+01
-1.181000000000000050e+01
3.296000000000000085e+01
-8.880000000000000782e+00
-1.014000000000000057e+01
3.289999999999999858e+01
-8.730000000000000426e+00
-6.325999999999999801e+01
3.757999999999999829e+01
2.782999999999999829e+01
4.607999999999999829e+01
2.701000000000000156e+01
-6.762000000000000455e+01
8.410000000000000142e+00
-3.459000000000000341e+01
5.370000000000000107e+00
6.639999999999999680e+00
1.176999999999999957e+01
-2.057000000000000028e+01
6.887000000000000455e+01
-3.975000000000000000e+01
-2.380000000000000071e+01
-6.887999999999999545e+01
8.919999999999999929e+00
1.851000000000000156e+01
-1.094999999999999929e+01
1.075000000000000000e+01
3.130000000000000071e+01
6.000000000000000000e+00
2.539000000000000057e+01
2.144000000000000128e+01
-2.439999999999999947e+00
8.750000000000000000e+00
1.653000000000000114e+01
-4.980000000000000426e+00
4.820000000000000284e+00
2.160000000000000142e+01
-3.200000000000000178e+00
7.112000000000000455e+01
1.023100000000000023e+02
-1.923499999999999943e+02
2.139999999999999858e+01
2.280000000000000071e+01
-1.070000000000000062e+00
-5.870000000000000107e+00
4.372999999999999687e+01
5.459999999999999964e+00
-5.021999999999999886e+01
2.187999999999999901e+01
1.601000000000000156e+01
-3.386999999999999744e+01
4.165999999999999659e+01
1.912999999999999901e+01
1.788300000000000125e+02
7.443999999999999773e+01
-5.865999999999999659e+01
-1.314499999999999886e+02
-6.835999999999999943e+01
6.282999999999999829e+01
7.659000000000000341e+01
2.882999999999999829e+01
-9.060000000000000497e+00
-1.408000000000000007e+01
-2.287000000000000099e+01
-1.779300000000000068e+02
8.057999999999999829e+01
8.112000000000000455e+01
-2.994999999999999929e+01
1.413700000000000045e+02
-4.078199999999999932e+02
7.923999999999999488e+01
2.898000000000000043e+01
7.803000000000000114e+01
-6.526999999999999602e+01
-2.099999999999999922e-01
-5.538000000000000256e+01
2.948000000000000043e+01
-1.116000000000000014e+01
4.414999999999999858e+01
4.000000000000000000e+01
-3.549999999999999822e+00
1.030000000000000027e+00
7.120000000000000107e+00
-4.145000000000000284e+01
-2.399999999999999911e-01
2.932000000000000028e+01
-1.912000000000000099e+01
3.058999999999999986e+01
3.029999999999999805e+00
-1.880000000000000071e+01
1.409999999999999964e+01
-2.500000000000000000e-01
-2.151999999999999957e+01
-1.010000000000000009e+00
6.703000000000000114e+01
1.947199999999999989e+02
-1.636500000000000057e+02
-6.057000000000000028e+01
-2.742000000000000171e+01
4.214999999999999858e+01
5.285999999999999943e+01
-2.007999999999999829e+01
-3.399999999999999911e+00
2.769999999999999929e+01
-8.978000000000000114e+01
6.303999999999999915e+01
8.556999999999999318e+01
-1.593799999999999955e+02
-3.112000000000000099e+01
-2.142999999999999972e+01
-6.704000000000000625e+01
-1.952899999999999920e+02
3.848500000000000227e+02
1.145100000000000051e+02
-2.009199999999999875e+02
-2.014399999999999977e+02
7.812000000000000455e+01
1.426299999999999955e+02
-2.379999999999999893e+00
-4.932999999999999829e+01
-1.757000000000000028e+01
2.244600000000000080e+02
-1.752299999999999898e+02
-3.328000000000000114e+01
1.543199999999999932e+02
-5.872999999999999687e+01
-1.405500000000000114e+02
3.664999999999999858e+01
3.424000000000000199e+01
-5.107999999999999829e+01
7.426999999999999602e+01
-4.671000000000000085e+01
4.586999999999999744e+01
-7.737000000000000455e+01
1.830000000000000071e+00
5.650000000000000355e+00
-1.071700000000000017e+02
-1.281899999999999977e+02
3.528899999999999864e+02
5.475000000000000000e+01
-2.392999999999999972e+01
-1.290500000000000114e+02
-3.405899999999999750e+02
2.311500000000000057e+02
9.978000000000000114e+01
1.112800000000000011e+02
-2.757000000000000028e+01
2.267999999999999972e+01
4.868999999999999773e+01
-8.870999999999999375e+01
-5.314999999999999858e+01
1.712999999999999901e+01
-7.980000000000000426e+00
-4.363000000000000256e+01
6.500000000000000000e+01
-7.978000000000000114e+01
6.009999999999999787e+00
-4.595000000000000284e+01
2.855000000000000071e+01
4.000000000000000083e-02
-4.357000000000000028e+01
-2.960000000000000142e+01
2.689999999999999858e+01
3.105999999999999872e+01
-1.685999999999999943e+01
-4.681000000000000227e+01
-2.701999999999999957e+01
5.939999999999999858e+01
-3.270000000000000018e+00
3.016000000000000014e+01
2.870000000000000107e+00
-6.459999999999999964e+00
4.679999999999999716e+00
-6.103999999999999915e+01
-2.873999999999999844e+01
4.200999999999999801e+01
-7.490000000000000213e+00
2.000000000000000000e+00
-8.210000000000000853e+00
-3.749000000000000199e+01
3.100000000000000089e+00
-1.246000000000000085e+01
-1.794999999999999929e+01
3.162999999999999901e+01
7.062000000000000455e+01
1.540000000000000036e+01
-5.214999999999999858e+01
7.459999999999999964e+00
1.891000000000000014e+01
-9.910000000000000142e+00
8.000000000000000000e+00
7.099999999999999645e-01
-1.066999999999999993e+01
1.116999999999999993e+01
-9.990000000000000213e+00
1.224000000000000021e+01
2.394000000000000128e+01
-1.126999999999999957e+01
-4.849999999999999645e+00
-9.619999999999999218e+00
2.978000000000000114e+01
2.580000000000000071e+00
-1.689999999999999858e+01
8.509999999999999787e+00
-1.173000000000000043e+01
1.817999999999999972e+01
2.280999999999999872e+01
-5.000000000000000000e+00
-7.530000000000000249e+00
-5.342000000000000171e+01
4.297999999999999687e+01
2.214000000000000057e+01
-1.580000000000000071e+01
2.233999999999999986e+01
-5.179999999999999716e+00
-9.868000000000000682e+01
-1.359999999999999964e+01
1.409999999999999920e+00
-7.940000000000000391e+00
1.662000000000000099e+01
2.442999999999999972e+01
-9.199999999999999289e+00
1.919000000000000128e+01
2.801999999999999957e+01
-9.198999999999999488e+01
-4.428000000000000114e+01
2.332999999999999829e+01
-2.692999999999999972e+01
3.421999999999999886e+01
3.307999999999999829e+01
-3.263000000000000256e+01
2.517999999999999972e+01
3.831000000000000227e+01
-1.129000000000000057e+02
-2.980000000000000071e+01
1.239999999999999991e+00
-1.006000000000000050e+01
8.123999999999999488e+01
4.803999999999999915e+01
-1.184300000000000068e+02
1.152999999999999936e+01
8.667000000000000171e+01
7.370000000000000107e+00
-1.358999999999999986e+01
2.319999999999999840e+00
2.860000000000000142e+01
7.581999999999999318e+01
-4.670000000000000284e+01
1.566999999999999993e+01
4.818999999999999773e+01
5.485000000000000142e+01
-1.943799999999999955e+02
-5.720000000000000284e+01
4.790000000000000036e+00
1.385999999999999943e+01
5.100999999999999801e+01
2.689999999999999858e+01
-9.310000000000000497e+00
3.568999999999999773e+01
7.506999999999999318e+01
-8.050000000000000000e+01
1.039000000000000057e+01
3.674000000000000199e+01
-1.173000000000000043e+01
-8.199999999999999289e+00
-2.650000000000000000e+01
7.209999999999999964e+00
1.583999999999999986e+01
9.714000000000000057e+01
-1.335999999999999943e+01
-3.924000000000000199e+01
3.904999999999999716e+01
-3.110999999999999943e+01
-3.824000000000000199e+01
-5.050000000000000000e+01
1.930999999999999872e+01
2.214000000000000057e+01
3.459999999999999964e+00
4.335999999999999943e+01
-4.032000000000000028e+01
5.592000000000000171e+01
4.788000000000000256e+01
-2.653000000000000114e+01
1.764999999999999858e+01
5.052000000000000313e+01
-1.760000000000000009e+00
-1.180000000000000000e+02
5.845000000000000284e+01
-7.907999999999999829e+01
5.039999999999999858e+01
2.851000000000000156e+01
2.653999999999999915e+01
-9.348999999999999488e+01
5.528000000000000114e+01
-4.700999999999999801e+01
-8.367000000000000171e+01
-5.730000000000000426e+00
-2.905000000000000071e+01
4.377000000000000313e+01
8.543000000000000682e+01
-2.383999999999999986e+01
2.764999999999999858e+01
4.038000000000000256e+01
-5.371000000000000085e+01
-4.677000000000000313e+01
-1.757199999999999989e+02
7.079999999999999716e+01
-8.980000000000000426e+00
-3.129999999999999893e+00
1.017800000000000011e+02
-1.088599999999999994e+02
-4.945000000000000284e+01
-5.081000000000000227e+01
1.645399999999999920e+02
1.667800000000000011e+02
-2.800699999999999932e+02
-8.893000000000000682e+01
-7.553000000000000114e+01
1.503000000000000114e+02
1.237399999999999949e+02
1.792299999999999898e+02
-1.567800000000000011e+02
2.953000000000000114e+01
-1.184300000000000068e+02
-8.256999999999999318e+01
-8.537000000000000455e+01
2.990000000000000000e+02
-8.120000000000000284e+01
-1.876699999999999875e+02
2.940400000000000205e+02
2.921200000000000045e+02
-1.865300000000000011e+02
9.414000000000000057e+01
-1.929000000000000057e+02
1.166800000000000068e+02
4.829999999999999716e+01
6.870999999999999375e+01
2.078000000000000114e+01
-8.484000000000000341e+01
-2.644999999999999929e+01
-1.636899999999999977e+02
-5.149000000000000199e+01
-1.565800000000000125e+02
4.667999999999999972e+01
-1.142600000000000051e+02
2.339600000000000080e+02
-3.335299999999999727e+02
1.693100000000000023e+02
4.159399999999999977e+02
-1.470300000000000011e+02
-1.226200000000000045e+02
2.830999999999999872e+01
-1.605800000000000125e+02
-4.667999999999999972e+01
6.014000000000000057e+01
1.923999999999999844e+01
-1.352800000000000011e+02
2.416100000000000136e+02
1.469199999999999875e+02
-1.195699999999999932e+02
1.491800000000000068e+02
1.375900000000000034e+02
1.710500000000000114e+02
-1.735699999999999932e+02
2.057999999999999829e+01
-1.130900000000000034e+02
1.271200000000000045e+02
8.134000000000000341e+01
-3.282999999999999829e+01
5.150999999999999801e+01
1.241099999999999994e+02
-3.082999999999999829e+01
-1.917999999999999972e+01
-2.380000000000000071e+01
1.640699999999999932e+02
-1.002199999999999989e+02
1.029000000000000057e+02
-3.378999999999999915e+01
-1.113199999999999932e+02
-4.042000000000000171e+01
-1.420399999999999920e+02
-2.388600000000000136e+02
1.587199999999999989e+02
1.100100000000000051e+02
-7.270000000000000284e+01
1.741200000000000045e+02
-9.195999999999999375e+01
-4.885600000000000023e+02
2.258100000000000023e+02
5.250999999999999801e+01
-3.078999999999999915e+01
8.429000000000000625e+01
-2.812999999999999901e+01
4.622999999999999687e+01
-4.000000000000000222e-01
-7.509999999999999787e+00
-6.960999999999999943e+01
1.250300000000000011e+02
3.752000000000000313e+01
-9.904000000000000625e+01
2.609499999999999886e+02
-6.279999999999999716e+01
3.185000000000000142e+01
2.214099999999999966e+02
-2.127800000000000011e+02
-1.314900000000000091e+02
-7.425000000000000000e+01
7.448000000000000398e+01
2.108899999999999864e+02
-4.149499999999999886e+02
2.106599999999999966e+02
1.169399999999999977e+02
-1.961699999999999875e+02
3.189999999999999858e+01
5.602000000000000313e+01
-1.914699999999999989e+02
2.521000000000000085e+01
6.009000000000000341e+01
5.640999999999999659e+01
8.130000000000000782e+00
-1.791299999999999955e+02
-2.512000000000000099e+01
1.141999999999999993e+01
6.467000000000000171e+01
6.096999999999999886e+01
6.378999999999999915e+01
1.391899999999999977e+02
-4.498799999999999955e+02
9.610999999999999943e+01
1.687500000000000000e+02
-2.792000000000000171e+01
5.370000000000000284e+01
1.659300000000000068e+02
-4.341600000000000250e+02
6.543000000000000682e+01
1.550999999999999943e+02
-6.260999999999999943e+01
8.378000000000000114e+01
-8.468000000000000682e+01
-5.750000000000000000e+01
-1.482599999999999909e+02
2.162000000000000099e+01
-2.572400000000000091e+02
6.190000000000000391e+00
1.188000000000000078e+01
-2.379999999999999893e+00
-1.396100000000000136e+02
1.231000000000000050e+01
9.207999999999999829e+01
-4.139000000000000057e+01
4.706000000000000227e+01
-2.891499999999999773e+02
2.536599999999999966e+02
-2.323899999999999864e+02
-2.353100000000000023e+02
2.387000000000000099e+01
1.170699999999999932e+02
-1.183900000000000006e+02
1.262999999999999972e+02
6.346000000000000085e+01
-3.028000000000000114e+01
-1.542599999999999909e+02
2.419799999999999898e+02
-1.678899999999999864e+02
1.057999999999999972e+02
1.523000000000000043e+01
-1.163100000000000023e+02
8.862999999999999545e+01
-4.411999999999999744e+01
1.408400000000000034e+02
-2.267899999999999920e+02
1.754699999999999989e+02
-2.125800000000000125e+02
2.935000000000000142e+01
9.226999999999999602e+01
1.291000000000000014e+01
-3.011600000000000250e+02
1.304799999999999898e+02
2.103700000000000045e+02
4.525000000000000000e+01
7.534000000000000341e+01
2.580000000000000071e+01
-3.417999999999999972e+01
4.417000000000000171e+01
7.976999999999999602e+01
3.653000000000000114e+01
9.740999999999999659e+01
-4.349999999999999645e+00
-9.550000000000000000e+01
1.319499999999999886e+02
6.128999999999999915e+01
-2.873999999999999844e+01
-6.443999999999999773e+01
9.881999999999999318e+01
-2.421699999999999875e+02
4.672999999999999687e+01
2.351000000000000156e+01
-1.214699999999999989e+02
1.440000000000000036e+01
8.339999999999999858e+00
7.315000000000000568e+01
5.272999999999999687e+01
7.789000000000000057e+01
-4.630299999999999727e+02
8.637999999999999545e+01
1.444999999999999929e+01
-1.342599999999999909e+02
2.672599999999999909e+02
3.942000000000000171e+01
8.387999999999999545e+01
-4.510699999999999932e+02
1.301599999999999966e+02
3.571999999999999886e+01
4.685000000000000142e+01
4.863000000000000256e+01
-8.429999999999999716e+00
-9.712999999999999545e+01
1.197099999999999937e+02
1.912500000000000000e+02
9.345999999999999375e+01
-6.153999999999999915e+01
-2.103999999999999915e+01
-2.110000000000000142e+01
4.253999999999999915e+01
-2.796000000000000085e+01
-1.689799999999999898e+02
1.217999999999999972e+01
7.665999999999999659e+01
4.774000000000000199e+01
-5.750000000000000000e+00
1.490699999999999932e+02
3.942000000000000171e+01
-4.854599999999999795e+02
2.490999999999999943e+02
1.641000000000000014e+01
-1.427899999999999920e+02
6.950000000000000000e+01
2.016399999999999864e+02
2.196399999999999864e+02
-1.841800000000000068e+02
2.053999999999999915e+01
-1.869099999999999966e+02
1.003199999999999932e+02
1.224800000000000040e+02
1.764000000000000057e+01
7.209999999999999432e+01
-2.782099999999999795e+02
6.302000000000000313e+01
1.243799999999999955e+02
-8.726000000000000512e+01
1.524000000000000021e+01
-1.162399999999999949e+02
6.512000000000000455e+01
6.545000000000000284e+01
-2.267800000000000011e+02
-2.762999999999999901e+01
1.169599999999999937e+02
1.792800000000000011e+02
-6.878000000000000114e+01
6.230000000000000426e+00
-3.635699999999999932e+02
3.949000000000000199e+01
1.379600000000000080e+02
-5.529999999999999716e+01
1.260699999999999932e+02
-2.951399999999999864e+02
6.518999999999999773e+01
1.372599999999999909e+02
-1.620300000000000011e+02
-3.565999999999999659e+01
-1.278999999999999915e+01
1.175400000000000063e+02
-5.707000000000000028e+01
7.799999999999999822e+00
-1.215199999999999960e+02
1.018900000000000006e+02
1.512100000000000080e+02
-4.339999999999999858e+01
1.028900000000000006e+02
-2.426999999999999886e+02
-1.171899999999999977e+02
1.122300000000000040e+02
-1.628400000000000034e+02
-1.696999999999999886e+01
1.153900000000000006e+02
1.167999999999999972e+02
-1.880999999999999872e+01
1.243999999999999950e+01
-1.585099999999999909e+02
9.628000000000000114e+01
9.529999999999999716e+01
-2.610000000000000142e+01
3.440999999999999659e+01
-1.971699999999999875e+02
6.407999999999999829e+01
4.309000000000000341e+01
-1.846800000000000068e+02
-3.872999999999999687e+01
1.394900000000000091e+02
9.548000000000000398e+01
-2.242000000000000171e+01
5.796000000000000085e+01
-2.440699999999999932e+02
8.300000000000000000e+01
8.526999999999999602e+01
-1.044699999999999989e+02
3.700000000000000178e+00
1.214000000000000057e+01
8.568999999999999773e+01
-8.300000000000000711e+00
-1.121800000000000068e+02
-3.834000000000000341e+01
1.376599999999999966e+02
6.582999999999999829e+01
-6.860000000000000320e+00
3.428999999999999915e+01
1.707999999999999829e+01
9.289000000000000057e+01
-1.281399999999999864e+02
1.149000000000000021e+01
-1.565900000000000034e+02
-1.449000000000000021e+01
6.695999999999999375e+01
5.874000000000000199e+01
-1.921200000000000045e+02
-5.756399999999999864e+02
7.769999999999999574e+00
9.295000000000000284e+01
1.853899999999999864e+02
9.269999999999999574e+00
-8.029999999999999361e+00
-2.960000000000000142e+01
2.185000000000000142e+01
9.278000000000000114e+01
7.042000000000000171e+01
-2.568399999999999750e+02
1.687199999999999989e+02
1.641899999999999977e+02
6.979999999999999716e+01
-3.645000000000000284e+01
3.279999999999999716e+01
3.439999999999999858e+01
9.373000000000000398e+01
-1.953999999999999915e+01
2.751999999999999957e+01
-2.821000000000000085e+01
7.062999999999999545e+01
-4.624000000000000199e+01
-8.532999999999999829e+01
1.217600000000000051e+02
-6.117999999999999972e+01
-1.599300000000000068e+02
2.814000000000000057e+01
4.300000000000000000e+01
-4.007999999999999829e+01
4.618999999999999773e+01
-1.418400000000000034e+02
2.100000000000000089e+00
2.696999999999999886e+01
1.655000000000000071e+01
3.529999999999999716e+01
-1.475999999999999943e+02
3.396999999999999886e+01
-4.325000000000000000e+01
-2.085000000000000142e+01
3.299000000000000199e+01
2.889000000000000057e+01
6.299999999999999822e+00
8.730000000000000426e+00
-4.067000000000000171e+01
-2.819999999999999840e+00
-3.377000000000000313e+01
1.680699999999999932e+02
-1.552199999999999989e+02
2.378000000000000114e+01
-1.710000000000000000e+02
9.840999999999999659e+01
7.926000000000000512e+01
-9.615000000000000568e+01
5.521000000000000085e+01
-1.104200000000000017e+02
8.009999999999999787e+00
2.033400000000000034e+02
-6.409999999999999432e+01
-3.846999999999999886e+01
-2.973999999999999844e+01
1.442100000000000080e+02
-3.675999999999999801e+01
-2.098899999999999864e+02
-1.575900000000000034e+02
-1.789499999999999886e+02
3.800999999999999801e+01
8.314000000000000057e+01
-2.409300000000000068e+02
4.118299999999999841e+02
3.853000000000000114e+01
5.797999999999999687e+01
2.450000000000000178e+00
6.361999999999999744e+01
-6.036999999999999744e+01
6.139000000000000057e+01
9.323999999999999488e+01
-7.334000000000000341e+01
1.253999999999999915e+01
-5.314000000000000057e+01
-1.105199999999999960e+02
1.466800000000000068e+02
-8.373999999999999488e+01
-1.111700000000000017e+02
-3.921999999999999886e+01
1.621999999999999886e+01
-1.288000000000000078e+01
-5.146000000000000085e+01
-6.704999999999999716e+01
-4.849999999999999645e+00
2.304699999999999989e+02
-5.946000000000000085e+01
-1.153900000000000006e+02
-1.193999999999999950e+01
-4.354999999999999716e+01
1.064599999999999937e+02
3.180000000000000071e+01
1.510000000000000000e+02
5.797999999999999687e+01
-2.870600000000000023e+02
1.184399999999999977e+02
1.005900000000000034e+02
-6.500000000000000000e+01
-1.454000000000000057e+02
7.193000000000000682e+01
2.220000000000000195e+00
2.771999999999999886e+01
-9.051000000000000512e+01
4.099999999999999756e-01
7.654000000000000625e+01
-2.314900000000000091e+02
1.608999999999999986e+01
-7.456000000000000227e+01
-4.547999999999999687e+01
-1.260000000000000009e+00
3.359599999999999795e+02
-6.670999999999999375e+01
-1.375500000000000114e+02
2.529999999999999805e+00
3.112000000000000099e+01
2.516000000000000014e+01
-3.173999999999999844e+01
1.291000000000000014e+01
2.196999999999999886e+01
-1.134999999999999964e+01
-7.751999999999999602e+01
-8.399999999999999689e-01
-4.006000000000000227e+01
8.429999999999999716e+01
7.162000000000000455e+01
-9.698000000000000398e+01
3.954999999999999716e+01
-4.517000000000000171e+01
-2.716000000000000014e+01
8.406999999999999318e+01
-4.614999999999999858e+01
-1.998999999999999844e+01
7.284000000000000341e+01
-1.222000000000000064e+01
3.700999999999999801e+01
2.219000000000000128e+01
-5.267999999999999972e+01
-4.415999999999999659e+01
-9.189000000000000057e+01
4.022999999999999687e+01
2.644999999999999929e+01
5.196000000000000085e+01
4.389999999999999680e+00
4.736999999999999744e+01
-5.320000000000000284e+00
-1.012900000000000063e+02
5.864999999999999858e+01
6.506999999999999318e+01
8.529999999999999716e+01
-4.792999999999999972e+01
3.439000000000000057e+01
-3.500999999999999801e+01
-3.357999999999999829e+01
-1.921000000000000085e+01
1.735000000000000142e+01
-2.871999999999999886e+01
6.493999999999999773e+01
-6.525000000000000000e+01
8.426000000000000512e+01
-2.125000000000000000e+01
-4.189000000000000057e+01
-3.378999999999999915e+01
3.105000000000000071e+01
6.879999999999999716e+01
4.790000000000000036e+00
7.326999999999999602e+01
-9.998000000000000398e+01
6.726999999999999602e+01
-1.155199999999999960e+02
-4.396999999999999886e+01
5.607000000000000028e+01
-5.896000000000000085e+01
2.158999999999999986e+01
1.033700000000000045e+02
-1.561200000000000045e+02
2.637000000000000099e+01
3.547200000000000273e+02
-1.862100000000000080e+02
-2.162000000000000099e+01
8.503000000000000114e+01
4.860000000000000320e+00
-9.460000000000000853e+00
8.289999999999999147e+00
1.430000000000000071e+01
3.949000000000000199e+01
-2.592000000000000171e+01
1.438100000000000023e+02
8.240000000000000213e+00
-3.596000000000000085e+01
-1.553700000000000045e+02
7.306000000000000227e+01
1.112199999999999989e+02
-8.370999999999999375e+01
4.046999999999999886e+01
5.413000000000000256e+01
-8.190999999999999659e+01
-5.682999999999999829e+01
1.537500000000000000e+02
1.211400000000000006e+02
1.339000000000000057e+01
1.022099999999999937e+02
9.382999999999999829e+01
1.879999999999999893e+00
-5.861999999999999744e+01
-9.259999999999999787e+00
-1.590000000000000080e+00
-7.360000000000000320e+00
-1.320000000000000062e+00
-1.939999999999999947e+00
-2.603000000000000114e+01
-6.928000000000000114e+01
1.425800000000000125e+02
1.166500000000000057e+02
-1.032000000000000028e+01
-2.992099999999999795e+02
3.652300000000000182e+02
7.203000000000000114e+01
-7.693000000000000682e+01
-6.232999999999999829e+01
-5.229999999999999716e+01
-4.428000000000000114e+01
4.153999999999999915e+01
2.962000000000000099e+01
-5.497999999999999687e+01
1.495000000000000000e+02
5.628000000000000114e+01
-2.494000000000000128e+01
6.509999999999999432e+01
1.238599999999999994e+02
2.730799999999999841e+02
-4.166200000000000045e+02
-1.756999999999999886e+02
1.402999999999999936e+01
4.165999999999999659e+01
-5.200000000000000178e+00
-5.070000000000000284e+00
-1.880000000000000071e+01
-1.308700000000000045e+02
1.324000000000000057e+02
8.312000000000000455e+01
-5.013000000000000256e+01
-1.833600000000000136e+02
3.643999999999999773e+01
2.549900000000000091e+02
-4.370000000000000284e+01
-6.551999999999999602e+01
1.522100000000000080e+02
-1.346200000000000045e+02
-7.431000000000000227e+01
8.118999999999999773e+01
4.480000000000000426e+00
6.545999999999999375e+01
-1.537400000000000091e+02
-2.735999999999999943e+01
1.172999999999999972e+02
2.760000000000000142e+01
3.732999999999999829e+01
-1.887899999999999920e+02
8.495000000000000284e+01
9.414000000000000057e+01
-6.421999999999999886e+01
-7.684000000000000341e+01
6.700000000000000178e+00
5.885000000000000142e+01
3.454999999999999716e+01
-1.074000000000000057e+02
-7.581999999999999318e+01
8.209000000000000341e+01
9.651999999999999602e+01
2.137000000000000099e+01
5.457999999999999829e+01
-1.641399999999999864e+02
1.178999999999999915e+01
9.037999999999999545e+01
-1.828999999999999915e+01
4.642999999999999972e+01
-1.379199999999999875e+02
4.900999999999999801e+01
4.934000000000000341e+01
-6.853000000000000114e+01
-8.337000000000000455e+01
1.078299999999999983e+02
9.710999999999999943e+01
-2.996999999999999886e+01
3.492999999999999972e+01
-1.167500000000000000e+02
3.786999999999999744e+01
1.102099999999999937e+02
2.607999999999999829e+01
2.792000000000000171e+01
-2.165300000000000011e+02
1.914000000000000057e+01
6.970000000000000284e+01
-1.050499999999999972e+02
-4.699999999999999734e-01
7.500000000000000000e+00
6.600000000000000000e+01
-4.338000000000000256e+01
-7.909999999999999432e+01
-1.459999999999999964e+01
7.984999999999999432e+01
6.723000000000000398e+01
-4.839000000000000057e+01
1.739000000000000057e+01
-1.436800000000000068e+02
7.282999999999999829e+01
1.032999999999999972e+02
-6.739000000000000057e+01
4.281000000000000227e+01
-9.973000000000000398e+01
5.089000000000000057e+01
4.485000000000000142e+01
-1.141599999999999966e+02
-2.376999999999999957e+01
1.281000000000000050e+01
7.032999999999999829e+01
-1.780000000000000027e+00
-4.042000000000000171e+01
-1.870000000000000107e+00
7.018999999999999773e+01
7.231999999999999318e+01
4.949000000000000199e+01
-1.215199999999999960e+02
-1.896999999999999886e+01
7.182999999999999829e+01
9.831999999999999318e+01
-5.271999999999999886e+01
5.478999999999999915e+01
1.408000000000000007e+01
-3.900999999999999801e+01
1.457000000000000028e+01
1.110999999999999943e+01
-2.580999999999999872e+01
7.759999999999999787e+00
1.266000000000000014e+01
6.200000000000000178e+00
6.587000000000000455e+01
1.887700000000000102e+02
-2.033000000000000114e+02
-4.117099999999999795e+02
1.204099999999999966e+02
1.695600000000000023e+02
-2.114000000000000057e+01
2.625000000000000000e+01
6.735999999999999943e+01
1.255300000000000011e+02
3.778000000000000114e+01
4.559000000000000341e+01
1.750000000000000000e+00
-1.701100000000000136e+02
2.992999999999999972e+01
5.488000000000000256e+01
-1.297000000000000064e+01
1.149000000000000021e+01
-1.522599999999999909e+02
-7.137000000000000455e+01
1.486800000000000068e+02
-1.980600000000000023e+02
-7.479000000000000625e+01
8.717000000000000171e+01
4.486999999999999744e+01
1.571000000000000085e+01
-5.713000000000000256e+01
-7.862000000000000455e+01
7.529999999999999716e+01
7.603000000000000114e+01
-1.265000000000000000e+02
-6.478000000000000114e+01
1.263000000000000078e+01
-4.060000000000000142e+01
1.028999999999999915e+01
2.855999999999999872e+01
0.000000000000000000e+00
-2.705999999999999872e+01
9.089999999999999858e+00
5.363000000000000256e+01
1.483000000000000007e+01
5.089000000000000057e+01
8.650000000000000000e+01
-6.940000000000000391e+00
-1.726999999999999957e+01
-9.467000000000000171e+01
1.308199999999999932e+02
-9.931999999999999318e+01
-2.113100000000000023e+02
4.521999999999999886e+01
-5.764000000000000057e+01
5.320000000000000284e+01
2.769999999999999929e+01
2.817999999999999972e+01
3.221100000000000136e+02
1.101700000000000017e+02
-2.514499999999999886e+02
8.662000000000000455e+01
3.782999999999999829e+01
-3.828999999999999915e+01
-8.980000000000000426e+00
4.634000000000000341e+01
4.665999999999999659e+01
6.849999999999999645e+00
7.665999999999999659e+01
1.102500000000000000e+02
-1.290000000000000000e+02
-2.447100000000000080e+02
4.975999999999999801e+01
1.717999999999999972e+01
-5.225999999999999801e+01
1.905900000000000034e+02
4.282999999999999829e+01
-1.565800000000000125e+02
-5.549999999999999822e+00
1.917000000000000171e+01
-3.210000000000000142e+01
-3.349000000000000199e+01
1.459099999999999966e+02
-2.582699999999999818e+02
4.740999999999999659e+01
-6.415000000000000568e+01
-9.479999999999999716e+01
2.829900000000000091e+02
8.730000000000000426e+00
-5.553999999999999915e+01
1.149000000000000021e+01
1.044500000000000028e+02
-1.483300000000000125e+02
-6.860000000000000320e+00
9.281000000000000227e+01
6.828000000000000114e+01
5.328999999999999915e+01
8.481999999999999318e+01
-3.652000000000000313e+01
6.378000000000000114e+01
-1.629999999999999893e+00
1.022999999999999972e+02
-2.139000000000000057e+01
-1.475000000000000000e+02
3.055000000000000071e+01
-4.179999999999999716e+01
3.481000000000000227e+01
6.818999999999999773e+01
1.744999999999999929e+01
-9.250000000000000000e+01
6.598999999999999488e+01
-2.390900000000000034e+02
7.737000000000000455e+01
2.101999999999999957e+01
2.250000000000000000e+01
-6.075000000000000000e+01
-2.557999999999999829e+01
1.450999999999999979e+01
-5.153999999999999915e+01
-6.884000000000000341e+01
-1.719999999999999929e+01
9.701000000000000512e+01
1.090799999999999983e+02
-3.804999999999999716e+01
5.889999999999999680e+00
-9.743999999999999773e+01
1.438600000000000136e+02
4.410000000000000142e+01
5.328999999999999915e+01
6.134000000000000341e+01
-1.999499999999999886e+02
1.533000000000000007e+01
6.921999999999999886e+01
-2.669999999999999929e+01
-6.870000000000000107e+00
5.710999999999999943e+01
1.500000000000000000e+00
3.584000000000000341e+01
-7.600000000000000000e+01
-2.392999999999999972e+01
7.989000000000000057e+01
7.157999999999999829e+01
-2.628999999999999915e+01
5.122999999999999687e+01
-1.734699999999999989e+02
1.714000000000000057e+01
7.309999999999999432e+01
-1.117999999999999972e+01
-1.578999999999999915e+01
-1.049599999999999937e+02
1.414600000000000080e+02
6.019999999999999574e+00
5.395000000000000284e+01
-1.152099999999999937e+02
-9.830000000000000071e+00
5.700000000000000000e+01
-6.250000000000000000e+00
6.904000000000000625e+01
-6.898000000000000398e+01
4.075000000000000000e+01
1.228999999999999915e+01
-4.307999999999999829e+01
5.309999999999999609e+00
-2.403999999999999915e+01
-2.419000000000000128e+01
5.720000000000000284e+01
6.415999999999999659e+01
7.676000000000000512e+01
-1.081800000000000068e+02
-1.605200000000000102e+02
1.335099999999999909e+02
-1.064899999999999949e+02
6.529999999999999716e+01
-1.695699999999999932e+02
-9.631999999999999318e+01
8.706999999999999318e+01
5.450000000000000178e+00
-7.459999999999999964e+00
-8.156999999999999318e+01
-8.730000000000000426e+00
4.290999999999999659e+01
1.005100000000000051e+02
-8.451000000000000512e+01
-1.605099999999999909e+02
5.610000000000000320e+00
2.821999999999999886e+01
-9.134999999999999432e+01
7.000000000000000000e+01
3.974000000000000199e+01
-7.081000000000000227e+01
-8.889000000000000057e+01
7.673000000000000398e+01
2.882999999999999829e+01
1.288000000000000078e+01
2.576000000000000156e+01
-7.370000000000000107e+00
-1.030000000000000071e+01
-1.703999999999999915e+01
2.366000000000000014e+01
1.860000000000000098e+00
1.787000000000000099e+01
3.978999999999999915e+01
-1.100499999999999972e+02
6.451999999999999602e+01
9.406999999999999318e+01
-1.664999999999999858e+01
2.535999999999999943e+01
-1.211899999999999977e+02
-2.000000000000000000e+01
-7.712000000000000455e+01
-3.135099999999999909e+02
2.175300000000000011e+02
-8.378000000000000114e+01
1.480200000000000102e+02
-4.643999999999999773e+01
6.338000000000000256e+01
-6.357000000000000028e+01
6.776000000000000512e+01
5.610999999999999943e+01
-1.276899999999999977e+02
-1.617500000000000000e+02
5.453899999999999864e+02
3.728000000000000114e+01
2.567000000000000171e+01
-2.848600000000000136e+02
-2.580000000000000071e+01
2.353499999999999943e+02
9.051999999999999602e+01
-2.862599999999999909e+02
1.730300000000000011e+02
6.530000000000000249e+00
-5.353000000000000114e+01
2.483999999999999986e+01
1.419499999999999886e+02
-4.165999999999999659e+01
-2.782999999999999829e+01
5.561999999999999744e+01
-4.250999999999999801e+01
8.554000000000000625e+01
8.000000000000000000e+00
5.389000000000000057e+01
2.067999999999999972e+01
2.080999999999999872e+01
-7.321999999999999886e+01
-7.226000000000000512e+01
-1.018900000000000006e+02
2.835000000000000142e+01
7.260999999999999943e+01
5.092000000000000171e+01
-1.524199999999999875e+02
-3.850000000000000089e+00
6.893999999999999773e+01
-1.144999999999999929e+01
-6.534000000000000341e+01
-1.969999999999999929e+01
3.821000000000000085e+01
2.942999999999999972e+01
2.978999999999999915e+01
-8.328000000000000114e+01
3.486999999999999744e+01
3.492999999999999972e+01
-4.150000000000000000e+01
6.153999999999999915e+01
7.031999999999999318e+01
-7.154000000000000625e+01
3.135000000000000142e+01
-8.178000000000000114e+01
1.423000000000000043e+01
1.666899999999999977e+02
-3.571000000000000085e+01
5.428000000000000114e+01
1.116500000000000057e+02
-5.617999999999999972e+01
-2.989599999999999795e+02
4.699000000000000199e+01
-7.664000000000000057e+01
2.194000000000000057e+02
-6.782999999999999829e+01
-1.333499999999999943e+02
-1.315800000000000125e+02
2.917999999999999972e+01
-8.240000000000000568e+01
7.299999999999999822e+00
-1.350000000000000089e+00
4.011999999999999744e+01
3.310000000000000053e+00
7.625000000000000000e+01
-9.593000000000000682e+01
-3.430000000000000160e+00
2.930899999999999750e+02
-3.325899999999999750e+02
1.839399999999999977e+02
2.010000000000000142e+01
-9.604999999999999716e+01
3.278000000000000114e+01
1.426899999999999977e+02
-6.706000000000000227e+01
-4.195000000000000284e+01
-1.415000000000000036e+01
2.448999999999999844e+01
6.404000000000000625e+01
4.081000000000000227e+01
-7.765000000000000568e+01
-3.260999999999999943e+01
-3.609999999999999876e+00
-4.110000000000000320e+00
-9.189999999999999503e+00
2.626000000000000156e+01
7.648999999999999488e+01
-1.245499999999999972e+02
-9.601000000000000512e+01
2.269499999999999886e+02
7.495000000000000284e+01
-5.997999999999999687e+01
3.335999999999999943e+01
-8.550000000000000711e+00
-7.245000000000000284e+01
2.533100000000000023e+02
-1.323000000000000043e+01
-9.993999999999999773e+01
-1.108999999999999986e+01
4.136999999999999744e+01
5.603999999999999915e+01
-1.015000000000000036e+01
-4.396999999999999886e+01
3.639000000000000057e+01
-3.910999999999999943e+01
-1.351299999999999955e+02
6.789000000000000057e+01
4.125000000000000000e+01
-9.470000000000000639e+00
-1.293199999999999932e+02
-8.487999999999999545e+01
-7.184000000000000341e+01
-4.888000000000000256e+01
2.074799999999999898e+02
1.854799999999999898e+02
3.586999999999999744e+01
-2.126000000000000156e+01
5.104999999999999716e+01
9.823000000000000398e+01
-3.425000000000000000e+01
-1.522199999999999989e+02
-2.841000000000000014e+01
2.796000000000000085e+01
-8.240000000000000213e+00
-8.239000000000000057e+01
2.248999999999999844e+01
-5.804999999999999716e+01
-2.282999999999999829e+01
6.801000000000000512e+01
-3.745000000000000284e+01
3.135999999999999943e+01
-1.000000000000000021e-02
-2.825000000000000000e+01
-2.950000000000000178e+00
2.410000000000000142e+00
-2.289000000000000057e+01
3.795000000000000284e+01
6.629999999999999893e+00
-2.479999999999999982e+00
-2.867999999999999972e+01
3.389999999999999858e+01
3.985000000000000142e+01
8.628000000000000114e+01
-9.185999999999999943e+01
-3.055999999999999872e+01
-5.439000000000000057e+01
-1.714000000000000057e+01
-2.530000000000000071e+01
7.265999999999999659e+01
1.176500000000000057e+02
-1.265199999999999960e+02
-2.675500000000000114e+02
1.455200000000000102e+02
4.721999999999999886e+01
7.007999999999999829e+01
-5.704999999999999716e+01
3.424000000000000199e+01
9.550000000000000000e+01
-1.258499999999999943e+02
-6.139999999999999680e+00
-3.703999999999999915e+01
-1.830000000000000071e+00
-2.571999999999999886e+01
2.119000000000000128e+01
7.950000000000000178e+00
-1.019300000000000068e+02
9.951999999999999602e+01
-1.001200000000000045e+02
-5.750000000000000000e+00
1.306699999999999875e+02
-1.548000000000000114e+02
-2.346500000000000057e+02
-1.177999999999999936e+01
-1.109399999999999977e+02
1.490300000000000011e+02
-8.998999999999999488e+01
-2.650000000000000000e+01
2.141000000000000014e+01
-1.883999999999999986e+01
-2.769000000000000128e+01
-3.964999999999999858e+01
2.937999999999999901e+01
7.719999999999999751e+00
-4.685999999999999943e+01
-1.043599999999999994e+02
3.169000000000000128e+01
4.815999999999999659e+01
-4.163000000000000256e+01
-2.957999999999999829e+01
9.240999999999999659e+01
1.442999999999999972e+01
5.686999999999999744e+01
7.654000000000000625e+01
-1.199599999999999937e+02
-5.354999999999999716e+01
6.839999999999999858e+00
8.734000000000000341e+01
-7.070000000000000284e+01
2.146999999999999886e+01
-8.118000000000000682e+01
1.381100000000000136e+02
-1.120799999999999983e+02
9.187999999999999545e+01
8.901000000000000512e+01
-6.506999999999999318e+01
-4.872999999999999687e+01
8.212999999999999545e+01
1.571899999999999977e+02
-4.497999999999999687e+01
6.118999999999999773e+01
1.593999999999999950e+01
-9.334000000000000341e+01
-1.438000000000000078e+01
7.381000000000000227e+01
5.725000000000000000e+01
-3.589000000000000057e+01
3.453000000000000114e+01
-2.194999999999999929e+01
-4.574000000000000199e+01
1.286100000000000136e+02
-6.720000000000000284e+01
5.046000000000000085e+01
2.328999999999999915e+01
-3.203000000000000114e+01
-2.196800000000000068e+02
1.147000000000000064e+01
7.662999999999999545e+01
1.324499999999999886e+02
-1.133599999999999994e+02
6.509999999999999432e+01
2.569999999999999929e+01
-1.599799999999999898e+02
1.620500000000000114e+02
-1.965500000000000114e+02
-2.153400000000000034e+02
2.174199999999999875e+02
6.015999999999999659e+01
8.121999999999999886e+01
-3.870000000000000284e+01
5.550000000000000000e+01
3.640000000000000124e+00
-7.393999999999999773e+01
-2.526999999999999957e+01
5.236999999999999744e+01
4.339999999999999858e+01
7.742000000000000171e+01
5.536999999999999744e+01
7.246999999999999886e+01
-6.454000000000000625e+01
-1.565399999999999920e+02
-2.608299999999999841e+02
2.554199999999999875e+02
1.144500000000000028e+02
7.223999999999999488e+01
-1.577800000000000011e+02
3.745000000000000284e+01
-2.133999999999999986e+01
1.352400000000000091e+02
-2.439999999999999947e+00
5.157000000000000028e+01
-1.836899999999999977e+02
3.009999999999999787e+00
9.198000000000000398e+01
-3.900000000000000000e+01
-2.635000000000000142e+01
4.570000000000000284e+01
-1.200400000000000063e+02
-2.647900000000000205e+02
1.770999999999999943e+02
2.109600000000000080e+02
-2.109699999999999989e+02
6.129999999999999893e+00
2.890500000000000114e+02
1.289199999999999875e+02
-1.585999999999999943e+02
-9.634000000000000341e+01
-2.660000000000000142e+01
-4.677000000000000313e+01
-1.300099999999999909e+02
1.096299999999999955e+02
-2.077500000000000000e+02
4.836299999999999955e+02
-1.480099999999999909e+02
-1.866200000000000045e+02
8.132999999999999829e+01
-4.522999999999999687e+01
-1.383000000000000007e+01
-4.403000000000000114e+01
-1.424399999999999977e+02
2.422400000000000091e+02
9.990999999999999659e+01
-1.000499999999999972e+02
-1.248599999999999994e+02
1.885999999999999943e+01
1.266299999999999955e+02
3.078199999999999932e+02
-8.848000000000000398e+01
2.227700000000000102e+02
-3.680299999999999727e+02
-1.167800000000000011e+02
-1.725900000000000034e+02
1.905600000000000023e+02
1.067000000000000028e+02
3.647999999999999687e+01
-7.415999999999999659e+01
-9.434999999999999432e+01
1.462100000000000080e+02
-9.773999999999999488e+01
1.011099999999999994e+02
-1.142999999999999972e+01
-5.610000000000000320e+00
1.116999999999999993e+01
3.290999999999999659e+01
1.182199999999999989e+02
1.391100000000000136e+02
-3.525000000000000000e+01
5.203999999999999915e+01
1.034800000000000040e+02
-3.508000000000000114e+02
-1.148599999999999994e+02
-5.134000000000000341e+01
-8.410000000000000142e+00
-1.841000000000000014e+01
1.286999999999999922e+01
-4.459999999999999964e+00
-2.412999999999999901e+01
2.464999999999999858e+01
-8.660000000000000142e+00
-1.363000000000000078e+01
-4.003999999999999915e+01
-1.776000000000000156e+01
3.789499999999999886e+02
-1.406699999999999875e+02
7.221999999999999886e+01
-1.094599999999999937e+02
1.321000000000000085e+01
7.229999999999999716e+01
2.275800000000000125e+02
-9.562999999999999545e+01
-4.446999999999999886e+01
6.336999999999999744e+01
4.918999999999999773e+01
2.285999999999999943e+01
1.264000000000000057e+01
1.300999999999999979e+01
-7.498000000000000398e+01
-2.030000000000000071e+01
-8.230000000000000426e+00
2.580000000000000071e+01
2.628000000000000114e+01
-1.266000000000000014e+01
-8.503000000000000114e+01
-6.812000000000000455e+01
5.299000000000000199e+01
-3.030000000000000071e+01
7.668000000000000682e+01
7.245000000000000284e+01
-5.270000000000000284e+01
7.371999999999999886e+01
2.696999999999999886e+01
4.847999999999999687e+01
-8.145000000000000284e+01
4.100999999999999801e+01
-5.175000000000000000e+01
4.389999999999999680e+00
3.014000000000000057e+01
-5.928000000000000114e+01
2.742000000000000171e+01
3.417000000000000171e+01
-1.293999999999999950e+01
-1.058299999999999983e+02
1.919999999999999929e+01
-1.835999999999999943e+01
1.095000000000000000e+02
5.379999999999999716e+01
-6.175000000000000000e+01
-5.632999999999999829e+01
-2.412000000000000099e+01
6.929999999999999716e+00
-1.017999999999999972e+01
2.651000000000000156e+01
2.950000000000000178e+00
-2.132000000000000028e+01
-8.419999999999999929e+00
5.490000000000000213e+00
-1.892000000000000171e+01
3.667000000000000171e+01
-2.637999999999999901e+01
-5.400000000000000355e+00
8.800000000000000711e+00
1.710000000000000142e+01
-2.494999999999999929e+01
-2.508999999999999986e+01
1.939999999999999858e+01
1.639000000000000057e+01
6.040000000000000036e+00
2.759999999999999787e+00
2.296999999999999886e+01
-3.139999999999999858e+01
4.910999999999999943e+01
-1.675200000000000102e+02
2.720000000000000195e+00
2.566399999999999864e+02
-4.339999999999999858e+00
-1.289900000000000091e+02
-2.819000000000000128e+01
1.903000000000000114e+01
4.446999999999999886e+01
8.529000000000000625e+01
-9.003000000000000114e+01
-1.105499999999999972e+02
9.604000000000000625e+01
-3.931000000000000227e+01
-2.390000000000000124e+00
8.910999999999999943e+01
-2.012899999999999920e+02
-2.717999999999999972e+01
1.798999999999999844e+01
5.128000000000000114e+01
-1.084999999999999964e+01
-4.892000000000000171e+01
-7.614000000000000057e+01
1.104000000000000057e+02
3.660000000000000142e+00
-9.795999999999999375e+01
9.195999999999999375e+01
8.771999999999999886e+01
-7.576999999999999602e+01
-3.539000000000000057e+01
-8.623000000000000398e+01
1.851500000000000057e+02
-3.167000000000000171e+01
7.190000000000000568e+01
-2.855000000000000071e+01
-2.290000000000000000e+02
2.915600000000000023e+02
1.166299999999999955e+02
-8.359000000000000341e+01
-1.098700000000000045e+02
-2.812000000000000099e+01
-2.422500000000000000e+02
2.422400000000000091e+02
-7.234999999999999432e+01
1.065799999999999983e+02
-2.410000000000000142e+00
6.712000000000000455e+01
4.103999999999999915e+01
-3.277599999999999909e+02
-7.134000000000000341e+01
2.044300000000000068e+02
1.782000000000000028e+01
-3.834100000000000250e+02
1.288799999999999955e+02
1.730200000000000102e+02
8.251000000000000512e+01
1.768100000000000023e+02
-1.961399999999999864e+02
-3.138299999999999841e+02
-6.379999999999999893e+00
1.645900000000000034e+02
1.487299999999999898e+02
-7.006000000000000227e+01
-1.055000000000000071e+01
1.492899999999999920e+02
1.056000000000000050e+01
-1.942999999999999972e+01
1.810999999999999943e+01
1.967999999999999972e+01
-6.917000000000000171e+01
4.309000000000000341e+01
-9.323000000000000398e+01
7.729000000000000625e+01
-3.489000000000000057e+01
-8.880000000000000782e+00
2.400000000000000000e+01
3.913000000000000256e+01
2.087800000000000011e+02
-1.550099999999999909e+02
1.247000000000000064e+01
7.887999999999999545e+01
-3.553000000000000114e+01
-1.884399999999999977e+02
-9.800000000000000000e+01
1.181899999999999977e+02
1.008400000000000034e+02
1.346100000000000136e+02
-1.252000000000000028e+02
-3.563999999999999773e+02
-1.238100000000000023e+02
2.932099999999999795e+02
2.460200000000000102e+02
6.332000000000000028e+01
-2.480000000000000000e+02
1.003700000000000045e+02
-2.451000000000000156e+01
1.696000000000000085e+01
1.230900000000000034e+02
1.346500000000000057e+02
-1.361999999999999922e+01
2.160000000000000142e+00
-1.944600000000000080e+02
3.080000000000000071e+00
-6.260000000000000142e+01
-8.434000000000000341e+01
5.248500000000000227e+02
-3.119599999999999795e+02
-2.419000000000000057e+02
-8.132999999999999829e+01
1.219699999999999989e+02
1.174000000000000057e+02
2.927400000000000091e+02
-1.270999999999999943e+02
-4.907999999999999829e+01
1.983999999999999986e+01
-4.731000000000000227e+01
4.589999999999999858e+01
6.057000000000000028e+01
1.412100000000000080e+02
-1.326899999999999977e+02
4.820000000000000284e+00
4.235999999999999943e+01
-2.287000000000000099e+01
-8.276999999999999602e+01
-2.544000000000000128e+01
-5.346999999999999886e+01
2.060000000000000142e+01
1.000000000000000000e+00
-1.227099999999999937e+02
7.350000000000000000e+01
-6.077000000000000313e+01
4.042000000000000171e+01
-1.011999999999999922e+01
1.197300000000000040e+02
5.721000000000000085e+01
-1.632999999999999829e+01
-1.778000000000000114e+01
-5.667999999999999972e+01
1.234599999999999937e+02
-9.529999999999999361e+00
7.731999999999999318e+01
-1.939000000000000057e+01
-7.945999999999999375e+01
-2.167000000000000171e+01
5.793999999999999773e+01
5.150000000000000355e+00
-2.255999999999999872e+01
-1.546699999999999875e+02
9.182999999999999829e+01
2.033999999999999986e+01
3.638000000000000256e+01
-2.017999999999999972e+01
-6.110000000000000320e+00
-1.193999999999999950e+01
5.075000000000000000e+01
-4.009000000000000341e+01
-1.320999999999999943e+02
-1.141400000000000006e+02
2.683299999999999841e+02
3.371200000000000045e+02
-1.018400000000000034e+02
-2.157999999999999829e+01
5.695000000000000284e+01
-2.814999999999999858e+01
1.316899999999999977e+02
-1.899099999999999966e+02
-1.176700000000000017e+02
1.579099999999999966e+02
-9.467000000000000171e+01
4.165999999999999659e+01
-1.300000000000000044e-01
-2.589999999999999858e+00
-2.458999999999999986e+01
-2.332999999999999829e+01
2.894999999999999929e+01
-3.603999999999999915e+01
2.549999999999999822e+00
1.150000000000000000e+01
4.942999999999999972e+01
-1.209999999999999964e+00
-2.153000000000000114e+01
-4.071999999999999886e+01
-7.448999999999999488e+01
-1.106400000000000006e+02
3.547999999999999687e+01
5.834000000000000341e+01
1.889999999999999858e+01
1.157800000000000011e+02
-4.418999999999999773e+01
-1.085499999999999972e+02
-9.748999999999999488e+01
1.282299999999999898e+02
-1.905399999999999920e+02
-4.339999999999999858e+01
-1.746999999999999886e+02
2.471800000000000068e+02
-9.040999999999999659e+01
8.140000000000000568e+00
6.185000000000000142e+01
6.587000000000000455e+01
-3.843999999999999773e+01
2.700000000000000178e+00
3.514000000000000057e+01
9.419999999999999929e+00
-3.105000000000000071e+01
-1.154699999999999989e+02
1.045199999999999960e+02
7.704999999999999716e+01
-4.418999999999999773e+01
-4.628000000000000114e+01
4.809999999999999609e+00
-3.410999999999999943e+01
8.317000000000000171e+01
-6.626000000000000512e+01
2.539000000000000057e+01
-7.330000000000000071e+00
4.342000000000000171e+01
-2.300000000000000000e+01
6.019999999999999574e+00
7.512000000000000455e+01
-1.699999999999999956e+00
-6.269999999999999574e+00
-3.588000000000000256e+01
5.825000000000000000e+01
2.785999999999999943e+01
-4.192999999999999972e+01
6.296999999999999886e+01
3.209000000000000341e+01
-5.332999999999999829e+01
-5.768999999999999773e+01
-2.490300000000000011e+02
-1.461699999999999875e+02
3.435799999999999841e+02
1.101899999999999977e+02
-9.460000000000000853e+00
6.467000000000000171e+01
-1.698100000000000023e+02
9.634999999999999432e+01
1.155000000000000000e+02
-1.103799999999999955e+02
-1.527500000000000000e+02
-1.702599999999999909e+02
7.523999999999999488e+01
2.630000000000000071e+01
2.628999999999999915e+01
-4.557999999999999829e+01
-1.824300000000000068e+02
4.299000000000000199e+01
-1.499999999999999944e-01
-5.414999999999999858e+01
7.651999999999999602e+01
7.000000000000000000e+00
-7.470999999999999375e+01
-7.400000000000000355e+00
1.464000000000000057e+01
1.084000000000000057e+02
1.191099999999999994e+02
-6.165999999999999659e+01
-1.980999999999999872e+01
-3.014000000000000057e+01
5.554999999999999716e+01
-1.266000000000000014e+01
9.320000000000000284e+00
-2.100000000000000000e+01
-7.809999999999999609e+00
-3.540000000000000036e+00
9.830000000000000071e+00
-7.115000000000000568e+01
-9.012999999999999545e+01
-1.766000000000000014e+01
7.703000000000000114e+01
2.792300000000000182e+02
-8.775000000000000000e+01
-4.389999999999999858e+01
1.127999999999999936e+01
-5.215999999999999659e+01
2.930000000000000160e+00
7.129999999999999893e+00
5.635999999999999943e+01
9.419999999999999929e+00
3.536999999999999744e+01
-1.025999999999999979e+01
4.990999999999999659e+01
-3.060000000000000142e+01
-6.895000000000000284e+01
-2.107999999999999829e+01
1.721999999999999886e+01
3.243999999999999773e+01
-8.590000000000000568e+01
4.421000000000000085e+01
-8.300000000000000711e+00
2.019999999999999929e+01
7.570000000000000284e+00
-1.076999999999999957e+01
-2.312999999999999901e+01
9.599999999999999645e-01
-2.312999999999999901e+01
9.675000000000000000e+01
-1.680000000000000071e+01
2.567999999999999972e+01
-7.599999999999999645e+00
-3.290000000000000036e+00
1.660999999999999943e+01
-3.797999999999999687e+01
4.957999999999999829e+01
-7.780000000000000249e+00
3.507000000000000028e+01
5.674000000000000199e+01
-4.980000000000000426e+00
1.962000000000000099e+01
-7.790000000000000036e+00
3.972999999999999687e+01
6.379999999999999716e+01
1.491000000000000014e+01
5.064999999999999858e+01
-7.495000000000000284e+01
2.098000000000000043e+01
2.473000000000000043e+01
9.376999999999999602e+01
-2.712000000000000099e+01
-8.340999999999999659e+01
3.375999999999999801e+01
2.926000000000000156e+01
9.873000000000000398e+01
-7.993999999999999773e+01
-1.796999999999999886e+01
-1.033700000000000045e+02
7.635999999999999943e+01
4.325000000000000000e+01
-2.545300000000000011e+02
-5.109000000000000341e+01
4.340999999999999659e+01
-7.120000000000000107e+00
1.147000000000000064e+01
2.691000000000000014e+01
1.620699999999999932e+02
-3.714000000000000057e+01
4.179999999999999716e+01
3.727000000000000313e+01
-8.168000000000000682e+01
-1.361200000000000045e+02
1.211200000000000045e+02
-1.097600000000000051e+02
-1.680399999999999920e+02
4.279700000000000273e+02
3.037099999999999795e+02
-2.155099999999999909e+02
-5.077000000000000313e+01
-3.108999999999999986e+01
2.219999999999999929e+01
1.348400000000000034e+02
-7.959000000000000341e+01
4.940000000000000391e+00
-1.664999999999999858e+01
-4.469999999999999751e+00
7.204999999999999716e+01
2.578000000000000114e+01
-1.973000000000000043e+01
-2.243499999999999943e+02
5.899999999999999689e-01
9.245999999999999375e+01
1.270100000000000051e+02
-1.673999999999999844e+01
-4.406000000000000227e+01
3.859999999999999876e+00
1.063000000000000078e+01
1.489000000000000057e+01
-3.331000000000000227e+01
3.107000000000000028e+01
-3.760000000000000142e+01
5.442999999999999972e+01
-2.251000000000000156e+01
-2.492999999999999972e+01
1.565000000000000036e+01
-9.940000000000000568e+01
6.364000000000000057e+01
2.082999999999999829e+01
-4.213000000000000256e+01
7.200000000000000178e+00
2.867000000000000171e+01
-7.830000000000000071e+00
-2.689999999999999947e+00
-4.410000000000000142e+00
8.380000000000000782e+00
7.280000000000000249e+00
4.499000000000000199e+01
3.770000000000000018e+00
-2.882000000000000028e+01
3.475000000000000000e+01
2.451000000000000156e+01
-7.219999999999999751e+00
1.120000000000000107e+00
-8.660000000000000142e+00
4.297999999999999687e+01
-7.451999999999999602e+01
1.957100000000000080e+02
-1.588300000000000125e+02
-6.667000000000000171e+01
9.125000000000000000e+01
1.081599999999999966e+02
7.054000000000000625e+01
-5.057999999999999829e+01
-9.343000000000000682e+01
-5.825999999999999801e+01
-2.862999999999999901e+01
3.878000000000000114e+01
3.460000000000000142e+01
-1.541999999999999993e+01
3.367000000000000171e+01
9.669999999999999929e+00
4.252000000000000313e+01
-9.209000000000000341e+01
-2.534600000000000080e+02
-1.600099999999999909e+02
2.320099999999999909e+02
1.048100000000000023e+02
8.521999999999999886e+01
-9.173999999999999488e+01
4.828999999999999915e+01
-9.584999999999999432e+01
-8.700000000000000000e+01
1.403300000000000125e+02
5.067000000000000171e+01
-1.502100000000000080e+02
2.091599999999999966e+02
-2.289300000000000068e+02
1.800000000000000044e+00
4.532000000000000028e+01
5.306000000000000227e+01
-1.157699999999999960e+02
-9.196999999999999886e+01
4.728999999999999915e+01
-3.123000000000000043e+01
-6.768000000000000682e+01
-6.412000000000000455e+01
1.782999999999999829e+01
4.560999999999999943e+01
-2.985999999999999943e+01
2.458999999999999986e+01
1.225999999999999979e+01
3.064999999999999858e+01
5.639999999999999680e+00
6.776000000000000512e+01
3.575000000000000000e+01
-5.109000000000000341e+01
3.975000000000000000e+01
3.450000000000000000e+01
-5.575999999999999801e+01
-6.040000000000000036e+00
-1.373000000000000043e+01
-4.947999999999999687e+01
7.809999999999999432e+01
-1.273000000000000043e+01
-5.872999999999999687e+01
2.229999999999999982e+00
2.201999999999999957e+01
9.373000000000000398e+01
-1.283999999999999986e+01
-1.699999999999999956e+00
5.770000000000000284e+01
-1.283999999999999986e+01
6.111999999999999744e+01
1.439000000000000057e+01
4.825000000000000000e+01
-1.839999999999999858e+01
-3.784000000000000341e+01
2.082999999999999829e+01
1.910000000000000142e+01
-4.875000000000000000e+01
2.653999999999999915e+01
1.260999999999999943e+01
1.336999999999999922e+01
-4.820000000000000284e+00
-2.958999999999999986e+01
6.059999999999999609e+00
-2.221000000000000085e+01
1.019999999999999929e+01
5.999999999999999778e-01
-1.288600000000000136e+02
1.262999999999999972e+02
3.046000000000000085e+01
4.385999999999999943e+01
-1.919999999999999929e+01
6.060999999999999943e+01
5.900000000000000355e+00
-6.120000000000000107e+00
9.279999999999999361e+00
2.551000000000000156e+01
-7.849999999999999645e+00
2.330999999999999872e+01
-1.982999999999999829e+01
1.130799999999999983e+02
1.366000000000000014e+01
2.169999999999999929e+01
-5.121999999999999886e+01
-1.893400000000000034e+02
-4.567000000000000171e+01
3.121299999999999955e+02
-6.776999999999999602e+01
1.667999999999999972e+01
-3.482000000000000028e+01
-2.397899999999999920e+02
9.076000000000000512e+01
1.047000000000000028e+02
2.601999999999999957e+01
2.392000000000000171e+01
-5.853000000000000114e+01
1.040000000000000036e+00
4.192000000000000171e+01
3.742000000000000171e+01
-1.887999999999999901e+01
-6.956999999999999318e+01
-1.049000000000000057e+02
-2.091399999999999864e+02
4.219499999999999886e+02
-1.178999999999999915e+01
-3.614999999999999858e+01
6.870000000000000107e+00
-4.772999999999999687e+01
-5.534000000000000341e+01
-3.447999999999999687e+01
4.706000000000000227e+01
-2.529999999999999805e+00
-1.535999999999999943e+01
7.646999999999999886e+01
1.030000000000000027e+00
-1.030900000000000034e+02
1.730999999999999872e+01
5.349999999999999645e+00
-6.440000000000000391e+00
-1.090000000000000080e+00
2.975000000000000000e+01
-3.129999999999999893e+00
4.525999999999999801e+01
4.518999999999999773e+01
-2.403000000000000114e+01
1.011700000000000017e+02
5.768999999999999773e+01
9.643999999999999773e+01
-3.496499999999999773e+02
1.021200000000000045e+02
6.631000000000000227e+01
-8.015000000000000568e+01
-1.303799999999999955e+02
2.005399999999999920e+02
-1.723799999999999955e+02
3.353700000000000045e+02
7.520999999999999375e+01
-2.298400000000000034e+02
-2.987699999999999818e+02
1.269599999999999937e+02
2.999700000000000273e+02
-1.009099999999999966e+02
-1.494199999999999875e+02
-6.740000000000000213e+00
-1.256000000000000050e+01
5.146000000000000085e+01
-1.125999999999999979e+01
-2.057999999999999829e+01
-1.330000000000000071e+01
-3.607000000000000028e+01
-7.559999999999999609e+00
3.078999999999999915e+01
1.046000000000000085e+01
-7.669999999999999929e+00
3.749000000000000199e+01
1.229999999999999982e+00
-3.060000000000000053e+00
-7.250000000000000000e+00
9.300000000000000488e-01
7.790000000000000036e+00
-9.539999999999999147e+00
1.429999999999999938e+00
-7.589999999999999858e+00
-1.099000000000000021e+01
3.180000000000000160e+00
1.134999999999999964e+01
-3.120000000000000107e+00
-1.333999999999999986e+01
3.210000000000000142e+01
9.271999999999999886e+01
-7.559999999999999609e+00
-9.268999999999999773e+01
-5.228999999999999915e+01
-6.759000000000000341e+01
-8.915000000000000568e+01
1.300500000000000114e+02
2.712000000000000099e+01
2.776999999999999957e+01
1.566999999999999993e+01
-2.632999999999999829e+01
1.572000000000000064e+01
-3.082000000000000028e+01
-8.299999999999999600e-01
-1.310000000000000053e+00
7.546999999999999886e+01
2.887999999999999901e+01
-2.889000000000000057e+01
-1.362100000000000080e+02
1.603899999999999864e+02
-1.498400000000000034e+02
-5.379999999999999716e+01
5.075999999999999801e+01
-3.242000000000000171e+01
8.162999999999999545e+01
5.022999999999999687e+01
-5.179999999999999716e+01
-3.080999999999999872e+01
-2.196999999999999886e+01
5.349999999999999645e+00
1.661500000000000057e+02
-1.635999999999999943e+01
-6.520000000000000284e+01
-3.536999999999999744e+01
8.209999999999999432e+01
-5.435000000000000142e+01
-2.735999999999999943e+01
8.451000000000000512e+01
-1.097000000000000028e+02
5.039999999999999858e+01
1.998499999999999943e+02
-1.315600000000000023e+02
-9.400000000000000000e+01
-1.575999999999999979e+01
1.032099999999999937e+02
1.653199999999999932e+02
-1.021599999999999966e+02
-7.431999999999999318e+01
1.384600000000000080e+02
-5.815999999999999659e+01
-2.410000000000000142e+00
1.083999999999999986e+01
4.669999999999999929e+00
-1.689999999999999858e+01
2.121999999999999886e+01
1.839000000000000057e+01
4.150999999999999801e+01
-6.128999999999999915e+01
-2.779999999999999805e+00
-3.080000000000000071e+01
6.093999999999999773e+01
3.470000000000000195e+00
-3.964000000000000057e+01
1.268599999999999994e+02
2.810000000000000053e+00
1.622599999999999909e+02
-4.678999999999999915e+01
-1.106899999999999977e+02
1.055199999999999960e+02
-2.344600000000000080e+02
-7.176999999999999602e+01
1.018299999999999983e+02
2.534000000000000057e+02
-5.424000000000000199e+01
-2.164000000000000057e+01
3.342000000000000171e+01
-9.887000000000000455e+01
1.528999999999999915e+01
7.485999999999999943e+01
4.056000000000000227e+01
-3.782999999999999829e+01
8.281000000000000227e+01
1.004200000000000017e+02
-6.090999999999999659e+01
1.173799999999999955e+02
-1.179899999999999949e+02
-8.220000000000000284e+01
-4.703000000000000114e+01
-1.588499999999999943e+02
1.447899999999999920e+02
9.012000000000000455e+01
1.015100000000000051e+02
1.784600000000000080e+02
2.728000000000000114e+01
-2.945299999999999727e+02
-3.352000000000000313e+01
1.208799999999999955e+02
2.551999999999999957e+01
-8.770999999999999375e+01
6.926999999999999602e+01
-5.850000000000000000e+01
1.644999999999999929e+01
-1.336999999999999922e+01
1.449999999999999956e+00
1.389999999999999902e+00
-1.332000000000000028e+01
-2.132000000000000028e+01
1.392999999999999972e+01
1.732999999999999829e+01
-2.589000000000000057e+01
-3.600000000000000089e+00
5.290000000000000036e+00
-1.348000000000000043e+01
-9.970000000000000639e+00
1.957000000000000028e+01
-9.560000000000000497e+00
-1.010999999999999943e+01
1.805999999999999872e+01
-2.270000000000000018e+00
1.050000000000000044e+00
1.315000000000000036e+01
-2.121000000000000085e+01
-9.499999999999999556e-01
-3.339999999999999858e+00
-9.519999999999999574e+00
1.790000000000000036e+00
1.074000000000000021e+01
-1.959999999999999964e+00
-2.073000000000000043e+01
2.283999999999999986e+01
-9.550000000000000711e+00
-4.017000000000000171e+01
6.242000000000000171e+01
9.756999999999999318e+01
1.787000000000000099e+01
6.040000000000000036e+00
-4.506000000000000227e+01
-1.458999999999999986e+01
-2.550000000000000000e+01
7.759999999999999787e+00
7.150000000000000000e+01
5.359000000000000341e+01
3.281000000000000227e+01
-8.362000000000000455e+01
-3.051999999999999957e+01
3.672999999999999687e+01
-1.836899999999999977e+02
2.753999999999999915e+01
-6.220000000000000284e+01
1.360000000000000098e+00
1.835800000000000125e+02
1.075000000000000000e+01
-9.220999999999999375e+01
-2.816399999999999864e+02
9.034000000000000341e+01
2.002199999999999989e+02
-8.298000000000000398e+01
-4.879999999999999716e+01
7.190000000000000391e+00
-5.296000000000000085e+01
-9.769999999999999574e+00
1.471899999999999977e+02
-8.869999999999999218e+00
-6.267999999999999972e+01
7.250000000000000000e+00
-1.728000000000000114e+01
-2.450000000000000178e+00
-1.048000000000000043e+01
-2.529999999999999805e+00
6.078000000000000114e+01
-3.700000000000000178e+00
-1.007000000000000028e+01
3.577000000000000313e+01
9.240000000000000213e+00
-2.139000000000000057e+01
-4.061999999999999744e+01
9.192000000000000171e+01
2.433999999999999986e+01
5.982999999999999829e+01
-3.803000000000000114e+01
9.493000000000000682e+01
7.089000000000000057e+01
-4.622999999999999687e+01
6.203999999999999915e+01
-3.236999999999999744e+01
1.137900000000000063e+02
-1.251999999999999957e+01
-1.976999999999999957e+01
1.816000000000000014e+01
-4.540000000000000036e+00
-3.775000000000000000e+01
2.491000000000000014e+01
9.100000000000000311e-01
4.010000000000000142e+01
5.503999999999999915e+01
-8.259999999999999432e+01
-1.600000000000000000e+01
1.066000000000000014e+01
1.484999999999999964e+01
-2.209999999999999964e+00
-1.009999999999999964e+01
-8.960000000000000853e+00
-1.939999999999999947e+00
-4.000000000000000222e-01
-9.039999999999999147e+00
-2.939999999999999947e+00
-3.900000000000000133e-01
-3.109999999999999876e+00
-4.419999999999999929e+00
1.780000000000000027e+00
-6.800000000000000488e-01
-4.209999999999999964e+00
-8.999999999999999667e-02
5.799999999999999600e-01
-1.189999999999999947e+00
-2.310000000000000053e+00
4.030000000000000249e+00
5.500000000000000444e-01
-9.899999999999999911e-01
3.779999999999999805e+00
-6.300000000000000044e-01
-3.720000000000000195e+00
1.629999999999999893e+00
9.899999999999999911e-01
-2.220000000000000195e+00
1.889999999999999902e+00
4.099999999999999756e-01
3.040000000000000036e+00
-1.989999999999999991e+00
-1.233999999999999986e+01
-6.932999999999999829e+01
-1.338899999999999864e+02
1.757899999999999920e+02
1.383000000000000007e+01
-1.380600000000000023e+02
2.127599999999999909e+02
-1.147800000000000011e+02
5.821000000000000085e+01
-1.246599999999999966e+02
1.269000000000000057e+02
7.729999999999999716e+01
-4.804999999999999716e+01
-3.634000000000000341e+01
-1.447000000000000064e+01
-6.759999999999999787e+00
-6.349999999999999645e+00
3.934000000000000341e+01
-1.762999999999999901e+01
-5.121999999999999886e+01
8.919999999999999929e+00
3.399000000000000199e+01
4.700000000000000178e+00
-4.961999999999999744e+01
2.862999999999999901e+01
3.021999999999999886e+01
-4.918999999999999773e+01
2.746999999999999886e+01
3.289999999999999858e+01
-5.842000000000000171e+01
-4.371999999999999886e+01
7.596999999999999886e+01
3.310999999999999943e+01
-5.810999999999999943e+01
1.553999999999999915e+01
5.040999999999999659e+01
5.878200000000000500e+02
-3.110600000000000023e+02
-2.301000000000000156e+01
-9.284999999999999432e+01
-7.754000000000000625e+01
-2.075000000000000000e+01
-2.707000000000000028e+01
3.817000000000000171e+01
8.178000000000000114e+01
7.993999999999999773e+01
-1.578300000000000125e+02
-7.284000000000000341e+01
1.219999999999999929e+01
4.850000000000000000e+01
-4.646999999999999886e+01
-8.215999999999999659e+01
-2.138799999999999955e+02
-3.753199999999999932e+02
3.766499999999999773e+02
1.203900000000000006e+02
2.946999999999999886e+02
9.215999999999999659e+01
-9.860999999999999943e+01
-7.062000000000000455e+01
3.270000000000000018e+00
9.618999999999999773e+01
5.940999999999999659e+01
-5.814000000000000057e+01
-1.380000000000000071e+01
-1.885000000000000142e+01
-3.108999999999999986e+01
8.115000000000000568e+01
9.580000000000000071e+00
-6.593000000000000682e+01
-9.519999999999999574e+00
1.482000000000000028e+01
-1.484999999999999964e+01
8.949999999999999289e+00
3.709999999999999964e+00
-1.982999999999999829e+01
8.130000000000000782e+00
3.540000000000000036e+00
-1.441000000000000014e+01
3.020000000000000018e+00
7.540000000000000036e+00
-1.566000000000000014e+01
-6.300000000000000044e-01
5.540000000000000036e+00
-8.710000000000000853e+00
-1.006000000000000050e+01
1.474000000000000021e+01
1.639999999999999902e+00
-1.610000000000000142e+01
1.314000000000000057e+01
5.040000000000000036e+00
-1.771000000000000085e+01
1.319999999999999929e+01
1.190000000000000036e+01
-5.620000000000000107e+00
-6.929999999999999716e+00
1.181000000000000050e+01
3.680000000000000160e+00
-1.326999999999999957e+01
1.510999999999999943e+01
7.660000000000000142e+00
-7.900000000000000355e+00
-5.120000000000000107e+00
1.140000000000000036e+01
2.580000000000000071e+00
-1.892999999999999972e+01
1.008000000000000007e+01
9.750000000000000000e+00
-5.910000000000000142e+00
-5.889999999999999680e+00
9.470000000000000639e+00
6.600000000000000311e-01
-2.330000000000000071e+01
9.910000000000000142e+00
9.900000000000000355e+00
-9.220000000000000639e+00
-3.759999999999999787e+00
1.151999999999999957e+01
-1.060000000000000053e+00
-2.198999999999999844e+01
1.258999999999999986e+01
7.330000000000000071e+00
-1.322000000000000064e+01
4.309999999999999609e+00
1.427999999999999936e+01
-5.589999999999999858e+00
-1.848000000000000043e+01
1.685000000000000142e+01
6.230000000000000426e+00
-2.030000000000000071e+01
1.119999999999999929e+01
1.169999999999999929e+01
-8.619999999999999218e+00
-1.699999999999999956e+00
1.536999999999999922e+01
1.590000000000000080e+00
-2.050000000000000000e+01
1.586999999999999922e+01
1.083000000000000007e+01
-7.519999999999999574e+00
-7.450000000000000178e+00
1.536999999999999922e+01
5.809999999999999609e+00
-1.531000000000000050e+01
1.155000000000000071e+01
8.650000000000000355e+00
-7.059999999999999609e+00
-9.750000000000000000e+00
9.820000000000000284e+00
4.030000000000000249e+00
-1.286999999999999922e+01
9.330000000000000071e+00
9.339999999999999858e+00
-4.299999999999999933e-01
-1.261999999999999922e+01
-3.023000000000000043e+01
4.943999999999999773e+01
3.053000000000000114e+01
3.140000000000000124e+00
-3.259999999999999787e+00
-1.910999999999999943e+01
6.110000000000000320e+00
8.509999999999999787e+00
-4.559999999999999609e+00
-9.179999999999999716e+00
4.269999999999999574e+00
1.669999999999999929e+01
-2.021999999999999886e+01
-9.699999999999999734e-01
2.019999999999999929e+01
-7.400000000000000355e+00
-1.830000000000000071e+00
9.240000000000000213e+00
-1.026999999999999957e+01
-1.310000000000000053e+00
4.410000000000000142e+00
-2.629999999999999893e+00
-1.862999999999999901e+01
1.419999999999999929e+01
4.969999999999999751e+00
-1.216000000000000014e+01
6.740000000000000213e+00
1.719999999999999973e+00
-2.876999999999999957e+01
-3.935000000000000142e+01
1.846100000000000136e+02
-1.391999999999999993e+01
1.070000000000000062e+00
-2.310000000000000053e+00
-4.052000000000000313e+01
-1.658300000000000125e+02
1.223599999999999994e+02
1.110999999999999943e+02
1.219999999999999973e+00
-3.824000000000000199e+01
2.114000000000000057e+01
7.309999999999999609e+00
-1.208199999999999932e+02
-1.910399999999999920e+02
8.545999999999999375e+01
1.026200000000000045e+02
7.587999999999999545e+01
-1.600000000000000033e-01
1.066999999999999993e+01
3.446999999999999886e+01
3.142000000000000171e+01
-8.900000000000000355e+00
-5.595000000000000284e+01
1.193999999999999950e+01
9.640000000000000568e+00
-1.467999999999999972e+01
-1.823999999999999844e+01
3.450000000000000178e+00
-6.600000000000000311e-01
-1.744000000000000128e+01
2.326000000000000156e+01
3.450000000000000178e+00
-2.010000000000000142e+01
2.300000000000000000e+01
6.400000000000000355e+00
-2.753000000000000114e+01
9.609999999999999432e+00
-4.400000000000000355e+00
-2.973000000000000043e+01
4.447999999999999687e+01
1.419999999999999929e+01
-2.541000000000000014e+01
-4.657000000000000028e+01
5.734000000000000341e+01
8.240999999999999659e+01
3.349000000000000199e+01
3.993999999999999773e+01
7.959999999999999964e+00
1.243999999999999950e+01
-2.667000000000000171e+01
-4.167000000000000171e+01
-1.912999999999999901e+01
9.681999999999999318e+01
2.363100000000000023e+02
-2.444000000000000057e+02
-2.623100000000000023e+02
-2.640099999999999909e+02
2.559300000000000068e+02
9.264000000000000057e+01
5.160999999999999943e+01
1.805999999999999872e+01
7.059000000000000341e+01
-4.456000000000000227e+01
-2.780999999999999872e+01
-1.036999999999999922e+01
1.036800000000000068e+02
-5.624000000000000199e+01
-4.292999999999999972e+01
7.645999999999999375e+01
-2.825299999999999727e+02
-6.601000000000000512e+01
1.625699999999999932e+02
5.989999999999999858e+01
-4.649000000000000199e+01
-4.395000000000000284e+01
2.960999999999999943e+01
8.653000000000000114e+01
1.554099999999999966e+02
-2.259499999999999886e+02
-4.910000000000000142e+00
-7.410000000000000142e+00
4.250000000000000000e+00
9.630000000000000782e+00
-8.820000000000000284e+00
4.160000000000000142e+00
2.192999999999999972e+01
-1.199999999999999956e-01
-1.080000000000000071e+00
2.000000000000000000e+00
-4.490000000000000213e+00
8.429999999999999716e+00
1.100999999999999979e+01
-5.719999999999999751e+00
2.979999999999999982e+00
1.744999999999999929e+01
-7.669999999999999929e+00
1.580000000000000071e+00
3.506000000000000227e+01
-2.055000000000000071e+01
-2.800000000000000000e+01
1.910000000000000142e+01
2.000000000000000000e+00
-2.805999999999999872e+01
2.091000000000000014e+01
1.266000000000000014e+01
-1.411999999999999922e+01
-1.739999999999999991e+00
1.027999999999999936e+01
-1.259999999999999964e+01
-1.960000000000000142e+01
1.536999999999999922e+01
3.379999999999999893e+00
-2.271000000000000085e+01
1.466999999999999993e+01
5.129999999999999893e+00
-1.941000000000000014e+01
5.059999999999999609e+00
1.291000000000000014e+01
-7.240000000000000213e+00
-1.839999999999999858e+01
2.317999999999999972e+01
3.810000000000000053e+00
-2.876999999999999957e+01
1.351999999999999957e+01
6.889999999999999680e+00
-1.732999999999999829e+01
4.500000000000000000e+00
1.567999999999999972e+01
-3.959999999999999964e+00
-2.457000000000000028e+01
2.185000000000000142e+01
9.470000000000000639e+00
-1.894000000000000128e+01
1.058000000000000007e+01
1.451999999999999957e+01
-8.210000000000000853e+00
-2.169999999999999929e+01
1.782000000000000028e+01
5.450000000000000178e+00
-2.378999999999999915e+01
1.424000000000000021e+01
1.592999999999999972e+01
-9.509999999999999787e+00
-2.467999999999999972e+01
2.058999999999999986e+01
6.610000000000000320e+00
-1.762000000000000099e+01
8.210000000000000853e+00
1.080000000000000071e+01
-1.069999999999999929e+01
-2.130000000000000071e+01
1.526999999999999957e+01
5.280000000000000249e+00
-2.196999999999999886e+01
1.281000000000000050e+01
1.173000000000000043e+01
-7.629999999999999893e+00
-1.217999999999999972e+01
1.578999999999999915e+01
4.980000000000000426e+00
-2.719000000000000128e+01
1.408999999999999986e+01
3.720000000000000195e+00
-1.978000000000000114e+01
8.089999999999999858e+00
1.612999999999999901e+01
7.110000000000000320e+00
-1.803000000000000114e+01
-7.919999999999999929e+00
1.544999999999999929e+01
-3.051999999999999957e+01
-1.953999999999999915e+01
1.812999999999999901e+01
1.415000000000000036e+01
2.989999999999999858e+01
3.400000000000000244e-01
-2.201999999999999957e+01
-1.355000000000000071e+01
1.769000000000000128e+01
-7.209999999999999964e+00
-1.871999999999999886e+01
1.712999999999999901e+01
3.446999999999999886e+01
-9.539999999999999147e+00
5.400000000000000355e-01
3.450000000000000178e+00
-4.120000000000000107e+00
-1.215000000000000036e+01
2.330000000000000071e+01
9.189999999999999503e+00
-2.691000000000000014e+01
1.165000000000000036e+01
7.280000000000000249e+00
-2.482000000000000028e+01
1.409999999999999964e+01
3.799999999999999822e+00
-2.776999999999999957e+01
4.599999999999999645e+00
1.165000000000000036e+01
-1.783999999999999986e+01
-9.439999999999999503e+00
1.553999999999999915e+01
6.899999999999999467e-01
-1.623999999999999844e+01
1.730999999999999872e+01
5.509999999999999787e+00
-1.493999999999999950e+01
1.550999999999999979e+01
5.509999999999999787e+00
-2.067999999999999972e+01
7.410000000000000142e+00
6.450000000000000178e+00
-1.383000000000000007e+01
1.377999999999999936e+01
1.274000000000000021e+01
-1.139000000000000057e+01
-2.330000000000000071e+00
6.610000000000000320e+00
-1.183000000000000007e+01
-1.100000000000000089e+00
1.689999999999999858e+01
-6.339999999999999858e+00
-1.492999999999999972e+01
2.510999999999999943e+01
-1.238000000000000078e+01
4.629999999999999893e+00
-1.782000000000000028e+01
-2.360000000000000142e+01
-4.515999999999999659e+01
2.655999999999999872e+01
1.036999999999999922e+01
-2.182000000000000028e+01
7.473000000000000398e+01
4.035999999999999943e+01
-3.053999999999999915e+01
-1.725000000000000000e+01
2.010999999999999943e+01
1.306000000000000050e+01
1.919999999999999929e+00
-2.592999999999999972e+01
1.001999999999999957e+01
9.740000000000000213e+00
-2.126999999999999957e+01
7.540000000000000036e+00
6.219999999999999751e+00
-2.560999999999999943e+01
2.250000000000000000e+01
1.628999999999999915e+01
-1.333000000000000007e+01
-1.169999999999999929e+00
1.392999999999999972e+01
-3.189999999999999947e+00
-8.750000000000000000e+00
1.521000000000000085e+01
-1.600000000000000033e-01
-2.785999999999999943e+01
-1.110000000000000098e+00
-6.549999999999999822e+00
-4.679999999999999716e+00
1.599000000000000021e+01
7.129999999999999893e+00
-7.830000000000000071e+00
1.755999999999999872e+01
1.310999999999999943e+01
-2.307000000000000028e+01
1.477999999999999936e+01
4.400000000000000022e-01
-6.950000000000000178e+00
-9.550000000000000711e+00
2.248000000000000043e+01
5.559999999999999609e+00
-7.559999999999999609e+00
7.419999999999999929e+00
5.070000000000000284e+00
-1.032000000000000028e+01
-1.516000000000000014e+01
1.100999999999999979e+01
-1.870000000000000107e+00
-2.578999999999999915e+01
1.248000000000000043e+01
3.200000000000000178e+00
-1.542999999999999972e+01
9.699999999999999289e+00
8.029999999999999361e+00
-9.779999999999999361e+00
-1.594999999999999929e+01
1.272000000000000064e+01
-5.999999999999999778e-01
-2.171000000000000085e+01
1.211999999999999922e+01
3.819999999999999840e+00
-1.935000000000000142e+01
2.019000000000000128e+01
1.698999999999999844e+01
-1.144999999999999929e+01
-5.900000000000000355e+00
1.987000000000000099e+01
3.300000000000000155e-01
-2.251000000000000156e+01
2.587000000000000099e+01
8.150000000000000355e+00
-6.089999999999999858e+00
-6.500000000000000000e+00
1.182000000000000028e+01
6.199999999999999956e-01
-2.776999999999999957e+01
1.503999999999999915e+01
9.189999999999999503e+00
-9.500000000000000000e+00
1.600000000000000089e+00
1.023000000000000043e+01
-1.147000000000000064e+01
-2.196000000000000085e+01
1.561999999999999922e+01
1.146000000000000085e+01
-1.502999999999999936e+01
7.509999999999999787e+00
1.457000000000000028e+01
-7.700000000000000178e+00
-6.080000000000000071e+00
1.263000000000000078e+01
1.689999999999999947e+00
-1.556000000000000050e+01
5.660000000000000142e+00
-6.889999999999999680e+00
-1.149999999999999911e+00
4.559999999999999609e+00
4.280000000000000249e+00
-1.536999999999999922e+01
1.090000000000000080e+00
1.311999999999999922e+01
-4.790000000000000036e+00
-8.679999999999999716e+00
1.944000000000000128e+01
2.839999999999999858e+00
-1.889000000000000057e+01
1.580000000000000071e+01
7.410000000000000142e+00
-2.025000000000000000e+01
1.052999999999999936e+01
1.014000000000000057e+01
-1.150000000000000000e+01
1.250000000000000000e+00
1.435999999999999943e+01
-4.030000000000000249e+00
-2.310999999999999943e+01
5.839999999999999858e+00
-1.248000000000000043e+01
-2.246999999999999886e+01
1.550999999999999943e+02
-1.876100000000000136e+02
-3.026000000000000156e+01
-3.187000000000000099e+01
-1.000999999999999979e+01
7.299999999999999822e+00
2.680000000000000071e+01
1.953999999999999915e+01
6.429999999999999716e+00
6.726000000000000512e+01
-2.198000000000000043e+01
-7.418000000000000682e+01
-6.093999999999999773e+01
-7.900000000000000355e+00
3.707999999999999829e+01
3.829999999999999716e+01
-2.032800000000000011e+02
-8.234999999999999432e+01
5.803000000000000114e+01
7.996999999999999886e+01
1.444000000000000057e+02
-3.051999999999999957e+01
7.426999999999999602e+01
-3.396999999999999886e+01
3.289999999999999858e+01
-4.482000000000000028e+01
-2.962999999999999901e+01
-6.756999999999999318e+01
5.460000000000000142e+01
-5.530000000000000249e+00
-5.799999999999999600e-01
3.289999999999999858e+01
-1.850000000000000000e+01
-6.601000000000000512e+01
1.085999999999999943e+01
7.800000000000000266e-01
-9.919999999999999929e+00
1.575999999999999979e+01
2.664999999999999858e+01
9.410000000000000142e+00
-4.025999999999999801e+01
1.110999999999999943e+01
1.119999999999999929e+01
-1.832000000000000028e+01
1.056000000000000050e+01
1.341000000000000014e+01
2.870000000000000107e+00
-1.807000000000000028e+01
1.998000000000000043e+01
1.246000000000000085e+01
-1.013000000000000078e+01
6.750000000000000000e+00
8.830000000000000071e+00
-3.069999999999999840e+00
-1.946999999999999886e+01
1.516000000000000014e+01
6.049999999999999822e+00
-2.262999999999999901e+01
9.039999999999999147e+00
1.077999999999999936e+01
-8.720000000000000639e+00
-2.369000000000000128e+01
2.914999999999999858e+01
3.359999999999999876e+00
-3.378000000000000114e+01
1.436999999999999922e+01
1.035999999999999943e+01
-1.543999999999999950e+01
-7.099999999999999645e-01
1.440000000000000036e+01
-4.089999999999999858e+00
-2.450000000000000000e+01
1.855999999999999872e+01
1.889999999999999902e+00
-2.414000000000000057e+01
1.475999999999999979e+01
1.347000000000000064e+01
-2.373999999999999844e+01
-4.219999999999999751e+00
2.485000000000000142e+01
5.999999999999999778e-02
-3.221000000000000085e+01
1.910999999999999943e+01
1.614999999999999858e+01
-9.960000000000000853e+00
9.550000000000000711e+00
1.953000000000000114e+01
3.390000000000000124e+00
-2.944999999999999929e+01
1.828999999999999915e+01
7.910000000000000142e+00
-1.566000000000000014e+01
4.699999999999999734e-01
1.108000000000000007e+01
-6.089999999999999858e+00
-2.423999999999999844e+01
1.517999999999999972e+01
5.809999999999999609e+00
-1.798999999999999844e+01
1.021000000000000085e+01
-2.529999999999999805e+00
5.899999999999999689e-01
-7.830000000000000071e+00
1.275000000000000000e+01
-6.009999999999999787e+00
-2.703999999999999915e+01
1.914000000000000057e+01
1.238000000000000078e+01
-1.407000000000000028e+01
1.605000000000000071e+01
1.182000000000000028e+01
-9.039999999999999147e+00
-9.269999999999999574e+00
1.666000000000000014e+01
6.419999999999999929e+00
-2.112000000000000099e+01
-1.100000000000000006e-01
-1.100000000000000000e+01
-1.202999999999999936e+01
1.140000000000000036e+01
9.740000000000000213e+00
-9.150000000000000355e+00
-1.649999999999999911e+00
1.493999999999999950e+01
1.202999999999999936e+01
-2.378999999999999915e+01
1.239999999999999991e+00
-8.640000000000000568e+00
-1.463000000000000078e+01
1.556000000000000050e+01
-5.999999999999999778e-01
-2.455999999999999872e+01
1.841000000000000014e+01
5.849999999999999645e+00
-2.487999999999999901e+01
1.723999999999999844e+01
6.870000000000000107e+00
-2.567999999999999972e+01
1.146000000000000085e+01
2.923999999999999844e+01
-7.259000000000000341e+01
-1.386100000000000136e+02
4.368999999999999773e+01
-1.442999999999999972e+01
-1.033999999999999986e+01
4.330000000000000071e+00
-1.502999999999999936e+01
-9.009999999999999787e+00
3.463000000000000256e+01
7.830000000000000071e+00
-2.421999999999999886e+01
1.117999999999999972e+01
1.107000000000000028e+01
1.666000000000000014e+01
-1.551999999999999957e+01
3.439999999999999947e+00
-3.200000000000000178e+00
-1.396000000000000085e+01
2.426000000000000156e+01
1.109999999999999964e+01
-4.218999999999999773e+01
5.870000000000000107e+00
4.309999999999999609e+00
-2.203999999999999915e+01
1.835999999999999943e+01
1.069999999999999929e+01
7.099999999999999645e-01
-7.370000000000000107e+00
7.389999999999999680e+00
-7.459999999999999964e+00
4.559999999999999609e+00
3.290000000000000036e+00
-6.150000000000000355e+00
-3.759999999999999787e+00
1.358000000000000007e+01
-3.779999999999999805e+00
-1.467999999999999972e+01
1.619999999999999929e+01
3.870000000000000107e+00
-2.209999999999999964e+00
6.639999999999999680e+00
6.500000000000000222e-01
-2.151999999999999957e+01
1.513000000000000078e+01
8.399999999999999689e-01
1.024000000000000021e+01
-4.356000000000000227e+01
8.439999999999999503e+00
-3.050000000000000000e+01
2.510000000000000142e+01
1.163000000000000078e+01
-1.566999999999999993e+01
1.151999999999999957e+01
1.475999999999999979e+01
-5.870000000000000107e+00
-1.178999999999999915e+01
2.083999999999999986e+01
6.379999999999999893e+00
-2.032999999999999829e+01
8.640000000000000568e+00
9.189999999999999503e+00
-7.030000000000000249e+00
-4.709999999999999964e+00
1.216000000000000014e+01
-1.709999999999999964e+00
-1.957000000000000028e+01
1.389999999999999902e+00
-2.290000000000000036e+00
-1.755999999999999872e+01
5.480000000000000426e+00
1.664999999999999858e+01
-1.309999999999999964e+01
-5.629999999999999893e+00
8.359999999999999432e+00
-9.410000000000000142e+00
-1.446000000000000085e+01
1.610999999999999943e+01
1.530000000000000027e+00
-1.896000000000000085e+01
4.320000000000000284e+00
1.233000000000000007e+01
-3.468999999999999773e+01
1.226999999999999957e+01
1.242999999999999972e+01
-2.287000000000000099e+01
1.025999999999999979e+01
1.183000000000000007e+01
-5.139999999999999680e+00
4.899999999999999911e-01
9.560000000000000497e+00
-4.410000000000000142e+00
-1.276999999999999957e+01
8.650000000000000355e+00
1.959999999999999964e+00
-1.225999999999999979e+01
1.719000000000000128e+01
1.323000000000000043e+01
-3.005999999999999872e+01
7.879999999999999893e+00
5.519999999999999574e+00
-1.397000000000000064e+01
5.809999999999999609e+00
1.377999999999999936e+01
-5.589999999999999858e+00
-9.880000000000000782e+00
1.465000000000000036e+01
-1.739999999999999991e+00
-2.155999999999999872e+01
1.343999999999999950e+01
3.790000000000000036e+00
-2.180000000000000071e+01
1.225999999999999979e+01
1.358999999999999986e+01
-8.609999999999999432e+00
-2.149999999999999911e+00
1.557000000000000028e+01
9.300000000000000488e-01
-2.310999999999999943e+01
1.635000000000000142e+01
1.434999999999999964e+01
-2.600000000000000089e-01
-2.910000000000000142e+00
5.900000000000000355e+00
-7.490000000000000213e+00
-1.566000000000000014e+01
1.303999999999999915e+01
3.779999999999999805e+00
-2.292000000000000171e+01
1.117999999999999972e+01
9.759999999999999787e+00
-1.503999999999999915e+01
-1.409999999999999920e+00
1.491999999999999993e+01
-3.009999999999999787e+00
-2.442999999999999972e+01
1.457000000000000028e+01
8.210000000000000853e+00
-1.839000000000000057e+01
8.230000000000000426e+00
1.176999999999999957e+01
-6.570000000000000284e+00
-1.534999999999999964e+01
1.202999999999999936e+01
-1.429999999999999938e+00
-2.442999999999999972e+01
1.007000000000000028e+01
1.944000000000000128e+01
-1.737000000000000099e+01
9.599999999999999645e+00
1.106000000000000050e+01
-1.141999999999999993e+01
-1.031000000000000050e+01
1.951999999999999957e+01
-1.290000000000000036e+00
-1.962000000000000099e+01
1.346000000000000085e+01
4.259999999999999787e+00
-2.653000000000000114e+01
1.484999999999999964e+01
9.109999999999999432e+00
-1.230000000000000071e+01
6.809999999999999609e+00
1.325999999999999979e+01
-8.580000000000000071e+00
-2.509999999999999787e+00
1.505000000000000071e+01
-3.430000000000000160e+00
-1.456000000000000050e+01
1.800000000000000000e+01
6.419999999999999929e+00
-2.178999999999999915e+01
1.341000000000000014e+01
9.259999999999999787e+00
-2.110999999999999943e+01
8.169999999999999929e+00
9.289999999999999147e+00
-9.609999999999999432e+00
-3.779999999999999805e+00
1.873999999999999844e+01
6.320000000000000284e+00
-1.928999999999999915e+01
5.610000000000000320e+00
1.429999999999999938e+00
-2.448999999999999844e+01
1.925000000000000000e+01
1.408999999999999986e+01
-1.283999999999999986e+01
-7.820000000000000284e+00
1.651999999999999957e+01
-3.390000000000000124e+00
-2.180999999999999872e+01
1.753000000000000114e+01
6.849999999999999645e+00
-2.048999999999999844e+01
9.369999999999999218e+00
1.086999999999999922e+01
-9.039999999999999147e+00
4.000000000000000083e-02
1.486999999999999922e+01
-5.389999999999999680e+00
-2.528000000000000114e+01
1.610000000000000142e+01
9.640000000000000568e+00
-1.371000000000000085e+01
1.125000000000000000e+01
1.283000000000000007e+01
-1.166000000000000014e+01
-1.396000000000000085e+01
1.188000000000000078e+01
-2.529999999999999805e+00
-2.573999999999999844e+01
1.155000000000000071e+01
5.049999999999999822e+00
-1.486999999999999922e+01
1.244999999999999929e+01
1.002999999999999936e+01
-7.169999999999999929e+00
-6.780000000000000249e+00
1.120000000000000107e+00
1.667000000000000171e+01
-1.466999999999999993e+01
1.719000000000000128e+01
2.999999999999999889e-02
-2.914000000000000057e+01
1.035999999999999943e+01
3.140000000000000124e+00
-1.605000000000000071e+01
1.351999999999999957e+01
1.160999999999999943e+01
-1.764999999999999858e+01
3.470000000000000195e+00
4.519999999999999574e+00
-6.650000000000000355e+00
-5.450000000000000178e+00
1.708999999999999986e+01
-7.709999999999999964e+00
-2.235000000000000142e+01
1.116000000000000014e+01
1.358000000000000007e+01
-1.714999999999999858e+01
7.650000000000000355e+00
2.790000000000000036e+00
-2.310000000000000142e+01
1.522000000000000064e+01
2.457000000000000028e+01
-9.230000000000000426e+00
-8.509999999999999787e+00
1.294999999999999929e+01
4.379999999999999893e+00
-8.810000000000000497e+00
8.140000000000000568e+00
5.240000000000000213e+00
-1.200000000000000000e+01
4.669999999999999929e+00
8.300000000000000711e+00
-3.910000000000000142e+00
-1.959999999999999964e+00
1.111999999999999922e+01
-1.790000000000000036e+00
-1.633999999999999986e+01
7.169999999999999929e+00
-1.721000000000000085e+01
-1.321000000000000085e+01
-4.849999999999999645e+00
3.799999999999999822e+00
-1.307000000000000028e+01
2.064999999999999858e+01
9.320000000000000284e+00
-2.794999999999999929e+01
1.274000000000000021e+01
1.009999999999999964e+01
-1.901000000000000156e+01
3.890000000000000124e+00
1.935000000000000142e+01
-3.100000000000000089e+00
2.999999999999999889e-01
1.130000000000000071e+01
-5.259999999999999787e+00
-1.196000000000000085e+01
9.939999999999999503e+00
-2.500000000000000000e-01
-1.910000000000000142e+01
1.539000000000000057e+01
6.280000000000000249e+00
-2.062000000000000099e+01
3.870000000000000107e+00
1.353999999999999915e+01
-6.950000000000000178e+00
1.830000000000000071e+00
5.219999999999999751e+00
-1.100000000000000000e+01
-1.805999999999999872e+01
1.224000000000000021e+01
1.188000000000000078e+01
-2.050000000000000000e+01
9.481999999999999318e+01
-3.173999999999999844e+01
-3.910999999999999943e+01
-3.468999999999999773e+01
-2.453000000000000114e+01
-2.280999999999999872e+01
-1.288000000000000078e+01
2.985999999999999943e+01
3.763000000000000256e+01
-8.500000000000000000e+00
1.785999999999999943e+01
-3.925999999999999801e+01
-1.146099999999999994e+02
5.125999999999999801e+01
6.567000000000000171e+01
2.990000000000000213e+00
-1.218999999999999950e+01
9.330000000000000071e+00
-1.744000000000000128e+01
-3.400000000000000244e-01
4.125000000000000000e+01
-3.959999999999999964e+00
-2.905000000000000071e+01
2.787000000000000099e+01
2.089999999999999858e+01
-2.776999999999999957e+01
9.029999999999999361e+00
2.319000000000000128e+01
-7.370000000000000107e+00
-1.066999999999999993e+01
1.336999999999999922e+01
1.583000000000000007e+01
-3.290999999999999659e+01
1.973000000000000043e+01
5.389999999999999680e+00
-2.691000000000000014e+01
1.075999999999999979e+01
1.535999999999999943e+01
-1.356000000000000050e+01
-5.830000000000000071e+00
2.239000000000000057e+01
-5.799999999999999600e-01
-2.935000000000000142e+01
2.091000000000000014e+01
7.299999999999999822e-01
-2.292000000000000171e+01
2.519999999999999929e+01
1.208999999999999986e+01
-1.472000000000000064e+01
-1.375000000000000000e+01
3.686999999999999744e+01
2.108999999999999986e+01
-4.006000000000000227e+01
1.798999999999999844e+01
2.540000000000000036e+00
-3.431000000000000227e+01
1.730999999999999872e+01
1.405000000000000071e+01
-1.077999999999999936e+01
2.740000000000000213e+00
1.283999999999999986e+01
-1.182000000000000028e+01
-3.039999999999999858e+01
3.971000000000000085e+01
-1.536999999999999922e+01
-3.350000000000000000e+01
2.080000000000000071e+01
2.094999999999999929e+01
-2.433999999999999986e+01
2.209999999999999964e+00
2.189000000000000057e+01
7.900000000000000355e-01
-2.189999999999999858e+01
1.614999999999999858e+01
3.990000000000000213e+00
-2.753999999999999915e+01
2.085000000000000142e+01
1.492999999999999972e+01
-1.953000000000000114e+01
-1.096000000000000085e+01
7.799999999999999822e+00
6.839999999999999858e+00
-1.850000000000000000e+01
1.330000000000000071e+01
1.016000000000000014e+01
-6.845000000000000284e+01
9.330000000000000071e+00
1.268999999999999950e+01
-6.297999999999999687e+01
5.209000000000000341e+01
-7.610000000000000320e+00
9.534000000000000341e+01
-6.900000000000000000e+01
4.035999999999999943e+01
-1.180300000000000011e+02
1.226400000000000006e+02
5.581000000000000227e+01
-1.274399999999999977e+02
-6.595999999999999375e+01
-1.794999999999999929e+01
2.425200000000000102e+02
-1.840399999999999920e+02
-1.939999999999999947e+00
-1.589000000000000057e+01
1.349000000000000021e+01
-2.769000000000000128e+01
8.962000000000000455e+01
9.050000000000000711e+00
4.190999999999999659e+01
8.189999999999999503e+00
3.221999999999999886e+01
-5.410000000000000142e+00
2.380000000000000071e+01
8.367000000000000171e+01
-1.055100000000000051e+02
3.835999999999999943e+01
-3.445000000000000284e+01
1.214099999999999966e+02
2.276999999999999957e+01
-3.915999999999999659e+01
1.158999999999999986e+01
5.182000000000000028e+01
-4.129999999999999716e+01
9.398000000000000398e+01
-9.354000000000000625e+01
5.521999999999999886e+01
-6.364000000000000057e+01
-1.021899999999999977e+02
1.252999999999999936e+01
1.392400000000000091e+02
-1.005000000000000000e+02
2.128999999999999915e+01
6.839999999999999858e+00
3.071999999999999886e+01
-1.180900000000000034e+02
-1.466000000000000014e+01
3.775999999999999801e+01
7.759999999999999787e+00
-3.917999999999999972e+01
4.911999999999999744e+01
-1.032000000000000028e+01
-2.785000000000000142e+01
-4.040999999999999659e+01
6.759999999999999787e+00
6.890999999999999659e+01
-7.784999999999999432e+01
2.271000000000000085e+01
9.965000000000000568e+01
-6.998999999999999488e+01
-1.532000000000000028e+01
3.012999999999999901e+01
-1.134999999999999964e+01
3.493999999999999773e+01
-2.673000000000000043e+01
-1.730999999999999872e+01
3.814999999999999858e+01
-2.541000000000000014e+01
-4.500000000000000111e-01
-5.669999999999999929e+00
1.397000000000000064e+01
6.626000000000000512e+01
5.507000000000000028e+01
-1.095799999999999983e+02
-7.618999999999999773e+01
4.179999999999999716e+01
1.794000000000000128e+01
-3.842000000000000171e+01
-3.575000000000000000e+01
6.371999999999999886e+01
-6.553000000000000114e+01
9.426999999999999602e+01
-2.407000000000000028e+01
-2.248999999999999844e+01
-3.014999999999999858e+01
-2.600000000000000089e-01
-7.223000000000000398e+01
-2.221999999999999886e+02
3.114399999999999977e+02
-3.603000000000000114e+01
-6.040999999999999659e+01
1.659999999999999920e+00
3.271000000000000085e+01
-2.423999999999999844e+01
-4.799000000000000199e+01
6.219999999999999751e+00
2.503999999999999915e+01
2.150000000000000000e+01
1.438199999999999932e+02
1.504099999999999966e+02
-1.527599999999999909e+02
-1.426999999999999886e+02
-1.050499999999999972e+02
-6.992000000000000171e+01
-6.117999999999999972e+01
-1.885000000000000142e+01
1.812100000000000080e+02
8.919999999999999929e+00
-8.229999999999999716e+01
7.881999999999999318e+01
5.029999999999999716e+01
7.776000000000000512e+01
2.770000000000000018e+00
-4.610999999999999943e+01
4.870000000000000107e+00
1.748000000000000043e+01
-4.342000000000000171e+01
7.389999999999999680e+00
-1.179999999999999938e+00
-3.140000000000000124e+00
3.012000000000000099e+01
2.601999999999999957e+01
-2.192999999999999972e+01
1.614000000000000057e+01
2.955000000000000071e+01
1.826999999999999957e+01
9.609999999999999432e+01
-7.368999999999999773e+01
-1.191800000000000068e+02
-1.099500000000000028e+02
-6.118999999999999773e+01
-1.613199999999999932e+02
5.220000000000000284e+01
8.048999999999999488e+01
-7.487999999999999545e+01
-6.500000000000000000e+01
2.753999999999999915e+01
2.917999999999999972e+01
-6.321999999999999886e+01
1.549000000000000021e+01
-1.327999999999999936e+01
2.376999999999999957e+01
2.153000000000000114e+01
-3.577000000000000313e+01
-1.328999999999999915e+01
4.832000000000000028e+01
3.595000000000000284e+01
-2.823000000000000043e+01
-3.439999999999999947e+00
-6.234000000000000341e+01
7.400000000000000355e+00
-8.789999999999999147e+00
1.251400000000000006e+02
1.002999999999999936e+01
-8.134999999999999432e+01
-2.282100000000000080e+02
3.035899999999999750e+02
8.293000000000000682e+01
-1.762500000000000000e+02
-7.601000000000000512e+01
2.234799999999999898e+02
-1.021400000000000006e+02
-1.825000000000000000e+01
-1.466599999999999966e+02
8.796999999999999886e+01
1.476999999999999957e+01
5.660000000000000142e+00
1.263000000000000078e+01
4.700999999999999801e+01
-6.980000000000000426e+00
-5.360999999999999943e+01
4.170000000000000284e+01
-2.383999999999999986e+01
-1.000199999999999960e+02
5.868799999999999955e+02
-2.766200000000000045e+02
-3.195600000000000023e+02
1.558999999999999986e+01
2.549999999999999822e+00
3.790000000000000036e+00
8.431000000000000227e+01
-4.275000000000000000e+01
-1.768600000000000136e+02
-5.985999999999999943e+01
-1.323700000000000045e+02
2.352500000000000000e+02
1.830500000000000114e+02
-4.546000000000000085e+01
-9.493000000000000682e+01
1.180699999999999932e+02
1.423000000000000043e+01
-9.751000000000000512e+01
7.280000000000000249e+00
-8.340000000000000568e+01
4.520000000000000284e+01
-1.398000000000000043e+01
7.795000000000000284e+01
4.667999999999999972e+01
2.823000000000000043e+01
-1.767999999999999972e+01
-1.102999999999999936e+01
2.067000000000000171e+01
3.765999999999999659e+01
3.050000000000000000e+01
-4.097999999999999687e+01
-5.250000000000000000e+00
1.453999999999999915e+01
1.342999999999999972e+01
3.738000000000000256e+01
-1.698000000000000043e+01
-1.021000000000000085e+01
6.014999999999999858e+01
2.898000000000000043e+01
-1.114000000000000057e+01
-2.619000000000000128e+01
-4.110000000000000142e+01
1.562700000000000102e+02
-7.256999999999999318e+01
-9.340000000000000568e+01
-3.984000000000000341e+01
-1.417199999999999989e+02
-3.568600000000000136e+02
4.023700000000000045e+02
-8.632999999999999829e+01
7.443000000000000682e+01
2.201000000000000156e+01
-6.899999999999999467e-01
-9.710000000000000853e+00
3.664999999999999858e+01
-1.766000000000000014e+01
-3.459999999999999964e+00
1.233999999999999986e+01
1.564000000000000057e+01
-3.041000000000000014e+01
-2.214000000000000057e+01
4.690000000000000391e+00
-1.511999999999999922e+01
-1.110000000000000098e+00
4.889999999999999680e+00
5.464999999999999858e+01
6.609999999999999432e+01
-3.822999999999999687e+01
-2.987000000000000099e+01
3.589000000000000057e+01
1.368999999999999950e+01
-1.481000000000000050e+01
2.158999999999999986e+01
3.457000000000000028e+01
5.635999999999999943e+01
5.957999999999999829e+01
-3.777000000000000313e+01
-2.080800000000000125e+02
-2.427800000000000011e+02
3.146000000000000227e+02
1.002600000000000051e+02
8.259999999999999787e+00
5.875999999999999801e+01
-5.564000000000000057e+01
1.103799999999999955e+02
-1.151800000000000068e+02
1.835999999999999943e+01
-1.622899999999999920e+02
5.074000000000000199e+01
7.269999999999999574e+00
9.369999999999999218e+00
6.290000000000000036e+00
7.023000000000000398e+01
9.315000000000000568e+01
3.649000000000000199e+01
-8.159999999999999432e+01
-2.396800000000000068e+02
-2.769900000000000091e+02
1.903300000000000125e+02
3.739800000000000182e+02
3.032999999999999829e+01
-3.889000000000000057e+01
-1.925000000000000000e+01
-5.918999999999999773e+01
1.267900000000000063e+02
9.881000000000000227e+01
-1.030000000000000027e+00
-9.143000000000000682e+01
-3.178999999999999915e+01
9.051999999999999602e+01
-5.107000000000000028e+01
-6.093999999999999773e+01
1.904600000000000080e+02
5.113000000000000256e+01
-1.716699999999999875e+02
-2.680000000000000160e+00
-6.357000000000000028e+01
7.219999999999999751e+00
3.099999999999999978e-01
3.892999999999999972e+01
-4.110000000000000320e+00
-2.673000000000000043e+01
-2.664000000000000057e+01
-4.571000000000000085e+01
2.782000000000000028e+01
2.359999999999999876e+00
2.112000000000000099e+01
3.180999999999999872e+01
9.710000000000000853e+00
-7.104999999999999716e+01
4.386999999999999744e+01
2.294999999999999929e+01
-3.660000000000000142e+00
3.925000000000000000e+01
-9.395999999999999375e+01
-5.882999999999999829e+01
-3.821999999999999886e+01
4.913000000000000256e+01
1.007000000000000028e+02
-4.328000000000000114e+01
-3.593999999999999773e+01
3.514000000000000057e+01
2.192999999999999972e+01
-4.127000000000000313e+01
-1.655000000000000071e+01
8.554999999999999716e+01
-1.615099999999999909e+02
-1.243299999999999983e+02
2.535999999999999943e+02
-5.807000000000000028e+01
8.929999999999999716e+01
-1.147399999999999949e+02
2.364000000000000057e+01
6.843999999999999773e+01
8.810000000000000497e+00
7.481999999999999318e+01
-3.105000000000000071e+01
-5.864000000000000057e+01
3.775000000000000000e+01
1.667999999999999972e+01
-7.193999999999999773e+01
-1.260999999999999943e+01
-3.209999999999999964e+00
-3.169999999999999929e+00
3.008999999999999986e+01
2.660000000000000142e+00
-7.073000000000000398e+01
1.413000000000000078e+01
2.491000000000000014e+01
1.191000000000000014e+01
1.381000000000000050e+01
-8.582999999999999829e+01
1.343000000000000114e+02
2.015900000000000034e+02
-5.567000000000000171e+01
