1593534070.00
64.000000
-0.00
-0.00
-0.00
-0.00
-0.00
-0.00
-0.00
-0.00
-0.00
-0.00
0.00
0.01
0.01
-0.00
-0.03
-0.05
-0.05
0.00
0.13
0.36
0.66
1.01
1.37
1.72
2.06
2.40
2.79
3.24
3.80
4.42
5.06
5.66
6.20
6.68
7.15
7.68
8.31
9.14
10.09
11.04
11.88
12.56
13.14
13.76
14.65
15.96
17.91
20.32
22.90
25.38
27.58
29.57
31.68
34.32
37.81
42.54
48.15
54.10
59.83
64.97
69.59
74.15
79.35
85.71
93.76
102.99
112.62
121.74
129.80
136.80
143.34
150.73
157.66
166.40
177.57
191.30
206.40
219.98
227.68
224.80
207.94
176.20
131.96
79.12
22.04
-36.01
-93.48
-150.16
-206.22
-261.46
-315.05
-365.50
-411.79
-453.11
-488.79
-517.96
-539.34
-551.34
-552.36
-541.36
-518.05
-483.42
-439.32
-388.21
-332.72
-275.33
-218.12
-162.66
-110.15
-61.27
-16.63
23.40
58.51
88.43
112.92
131.89
145.49
154.19
158.81
160.36
159.82
157.94
155.05
151.14
146.00
139.39
131.10
120.95
108.96
95.71
82.70
72.34
67.33
69.49
78.73
92.67
107.37
118.83
124.52
124.12
119.12
111.65
103.36
94.91
86.28
77.58
69.12
61.59
55.62
51.29
48.04
44.99
41.33
36.86
31.95
27.29
23.55
20.95
19.20
17.66
15.68
12.91
9.43
5.68
2.20
-0.51
-2.20
-2.91
-2.87
-2.45
-2.07
-2.01
-2.42
-3.32
-4.59
-5.94
-6.97
-7.18
-6.22
-4.11
-1.37
1.07
2.27
1.70
-0.46
-3.40
-6.11
-7.86
-8.48
-8.28
-7.71
-7.04
-6.25
-5.21
-3.85
-2.35
-1.02
-0.11
0.31
0.33
0.21
0.15
0.21
0.32
0.38
0.23
-0.17
-0.80
-1.53
-2.22
-2.70
-2.91
-2.79
-2.35
-1.66
-0.85
-0.07
0.54
0.92
1.08
1.13
1.21
1.42
1.77
2.24
2.80
3.47
4.36
5.58
7.15
9.01
10.92
12.57
13.66
13.92
13.25
11.69
9.48
6.79
3.82
0.75
-2.31
-5.24
-7.92
-10.24
-12.10
-13.46
-14.34
-14.76
-14.72
-14.22
-13.23
-11.82
-10.16
-8.47
-7.00
-5.90
-5.21
-4.88
-4.81
-4.90
-5.07
-5.27
-5.50
-5.79
-6.15
-6.51
-6.70
-6.44
-5.49
-3.82
-1.65
0.60
2.45
3.55
3.88
3.59
2.98
2.20
1.31
0.28
-0.95
-2.31
-3.67
-4.89
-5.88
-6.63
-7.20
-7.63
-7.94
-8.17
-8.38
-8.63
-8.97
-9.37
-9.72
-9.88
-9.73
-9.22
-8.37
-7.23
-5.89
-4.41
-2.88
-1.37
-0.00
1.15
2.09
2.95
4.01
5.56
7.76
10.56
13.64
16.52
18.77
20.14
20.66
20.57
20.15
19.61
19.00
18.25
17.24
15.92
14.34
12.64
10.93
9.28
7.67
6.03
4.37
2.77
1.41
0.46
-0.00
-0.07
0.02
-0.02
-0.39
-1.11
-2.01
-2.89
-3.63
-4.26
-5.00
-6.02
-7.36
-8.86
-10.18
-11.05
-11.33
-11.12
-10.64
-10.11
-9.59
-9.00
-8.20
-7.10
-5.81
-4.60
-3.81
-3.77
-4.61
-6.23
-8.33
-10.46
-12.16
-13.04
-12.84
-11.49
-9.05
-5.76
-1.98
1.83
5.20
7.76
9.35
10.09
10.29
10.33
10.45
10.67
10.77
10.46
9.53
7.95
5.95
3.88
2.11
0.90
0.32
0.29
0.62
1.09
1.48
1.66
1.52
1.03
0.18
-0.98
-2.37
-3.85
-5.25
-6.36
-6.94
-6.85
-6.07
-4.79
-3.34
-2.11
-1.39
-1.20
-1.34
-1.49
-1.43
-1.16
-0.87
-0.81
-1.17
-1.88
-2.75
-3.51
-4.04
-4.35
-4.57
-4.83
-5.15
-5.46
-5.63
-5.49
-4.99
-4.15
-3.07
-1.93
-0.90
-0.12
0.29
0.25
-0.26
-1.25
-2.59
-4.09
-5.42
-6.24
-6.29
-5.47
-3.89
-1.83
0.35
2.38
4.08
5.41
6.36
6.95
7.12
6.85
6.15
5.11
3.96
2.89
2.06
1.50
1.07
0.57
-0.17
-1.22
-2.41
-3.46
-4.02
-3.81
-2.77
-1.03
1.12
3.35
5.47
7.42
9.24
11.02
12.75
14.38
15.78
16.86
17.59
18.04
18.35
18.65
19.06
19.59
20.14
20.51
20.46
19.81
18.51
16.70
14.61
12.53
10.68
9.14
7.88
6.79
5.72
4.57
3.28
1.90
0.53
-0.68
-1.53
-1.88
-1.61
-0.71
0.74
2.65
4.93
7.54
10.46
13.61
16.83
19.80
22.19
23.70
24.25
24.00
23.27
22.44
21.72
21.11
20.37
19.13
17.06
13.91
9.70
4.65
-0.84
-6.30
-11.31
-15.64
-19.28
-22.45
-25.52
-28.79
-32.34
-35.81
-38.37
-38.85
-36.00
-28.97
-17.61
-2.67
14.32
31.48
47.08
59.93
69.50
75.73
78.76
78.73
75.69
69.71
61.13
50.62
39.26
28.39
19.38
13.30
10.64
11.14
13.73
16.92
19.14
19.26
16.85
12.28
6.39
0.20
-5.36
-9.68
-12.48
-13.98
-15.11
-17.52
-23.22
-33.79
-49.35
-68.02
-86.32
-100.39
-107.64
-107.84
-103.05
-96.37
-90.26
-85.31
-80.30
-73.12
-62.30
-47.88
-31.44
-15.34
-1.64
8.58
15.39
19.57
22.19
24.09
25.69
27.02
27.81
27.49
25.07
19.16
8.20
-9.01
-32.58
-61.08
-91.50
-120.01
-142.87
-157.45
-162.67
-158.98
-147.95
-131.71
-112.49
-92.27
-72.53
-54.14
-37.56
-23.13
-11.45
-3.43
0.01
-1.41
-6.77
-13.80
-19.44
-20.85
-16.52
-6.83
6.16
19.61
31.05
39.23
44.35
47.59
50.29
53.28
56.67
60.15
63.52
67.02
71.27
76.74
83.35
90.23
96.07
99.67
100.45
98.63
94.99
90.43
85.55
80.45
74.80
68.04
59.71
49.63
38.09
25.79
13.70
2.83
-6.01
-12.53
-16.90
-19.74
-21.82
-23.83
-26.16
-28.87
-31.79
-34.66
-37.32
-39.71
-41.87
-43.84
-45.63
-47.16
-48.33
-49.02
-49.16
-48.65
-47.39
-45.24
-42.06
-37.84
-32.79
-27.35
-22.14
-17.79
-14.66
-12.80
-11.91
-11.51
-11.13
-10.48
-9.51
-8.39
-7.37
-6.65
-6.22
-5.89
-5.26
-3.87
-1.42
2.21
6.86
12.24
18.04
24.07
30.21
36.33
42.17
47.19
50.71
52.08
50.93
47.37
41.94
35.36
28.32
21.30
14.55
8.28
2.85
-1.26
-3.59
-3.99
-2.83
-0.92
0.84
1.87
2.15
2.28
3.21
5.88
10.88
18.23
27.37
37.40
47.29
56.25
63.90
70.22
75.35
79.26
81.62
81.88
79.62
74.85
68.07
60.09
51.56
42.80
33.72
24.15
14.04
3.67
-6.48
-15.86
-24.11
-31.11
-36.93
-41.73
-45.60
-48.47
-50.07
-50.11
-48.48
-45.53
-42.06
-38.94
-36.63
-34.67
-31.59
-25.50
-14.84
0.92
20.96
43.35
65.47
84.38
97.25
101.85
97.28
84.63
67.10
49.20
35.12
27.11
24.58
24.52
22.98
16.71
4.19
-14.38
-37.83
-64.64
-93.16
-121.32
-146.50
-165.85
-177.25
-180.42
-177.39
-172.05
-168.67
-170.28
-177.49
-188.44
-199.65
-207.37
-208.72
-202.24
-187.94
-167.07
-141.65
-114.13
-86.89
-61.86
-40.26
-22.76
-9.83
-2.15
-0.45
-4.69
-13.06
-21.66
-25.36
-19.85
-3.65
20.84
48.27
72.52
89.25
97.15
97.70
93.59
87.18
79.60
71.15
62.09
53.22
45.74
40.60
37.87
36.83
36.34
35.57
34.31
32.91
32.00
32.12
33.70
37.03
42.24
49.11
56.82
63.94
68.83
70.27
67.99
62.84
56.33
49.89
44.22
39.23
34.35
29.16
23.83
19.06
15.78
14.56
15.36
17.55
20.27
22.85
25.05
27.01
28.99
31.15
33.40
35.48
37.13
38.21
38.78
39.05
39.27
39.58
39.96
40.20
39.98
38.94
36.84
33.63
29.46
24.71
19.82
15.26
11.41
8.52
6.68
5.78
5.53
5.50
5.20
4.25
2.46
-0.08
-3.07
-5.99
-8.29
-9.46
-9.12
-7.16
-3.78
0.48
4.83
8.49
10.91
11.92
11.74
10.83
9.64
8.44
7.36
6.40
5.63
5.23
5.41
6.33
7.97
10.07
12.26
14.22
15.77
17.00
18.17
19.60
21.53
23.94
26.57
29.03
30.98
32.33
33.28
34.24
35.70
37.94
40.95
44.42
47.78
50.48
52.18
52.88
52.99
53.18
54.22
56.73
61.06
67.10
74.37
82.11
89.45
95.82
101.10
105.73
110.34
115.14
119.25
120.48
115.79
102.22
77.91
42.79
-1.55
-52.22
-105.61
-157.82
-204.85
-243.15
-270.23
-285.32
-289.58
-285.52
-276.01
-263.17
-247.91
-230.21
-209.96
-187.58
-164.21
-141.29
-119.99
-100.85
-83.79
-68.47
-54.63
-42.30
-31.69
-23.04
-16.40
-11.59
-8.14
-5.47
-3.00
-0.25
3.04
6.98
11.56
16.73
22.45
28.58
34.87
40.88
46.07
50.01
52.53
53.82
54.34
54.66
55.17
56.01
56.93
57.49
57.23
55.82
53.19
49.56
45.35
41.05
37.08
33.65
30.76
28.20
25.71
23.04
20.05
16.72
13.07
9.19
5.15
1.07
-2.95
-6.78
-10.33
-13.50
-16.26
-18.60
-20.54
-22.18
-23.60
-24.90
-26.12
-27.19
-27.88
-27.76
-26.28
-22.88
-17.25
-9.35
0.48
11.68
23.50
35.11
45.56
53.86
59.03
60.35
57.56
50.99
41.52
30.31
18.54
7.18
-3.02
-11.45
-17.69
-21.55
-23.28
-23.55
-23.29
-23.27
-23.81
-24.60
-24.94
-24.11
-21.81
-18.29
-14.22
-10.33
-7.12
-4.70
-2.92
-1.55
-0.42
0.51
1.29
2.04
2.96
4.28
6.15
8.55
11.24
13.94
16.33
18.23
19.61
20.57
21.27
21.83
22.22
22.35
22.05
21.18
19.75
17.90
15.85
13.84
12.04
10.51
9.16
7.88
6.56
5.18
3.83
2.62
1.65
0.91
0.27
-0.45
-1.41
-2.68
-4.19
-5.80
-7.42
-8.98
-10.53
-12.11
-13.78
-15.46
-17.00
-18.16
-18.68
-18.34
-17.02
-14.81
-11.97
-8.84
-5.73
-2.90
-0.42
1.67
3.39
4.74
5.68
6.25
6.48
6.48
6.33
6.11
5.84
5.55
5.24
4.94
4.65
4.36
3.98
3.43
2.68
1.76
0.76
-0.19
-1.00
-1.67
-2.27
-2.88
-3.56
-4.29
-5.00
-5.59
-6.08
-6.55
-7.11
-7.81
-8.54
-9.06
-9.09
-8.47
-7.19
-5.44
-3.50
-1.58
0.23
1.95
3.62
5.21
6.60
7.61
8.10
8.05
7.61
7.01
6.45
6.04
5.75
5.44
5.01
4.44
3.83
3.30
2.93
2.71
2.54
2.29
1.84
1.18
0.34
-0.56
-1.43
-2.23
-3.01
-3.89
-4.99
-6.36
-7.94
-9.54
-10.95
-11.96
-12.44
-12.34
-11.62
-10.28
-8.33
-5.82
-2.88
0.30
3.54
6.65
9.50
11.96
13.89
15.14
15.59
15.27
14.35
13.09
11.79
10.66
9.71
8.84
7.83
6.56
5.06
3.54
2.27
1.47
1.17
1.25
1.40
1.37
0.99
0.25
-0.75
-1.91
-3.18
-4.56
-6.10
-7.79
-9.56
-11.23
-12.66
-13.73
-14.38
-14.55
-14.11
-12.93
-10.92
-8.11
-4.71
-1.08
2.43
5.55
8.16
10.33
12.16
13.69
14.91
15.71
15.98
15.68
14.81
13.46
11.76
9.86
7.94
6.17
4.65
3.40
2.32
1.27
0.13
-1.10
-2.26
-3.11
-3.37
-2.86
-1.61
0.19
2.20
3.97
5.04
5.02
3.70
1.20
-2.01
-5.24
-7.84
-9.54
-10.62
-11.81
-13.91
-17.34
-21.96
-27.12
-31.89
-35.43
-37.16
-36.77
-34.15
-29.35
-22.65
-14.62
-6.10
1.96
8.82
14.15
18.05
20.86
22.97
24.57
25.66
26.18
26.04
25.25
23.91
22.12
20.00
17.65
15.10
12.48
9.86
7.34
4.96
2.63
0.22
-2.44
-5.43
-8.68
-12.01
-15.11
-17.67
-19.43
-20.26
-20.17
-19.23
-17.62
-15.49
-13.01
-10.34
-7.61
-4.96
-2.53
-0.44
1.19
2.28
2.81
2.87
2.62
2.26
1.99
1.92
2.05
2.32
2.59
2.77
2.78
2.63
2.38
2.12
1.94
1.95
2.22
2.75
3.49
4.30
5.04
5.61
5.99
6.20
6.31
6.32
6.17
5.74
4.98
3.92
2.78
1.86
1.47
1.80
2.86
4.49
6.45
8.47
10.34
11.94
13.25
14.33
15.20
15.86
16.25
16.26
15.84
15.01
13.88
12.61
11.34
10.12
8.93
7.75
6.60
5.60
4.85
4.43
4.29
4.27
4.19
3.90
3.34
2.53
1.54
0.45
-0.63
-1.61
-2.40
-2.91
-3.18
-3.30
-3.44
-3.77
-4.35
-5.13
-5.97
-6.65
-6.98
-6.79
-5.96
-4.47
-2.36
0.14
2.76
5.20
7.23
8.85
10.17
11.37
12.51
13.53
14.18
14.23
13.55
12.25
10.54
8.68
6.86
5.13
3.46
1.86
0.39
-0.88
-1.94
-2.87
-3.86
-5.07
-6.56
-8.24
-9.89
-11.32
-12.45
-13.35
-14.21
-15.18
-16.29
-17.43
-18.47
-19.29
-19.89
-20.39
-20.87
-21.36
-21.71
-21.68
-21.00
-19.52
-17.27
-14.48
-11.50
-8.61
-6.02
-3.74
-1.70
0.23
2.13
3.96
5.55
6.68
7.14
6.81
5.73
4.10
2.24
0.56
-0.54
-0.81
-0.15
1.28
3.16
5.07
6.64
7.61
7.89
7.53
6.70
5.59
4.38
3.22
2.18
1.22
0.28
-0.72
-1.84
-3.06
-4.31
-5.55
-6.76
-7.96
-9.13
-10.21
-11.04
-11.46
-11.37
-10.76
-9.76
-8.49
-7.06
-5.51
-3.90
-2.25
-0.67
0.73
1.81
2.49
2.77
2.70
2.36
1.87
1.37
0.97
0.77
0.74
0.79
0.77
0.53
0.00
-0.76
-1.60
-2.37
-2.91
-3.22
-3.38
-3.49
-3.70
-3.99
-4.29
-4.41
-4.26
-3.85
-3.37
-3.08
-3.19
-3.79
-4.81
-6.05
-7.25
-8.17
-8.56
-8.22
-7.00
-4.88
-1.99
1.40
4.91
8.18
10.94
13.09
14.66
15.77
16.56
17.11
17.44
17.53
17.30
16.74
15.87
14.81
13.71
12.72
11.92
11.33
10.88
10.44
9.87
9.03
7.84
6.28
4.41
2.35
0.31
-1.42
-2.54
-2.85
-2.36
-1.40
-0.54
-0.39
-1.30
-3.17
-5.37
-7.11
-7.77
-7.17
-5.63
-3.70
-1.84
-0.25
1.19
2.72
4.46
6.33
8.03
9.24
9.79
9.72
9.20
8.51
7.92
7.41
6.76
5.58
3.70
1.30
-1.09
-2.83
-3.32
-2.26
-0.06
2.48
4.26
4.69
3.88
2.48
1.36
1.27
2.72
5.34
8.31
10.32
10.56
8.97
5.99
2.34
-0.92
-2.38
-1.14
3.11
9.06
14.33
15.75
9.83
-6.17
-32.91
-64.31
-90.95
-103.61
-99.61
-82.96
-60.72
-39.21
-22.55
-12.66
-9.62
-14.77
-25.19
-37.12
-45.48
-45.32
-34.15
-13.59
11.07
32.95
45.85
47.75
38.76
22.94
6.58
-4.75
-8.53
-5.58
1.00
7.33
10.64
9.50
4.76
-1.15
-5.62
-7.24
-5.99
-2.99
0.17
2.25
2.46
1.09
-1.06
-1.87
-0.54
2.09
3.72
2.42
-1.46
-5.50
-6.67
-3.44
3.12
9.57
12.15
8.78
-0.04
-11.97
-24.36
-35.05
-42.14
-43.05
-34.49
-13.61
19.46
59.83
98.10
123.44
128.09
110.99
78.24
39.96
5.88
-18.45
-32.46
-38.87
-40.89
-40.23
-37.07
-31.41
-24.46
-19.02
-18.57
-25.51
-39.27
-55.78
-68.88
-71.83
-60.81
-36.76
-5.39
25.06
47.23
57.24
56.43
49.84
43.05
39.32
38.66
38.81
37.39
33.65
28.74
24.95
24.12
26.75
31.81
37.18
40.42
39.62
33.91
23.78
10.99
-2.11
-13.32
-21.40
-26.30
-28.81
-30.01
-30.48
-30.15
-28.52
-25.18
-20.27
-14.71
-9.69
-6.12
-4.25
-3.63
-3.51
-3.16
-2.28
-1.03
0.15
0.87
0.99
0.64
0.10
-0.33
-0.48
-0.34
0.06
0.59
1.15
1.62
1.92
2.04
2.08
2.19
2.53
3.11
3.78
4.26
4.26
3.60
2.36
0.79
-0.72
-1.82
-2.37
-2.45
-2.31
-2.19
-2.24
-2.44
-2.68
-2.85
-2.91
-2.90
-2.87
-2.82
-2.69
-2.44
-2.08
-1.73
-1.51
-1.44
-1.47
-1.47
-1.34
-1.08
-0.77
-0.52
-0.40
-0.43
-0.58
-0.81
-1.09
-1.32
-1.34
-0.85
0.41
2.64
5.76
9.45
13.26
16.73
19.58
21.76
23.34
24.43
25.03
25.02
24.24
22.62
20.31
17.66
15.10
12.97
11.40
10.23
9.16
7.87
6.23
4.21
1.91
-0.59
-3.22
-5.92
-8.67
-11.46
-14.27
-17.08
-19.88
-22.58
-24.99
-26.86
-28.00
-28.31
-27.76
-26.36
-24.07
-20.97
-17.28
-13.35
-9.56
-6.27
-3.71
-1.88
-0.53
0.59
1.49
2.00
1.99
1.54
0.70
-0.60
-2.38
-4.55
-6.82
-8.89
-10.53
-11.38
-11.19
-10.46
-10.11
-10.89
-12.84
-15.31
-17.64
-19.55
-20.46
-19.81
-17.39
-12.83
-5.59
4.32
15.56
24.77
27.53
20.43
3.20
-20.15
-43.80
-64.15
-80.27
-91.36
-94.82
-86.54
-64.43
-27.03
21.34
71.71
114.31
142.54
155.01
155.14
139.99
115.28
89.30
67.21
49.30
33.03
16.03
-2.06
-19.73
-34.76
-44.26
-47.75
-47.26
-45.62
-44.73
-44.70
-44.38
-43.06
-40.07
-35.06
-29.06
-23.79
-20.42
-18.93
-18.34
-17.52
-15.88
-13.56
-10.77
-8.26
-6.89
-7.05
-8.40
-10.12
-11.35
-11.85
-11.66
-10.98
-10.18
-9.61
-9.21
-8.56
-7.06
-4.33
-0.38
4.41
9.45
14.10
17.88
20.61
22.39
23.45
23.96
23.94
23.36
22.17
20.44
18.39
16.33
14.56
13.23
12.27
11.49
10.64
9.53
8.13
6.51
4.82
3.11
1.36
-0.50
-2.45
-4.31
-5.73
-6.35
-6.03
-4.98
-3.70
-2.87
-3.04
-4.48
-7.10
-10.60
-14.55
-18.55
-22.22
-25.14
-26.82
-26.77
-24.68
-20.59
-14.99
-8.70
-2.64
2.51
6.53
9.63
12.27
14.82
17.41
19.79
21.58
22.41
22.10
20.70
18.40
15.48
12.25
9.07
6.33
4.39
3.47
3.52
4.19
4.99
5.45
5.29
4.55
3.41
2.14
0.85
-0.46
-1.91
-3.58
-5.46
-7.42
-9.30
-10.94
-12.18
-12.82
-12.64
-11.45
-9.19
-6.03
-2.32
1.52
5.14
8.38
11.22
13.68
15.67
16.98
17.33
16.56
14.73
12.15
9.27
6.47
3.95
1.74
-0.23
-2.04
-3.66
-5.00
-5.95
-6.45
-6.57
-6.42
-6.14
-5.80
-5.46
-5.16
-4.96
-4.94
-5.16
-5.56
-6.05
-6.49
-6.85
-7.23
-7.85
-8.96
-10.66
-12.86
-15.23
-17.30
-18.62
-18.81
-17.68
-15.26
-11.73
-7.41
-2.71
2.02
6.51
10.60
14.21
17.27
19.72
21.42
22.32
22.46
22.04
21.31
20.46
19.55
18.49
17.13
15.39
13.39
11.35
9.61
8.38
7.74
7.57
7.66
7.74
7.58
7.06
6.09
4.70
2.99
1.11
-0.80
-2.67
-4.49
-6.36
-8.41
-10.75
-13.35
-16.02
-18.39
-20.02
-20.48
-19.57
-17.33
-14.11
-10.40
-6.68
-3.29
-0.27
2.48
5.10
7.66
10.04
12.03
13.43
14.18
14.39
14.27
14.04
13.77
13.43
12.87
12.01
10.88
9.65
8.55
7.78
7.36
7.21
7.17
7.07
6.77
6.24
5.47
4.48
3.31
1.99
0.59
-0.87
-2.36
-3.91
-5.57
-7.43
-9.51
-11.72
-13.87
-15.70
-16.90
-17.29
-16.74
-15.28
-12.97
-10.00
-6.59
-3.01
0.46
3.60
6.24
8.32
9.85
10.82
11.22
11.04
10.35
9.35
8.30
7.47
7.02
6.88
6.86
6.71
6.31
5.68
4.98
4.36
3.86
3.43
2.94
2.23
1.23
-0.06
-1.56
-3.12
-4.59
-5.85
-6.82
-7.58
-8.28
-9.13
-10.30
-11.86
-13.71
-15.58
-17.16
-18.08
-18.06
-16.93
-14.64
-11.31
-7.19
-2.65
1.91
6.12
9.72
12.61
14.85
16.59
17.98
19.14
20.08
20.72
21.00
20.93
20.58
20.08
19.52
18.92
18.22
17.29
16.02
14.32
12.21
9.78
7.17
4.55
2.03
-0.34
-2.61
-4.83
-7.05
-9.21
-11.17
-12.78
-13.99
-14.90
-15.72
-16.73
-18.11
-19.88
-21.92
-23.99
-25.81
-27.16
-27.78
-27.47
-26.03
-23.38
-19.60
-15.01
-10.08
-5.28
-0.95
2.77
5.92
8.61
10.88
12.66
13.84
14.36
14.33
13.96
13.52
13.16
12.87
12.53
11.98
11.17
10.17
9.13
8.20
7.47
6.95
6.60
6.35
6.10
5.74
5.15
4.29
3.19
1.96
0.75
-0.37
-1.38
-2.32
-3.26
-4.20
-5.11
-5.96
-6.74
-7.47
-8.09
-8.49
-8.44
-7.72
-6.18
-3.91
-1.16
1.68
4.26
6.38
7.98
9.16
9.97
10.41
10.35
9.69
8.39
6.59
4.52
2.45
0.56
-1.08
-2.51
-3.77
-4.88
-5.81
-6.55
-7.07
-7.42
-7.67
-7.91
-8.19
-8.55
-9.03
-9.62
-10.26
-10.86
-11.29
-11.51
-11.50
-11.38
-11.32
-11.45
-11.79
-12.30
-12.88
-13.44
-13.93
-14.29
-14.40
-14.09
-13.14
-11.39
-8.83
-5.60
-2.01
1.62
4.98
7.89
10.28
12.13
13.44
14.22
14.49
14.29
13.73
12.91
11.95
10.92
9.82
8.61
7.28
5.89
4.57
3.49
2.76
2.39
2.24
2.08
1.67
0.84
-0.49
-2.21
-4.07
-5.77
-7.04
-7.74
-7.97
-8.04
-8.32
-9.09
-10.40
-12.10
-13.92
-15.58
-16.92
-17.82
-18.13
-17.71
-16.40
-14.16
-11.18
-7.80
-4.43
-1.37
1.28
3.61
5.80
7.92
9.90
11.49
12.46
12.69
12.27
11.44
10.51
9.67
8.98
8.34
7.58
6.64
5.57
4.54
3.74
3.24
2.97
2.71
2.28
1.52
0.44
-0.82
-2.05
-3.08
-3.84
-4.37
-4.82
-5.35
-6.12
-7.18
-8.52
-10.05
-11.67
-13.28
-14.81
-16.10
-16.99
-17.22
-16.61
-15.04
-12.58
-9.45
-5.94
-2.35
1.09
4.22
6.95
9.20
10.90
11.99
12.49
12.48
12.10
11.55
11.00
10.55
10.22
9.97
9.74
9.51
9.31
9.22
9.28
9.47
9.70
9.79
9.56
8.88
7.71
6.13
4.31
2.47
0.77
-0.75
-2.19
-3.77
-5.72
-8.15
-11.05
-14.28
-17.58
-20.69
-23.33
-25.25
-26.23
-26.12
-24.84
-22.48
-19.25
-15.47
-11.51
-7.63
-4.03
-0.76
2.17
4.80
7.13
9.12
10.73
11.94
12.82
13.43
13.84
14.06
14.06
13.83
13.42
12.93
12.51
12.24
12.12
12.05
11.89
11.47
10.71
9.57
8.05
6.21
4.13
1.91
-0.33
-2.46
-4.44
-6.30
-8.17
-10.21
-12.51
-15.09
-17.82
-20.45
-22.67
-24.15
-24.62
-23.92
-22.03
-19.03
-15.21
-10.92
-6.54
-2.38
1.36
4.62
7.42
9.73
11.50
12.66
13.12
12.91
12.18
11.17
10.14
9.28
8.71
8.42
8.37
8.49
8.75
9.13
9.60
10.11
10.55
10.85
10.98
10.95
10.80
10.54
10.14
9.50
8.49
7.03
5.08
2.69
-0.09
-3.17
-6.50
-9.99
-13.55
-17.00
-20.09
-22.53
-24.04
-24.38
-23.45
-21.32
-18.23
-14.54
-10.58
-6.62
-2.81
0.78
4.13
7.12
9.62
11.44
12.49
12.81
12.55
12.00
11.39
10.86
10.43
10.04
9.62
9.15
8.65
8.18
7.75
7.38
6.99
6.53
5.94
5.14
4.05
2.56
0.62
-1.72
-4.32
-6.94
-9.36
-11.43
-13.10
-14.44
-15.52
-16.46
-17.34
-18.29
-19.33
-20.41
-21.31
-21.66
-21.05
-19.20
-16.11
-12.09
-7.60
-3.10
1.12
4.97
8.49
11.74
14.68
17.17
19.01
20.11
20.52
20.43
20.08
19.67
19.26
18.80
18.22
17.48
16.66
15.86
15.22
14.77
14.47
14.19
13.82
13.23
12.36
11.20
9.77
8.11
6.26
4.26
2.10
-0.23
-2.73
-5.34
-7.99
-10.54
-12.93
-15.16
-17.25
-19.19
-20.88
-22.09
-22.54
-21.99
-20.40
-17.91
-14.82
-11.43
-8.00
-4.65
-1.46
1.57
4.36
6.85
8.94
10.58
11.73
12.40
12.62
12.39
11.75
10.76
9.58
8.44
7.62
7.37
7.84
9.04
10.82
12.90
14.90
16.50
17.46
17.73
17.42
16.76
16.02
15.36
14.83
14.36
13.79
12.98
11.74
9.91
7.25
3.62
-1.00
-6.35
-11.96
-17.16
-21.29
-23.82
-24.47
-23.24
-20.41
-16.44
-11.94
-7.50
-3.61
-0.54
1.71
3.33
4.66
6.01
7.55
9.36
11.39
13.50
15.53
17.25
18.45
18.97
18.72
17.77
16.34
14.78
13.45
12.64
12.41
12.58
12.79
12.59
11.64
9.81
7.21
4.16
1.14
-1.33
-2.79
-2.95
-1.86
0.08
2.19
3.66
3.84
2.47
-0.31
-4.01
-8.05
-11.89
-15.19
-17.73
-19.32
-19.77
-18.90
-16.70
-13.36
-9.33
-5.16
-1.37
1.75
4.13
5.90
7.19
8.10
8.60
8.60
8.03
6.94
5.48
3.93
2.55
1.52
0.87
0.46
0.05
-0.55
-1.44
-2.57
-3.79
-4.91
-5.84
-6.56
-7.17
-7.80
-8.54
-9.45
-10.53
-11.72
-12.96
-14.12
-15.09
-15.77
-16.07
-15.90
-15.25
-14.15
-12.69
-10.96
-9.04
-6.96
-4.66
-2.03
0.97
4.30
7.74
10.99
13.75
15.84
17.25
18.07
18.43
18.41
17.98
17.06
15.63
13.78
11.72
9.70
7.88
6.29
4.75
3.06
1.09
-1.13
-3.37
-5.38
-6.93
-8.04
-8.85
-9.64
-10.62
-11.89
-13.40
-14.98
-16.49
-17.84
-19.03
-20.09
-21.05
-21.85
-22.35
-22.37
-21.74
-20.39
-18.34
-15.75
-12.79
-9.63
-6.39
-3.14
-0.01
2.86
5.26
7.02
8.05
8.44
8.39
8.15
7.92
7.76
7.61
7.35
6.87
6.15
5.24
4.22
3.19
2.14
1.08
-0.02
-1.17
-2.33
-3.46
-4.47
-5.33
-6.07
-6.72
-7.35
-7.99
-8.65
-9.29
-9.84
-10.28
-10.61
-10.91
-11.28
-11.75
-12.27
-12.58
-12.31
-11.10
-8.74
-5.26
-0.97
3.65
8.10
11.98
15.07
17.25
18.50
18.81
18.26
16.98
15.22
13.30
11.50
10.02
8.91
8.10
7.42
6.71
5.90
4.97
4.02
3.15
2.42
1.86
1.38
0.89
0.31
-0.39
-1.17
-1.96
-2.74
-3.55
-4.47
-5.55
-6.76
-7.99
-9.08
-9.96
-10.64
-11.25
-11.90
-12.58
-13.07
-13.02
-12.09
-10.09
-7.15
-3.66
-0.10
3.11
5.76
7.84
9.47
10.73
11.60
11.96
11.68
10.77
9.38
7.78
6.25
4.96
3.92
3.04
2.21
1.42
0.79
0.52
0.76
1.52
2.60
3.68
4.42
4.62
4.28
3.58
2.74
1.95
1.23
0.50
-0.42
-1.70
-3.44
-5.68
-8.31
-11.19
-14.11
-16.78
-18.92
-20.26
-20.61
-19.87
-18.11
-15.47
-12.18
-8.48
-4.59
-0.73
2.93
6.17
8.84
10.83
12.15
12.91
13.26
13.37
13.32
13.13
12.78
12.28
11.69
11.10
10.61
10.27
10.07
9.92
9.71
9.34
8.75
7.91
6.86
5.61
4.18
2.57
0.83
-0.98
-2.81
-4.60
-6.41
-8.28
-10.26
-12.34
-14.41
-16.32
-17.91
-19.05
-19.61
-19.46
-18.48
-16.58
-13.81
-10.40
-6.70
-3.10
0.08
2.70
4.81
6.54
8.01
9.27
10.23
10.78
10.82
10.34
9.47
8.38
7.27
6.33
5.64
5.22
5.03
5.00
5.00
4.94
4.73
4.34
3.78
3.08
2.28
1.38
0.38
-0.74
-1.91
-3.05
-4.08
-4.96
-5.73
-6.48
-7.31
-8.31
-9.51
-10.92
-12.44
-13.92
-15.13
-15.77
-15.63
-14.58
-12.65
-10.03
-6.94
-3.66
-0.35
2.86
5.92
8.78
11.37
13.56
15.19
16.16
16.43
16.11
15.41
14.57
13.76
13.05
12.38
11.70
10.94
10.09
9.21
8.31
7.43
6.59
5.81
5.10
4.44
3.76
2.98
1.97
0.72
-0.78
-2.40
-4.05
-5.61
-7.02
-8.27
-9.35
-10.31
-11.19
-12.10
-13.13
-14.36
-15.81
-17.33
-18.66
-19.39
-19.15
-17.70
-15.09
-11.64
-7.82
-4.08
-0.71
2.22
4.74
6.86
8.48
9.45
9.73
9.44
8.87
8.37
8.11
8.04
7.98
7.74
7.27
6.69
6.14
5.71
5.35
4.93
4.33
3.55
2.61
1.60
0.54
-0.58
-1.76
-3.02
-4.30
-5.57
-6.81
-8.00
-9.11
-10.11
-10.96
-11.65
-12.24
-12.87
-13.62
-14.48
-15.27
-15.69
-15.46
-14.42
-12.59
-10.15
-7.38
-4.51
-1.70
0.94
3.35
5.43
7.11
8.32
9.05
9.38
9.40
9.20
8.86
8.45
8.04
7.67
7.36
7.08
6.79
6.47
6.19
6.02
6.03
6.18
6.31
6.22
5.78
5.01
4.05
3.10
2.26
1.55
0.87
0.15
-0.65
-1.52
-2.44
-3.44
-4.60
-5.97
-7.55
-9.25
-10.88
-12.24
-13.16
-13.54
-13.36
-12.65
-11.45
-9.79
-7.69
-5.23
-2.52
0.26
2.88
5.16
6.99
8.37
9.34
9.96
10.25
10.22
9.88
9.28
8.50
7.64
6.79
6.02
5.39
4.91
4.59
4.42
4.29
4.12
3.85
3.46
2.96
2.35
1.63
0.77
-0.25
-1.35
-2.43
-3.40
-4.22
-4.99
-5.86
-6.97
-8.39
-10.04
-11.79
-13.45
-14.84
-15.80
-16.21
-15.93
-14.90
-13.12
-10.71
-7.86
-4.79
-1.70
1.20
3.77
5.91
7.58
8.80
9.68
10.30
10.73
10.93
10.84
10.33
9.39
8.11
6.73
5.51
4.67
4.26
4.15
4.07
3.73
2.98
1.90
0.67
-0.47
-1.46
-2.35
-3.29
-4.40
-5.64
-6.89
-7.98
-8.86
-9.62
-10.44
-11.47
-12.79
-14.35
-16.02
-17.61
-18.94
-19.83
-20.07
-19.55
-18.18
-16.03
-13.23
-10.02
-6.64
-3.35
-0.34
2.30
4.52
6.34
7.78
8.84
9.47
9.67
9.53
9.17
8.79
8.48
8.25
8.02
7.68
7.19
6.60
5.99
5.46
5.04
4.68
4.30
3.73
2.89
1.70
0.22
-1.41
-3.01
-4.41
-5.58
-6.65
-7.83
-9.34
-11.29
-13.63
-16.20
-18.73
-20.98
-22.70
-23.70
-23.80
-22.97
-21.25
-18.87
-16.10
-13.23
-10.44
-7.76
-5.09
-2.30
0.66
3.74
6.70
9.29
11.27
12.57
13.28
13.59
13.74
13.85
13.95
14.02
13.98
13.77
13.38
12.79
12.04
11.14
10.09
8.87
7.45
5.78
3.86
1.74
-0.45
-2.57
-4.52
-6.29
-7.92
-9.55
-11.30
-13.26
-15.45
-17.78
-20.03
-21.93
-23.12
-23.34
-22.43
-20.38
-17.37
-13.61
-9.36
-4.83
-0.23
4.20
8.19
11.55
14.13
15.94
17.09
17.70
17.91
17.81
17.46
16.93
16.30
15.63
14.98
14.31
13.58
12.70
11.62
10.34
8.90
7.43
6.04
4.77
3.57
2.28
0.75
-1.07
-3.07
-5.07
-6.85
-8.36
-9.72
-11.19
-12.96
-15.08
-17.35
-19.45
-21.03
-21.81
-21.65
-20.51
-18.33
-15.10
-10.84
-5.69
0.08
6.10
11.96
17.32
21.93
25.65
28.42
30.23
31.15
31.28
30.77
29.82
28.60
27.23
25.78
24.28
22.77
21.34
20.06
19.00
18.16
17.43
16.64
15.58
14.12
12.16
9.77
7.07
4.26
1.57
-0.78
-2.65
-4.00
-4.94
-5.73
-6.68
-8.07
-10.03
-12.53
-15.36
-18.19
-20.65
-22.36
-23.07
-22.64
-21.13
-18.69
-15.55
-11.94
-8.07
-4.13
-0.34
3.04
5.85
8.04
9.77
11.29
12.79
14.28
15.57
16.40
16.62
16.29
15.68
15.10
14.71
14.49
14.24
13.75
12.94
11.90
10.83
9.86
8.96
7.99
6.71
5.02
2.97
0.73
-1.49
-3.51
-5.30
-6.89
-8.36
-9.76
-11.09
-12.33
-13.46
-14.51
-15.51
-16.47
-17.31
-17.85
-17.83
-16.97
-15.08
-12.11
-8.25
-3.85
0.62
4.72
8.18
10.94
13.07
14.72
15.99
16.91
17.46
17.60
17.35
16.83
16.16
15.38
14.45
13.23
11.57
9.44
6.97
4.44
2.11
0.20
-1.31
-2.58
-3.83
-5.26
-6.93
-8.76
-10.62
-12.41
-14.12
-15.82
-17.62
-19.57
-21.66
-23.80
-25.92
-27.94
-29.87
-31.71
-33.42
-34.81
-35.56
-35.27
-33.58
-30.32
-25.60
-19.78
-13.36
-6.81
-0.46
5.53
11.11
16.25
20.82
24.69
27.72
29.88
31.27
32.10
32.54
32.67
32.42
31.64
30.19
28.03
25.32
22.33
19.35
16.60
14.11
11.76
9.39
6.87
4.18
1.43
-1.26
-3.79
-6.13
-8.30
-10.31
-12.19
-13.91
-15.50
-16.99
-18.47
-20.02
-21.63
-23.15
-24.31
-24.81
-24.36
-22.84
-20.30
-16.89
-12.84
-8.32
-3.51
1.46
6.44
11.22
15.56
19.20
21.95
23.68
24.38
24.15
23.22
21.88
20.43
19.09
17.96
16.99
16.06
15.06
13.92
12.72
11.53
10.44
9.49
8.63
7.84
7.10
6.43
5.91
5.54
5.27
4.91
4.27
3.19
1.62
-0.33
-2.51
-4.75
-7.00
-9.31
-11.72
-14.24
-16.77
-19.05
-20.77
-21.59
-21.29
-19.80
-17.22
-13.80
-9.85
-5.63
-1.31
3.03
7.29
11.33
14.89
17.70
19.58
20.57
20.90
20.90
20.83
20.81
20.79
20.63
20.21
19.49
18.51
17.31
15.96
14.52
13.09
11.75
10.60
9.63
8.74
7.72
6.43
4.82
2.97
1.04
-0.85
-2.67
-4.51
-6.47
-8.63
-10.96
-13.34
-15.59
-17.49
-18.82
-19.34
-18.88
-17.36
-14.81
-11.43
-7.50
-3.27
1.03
5.22
9.15
12.61
15.38
17.33
18.46
18.93
19.01
18.97
18.92
18.82
18.53
17.93
16.97
15.73
14.37
13.02
11.66
10.23
8.58
6.60
4.24
1.55
-1.41
-4.52
-7.63
-10.57
-13.16
-15.24
-16.76
-17.76
-18.41
-18.97
-19.64
-20.53
-21.62
-22.73
-23.58
-23.86
-23.33
-21.86
-19.45
-16.22
-12.40
-8.22
-3.89
0.35
4.29
7.65
10.19
11.67
12.00
11.30
9.83
7.95
6.01
4.20
2.48
0.68
-1.41
-3.87
-6.52
-9.05
-11.10
-12.43
-13.09
-13.30
-13.46
-13.87
-14.71
-15.90
-17.21
-18.36
-19.15
-19.57
-19.80
-20.07
-20.61
-21.44
-22.44
-23.42
-24.25
-24.95
-25.56
-26.07
-26.28
-25.83
-24.42
-21.92
-18.49
-14.46
-10.17
-5.79
-1.39
3.03
7.30
11.10
14.00
15.70
16.16
15.67
14.73
13.88
13.44
13.45
13.68
13.82
13.60
12.99
12.17
11.42
10.90
10.59
10.25
9.53
8.18
6.15
3.62
0.91
-1.68
-4.00
-6.03
-7.88
-9.73
-11.72
-13.89
-16.21
-18.55
-20.72
-22.46
-23.53
-23.68
-22.79
-20.82
-17.89
-14.26
-10.23
-6.09
-2.04
1.75
5.19
8.19
10.66
12.52
13.75
14.41
14.62
14.48
14.06
13.39
12.50
11.46
10.39
9.38
8.47
7.64
6.79
5.88
4.95
4.08
3.36
2.79
2.24
1.55
0.59
-0.67
-2.10
-3.55
-4.90
-6.22
-7.67
-9.50
-11.83
-14.53
-17.23
-19.38
-20.47
-20.20
-18.60
-15.98
-12.78
-9.36
-5.95
-2.58
0.75
4.00
6.98
9.48
11.31
12.44
13.04
13.35
13.64
14.04
14.57
15.13
15.63
16.00
16.26
16.48
16.69
16.89
17.00
16.94
16.68
16.26
15.82
15.48
15.25
15.01
14.50
13.50
11.90
9.82
7.54
5.40
3.58
2.09
0.73
-0.77
-2.61
-4.79
-7.12
-9.29
-10.93
-11.76
-11.66
-10.63
-8.78
-6.26
-3.21
0.23
3.92
7.66
11.14
14.05
16.13
17.31
17.69
17.51
17.05
16.44
15.70
14.78
13.65
12.42
11.32
10.56
10.20
10.12
10.01
9.55
8.57
7.06
5.24
3.36
1.65
0.24
-0.88
-1.88
-2.98
-4.43
-6.36
-8.76
-11.40
-13.97
-16.11
-17.54
-18.19
-18.18
-17.78
-17.34
-17.15
-17.36
-17.93
-18.67
-19.27
-19.42
-18.86
-17.42
-15.07
-11.97
-8.42
-4.82
-1.55
1.11
3.08
4.48
5.47
6.17
6.62
6.76
6.55
6.05
5.40
4.76
4.24
3.82
3.42
2.92
2.32
1.70
1.20
0.93
0.90
0.95
0.90
0.60
0.04
-0.65
-1.31
-1.85
-2.33
-2.93
-3.81
-5.00
-6.32
-7.46
-8.14
-8.24
-7.92
-7.54
-7.45
-7.89
-8.87
-10.11
-11.21
-11.74
-11.41
-10.11
-7.89
-4.94
-1.49
2.22
6.00
9.69
13.16
16.23
18.71
20.45
21.36
21.46
20.88
19.80
18.44
16.95
15.44
13.96
12.54
11.20
10.00
8.95
8.03
7.14
6.19
5.14
3.99
2.85
1.82
0.96
0.26
-0.39
-1.09
-1.91
-2.85
-3.83
-4.80
-5.68
-6.50
-7.34
-8.30
-9.53
-11.07
-12.90
-14.87
-16.80
-18.44
-19.64
-20.25
-20.13
-19.16
-17.24
-14.40
-10.79
-6.80
-2.83
0.71
3.58
5.73
7.27
8.38
9.20
9.80
10.18
10.26
9.96
9.26
8.26
7.13
6.09
5.32
4.85
4.59
4.37
4.07
3.64
3.11
2.56
2.01
1.43
0.71
-0.20
-1.31
-2.51
-3.66
-4.66
-5.51
-6.29
-7.16
-8.25
-9.57
-11.07
-12.63
-14.16
-15.57
-16.81
-17.79
-18.36
-18.35
-17.60
-16.05
-13.77
-10.93
-7.79
-4.60
-1.62
0.96
2.99
4.43
5.28
5.62
5.58
5.24
4.72
4.10
3.50
3.01
2.65
2.36
2.01
1.49
0.77
-0.05
-0.81
-1.32
-1.51
-1.50
-1.49
-1.73
-2.32
-3.22
-4.24
-5.18
-5.91
-6.41
-6.77
-7.12
-7.56
-8.12
-8.78
-9.56
-10.51
-11.69
-13.13
-14.67
-15.99
-16.64
-16.19
-14.41
-11.34
-7.29
-2.72
1.92
6.31
10.27
13.74
16.69
19.06
20.75
21.65
21.73
21.07
19.87
18.39
16.92
15.66
14.67
13.91
13.23
12.48
11.53
10.37
9.02
7.61
6.24
5.00
3.95
3.04
2.19
1.28
0.23
-0.99
-2.32
-3.67
-4.95
-6.07
-7.04
-7.88
-8.68
-9.55
-10.62
-11.98
-13.60
-15.29
-16.68
-17.32
-16.80
-14.98
-11.96
-8.12
-3.93
0.21
4.06
7.50
10.50
13.05
15.09
16.56
17.41
17.66
17.37
16.72
15.88
15.01
14.27
13.70
13.30
12.97
12.61
12.12
11.47
10.69
9.87
9.11
8.43
7.79
7.08
6.18
5.03
3.62
2.08
0.52
-0.97
-2.39
-3.78
-5.18
-6.62
-8.08
-9.59
-11.23
-13.12
-15.30
-17.62
-19.69
-21.01
-21.14
-19.86
-17.31
-13.82
-9.84
-5.74
-1.72
2.08
5.55
8.52
10.77
12.16
12.70
12.56
12.02
11.32
10.59
9.79
8.84
7.66
6.25
4.72
3.26
2.02
1.06
0.31
-0.38
-1.21
-2.30
-3.67
-5.23
-6.80
-8.28
-9.64
-10.99
-12.44
-14.02
-15.63
-17.06
-18.13
-18.78
-19.14
-19.46
-19.97
-20.77
-21.82
-22.92
-23.83
-24.30
-24.11
-23.05
-21.04
-18.10
-14.43
-10.31
-6.05
-1.83
2.25
6.13
9.65
12.60
14.71
15.84
16.08
15.69
15.03
14.39
13.94
13.65
13.42
13.15
12.77
12.24
11.56
10.73
9.74
8.64
7.48
6.36
5.37
4.51
3.69
2.71
1.39
-0.43
-2.72
-5.28
-7.81
-10.02
-11.81
-13.29
-14.72
-16.40
-18.47
-20.86
-23.23
-25.11
-25.99
-25.52
-23.59
-20.35
-16.15
-11.44
-6.60
-1.90
2.51
6.51
10.00
12.83
14.89
16.12
16.65
16.69
16.45
16.12
15.72
15.19
14.48
13.55
12.48
11.39
10.43
9.69
9.16
8.77
8.41
7.97
7.34
6.48
5.37
3.99
2.34
0.49
-1.47
-3.33
-4.95
-6.28
-7.44
-8.72
-10.42
-12.70
-15.49
-18.46
-21.11
-22.94
-23.59
-22.85
-20.75
-17.46
-13.25
-8.46
-3.40
1.60
6.25
10.34
13.71
16.25
17.97
18.96
19.33
19.25
18.84
18.21
17.42
16.55
15.62
14.69
13.79
12.91
11.98
10.96
9.82
8.58
7.30
6.03
4.77
3.42
1.86
-0.03
-2.23
-4.56
-6.78
-8.62
-10.01
-11.02
-11.92
-12.99
-14.47
-16.42
-18.78
-21.34
-23.79
-25.80
-26.97
-27.00
-25.67
-22.98
-19.11
-14.35
-9.06
-3.59
1.74
6.66
10.92
14.35
16.85
18.48
19.34
19.62
19.50
19.09
18.47
17.66
16.70
15.61
14.43
13.22
12.05
10.98
10.03
9.19
8.45
7.74
6.99
6.08
4.88
3.29
1.30
-0.95
-3.22
-5.23
-6.80
-7.94
-8.86
-9.86
-11.23
-13.11
-15.46
-18.04
-20.47
-22.36
-23.32
-23.11
-21.63
-18.94
-15.20
-10.65
-5.58
-0.26
4.98
9.79
13.87
16.96
18.97
19.97
20.16
19.81
19.19
18.52
17.91
17.40
16.94
16.49
16.00
15.52
15.08
14.74
14.44
14.10
13.55
12.65
11.39
9.85
8.16
6.45
4.71
2.89
0.86
-1.39
-3.78
-6.10
-8.19
-9.98
-11.57
-13.19
-15.06
-17.29
-19.84
-22.54
-25.10
-27.21
-28.53
-28.71
-27.49
-24.73
-20.52
-15.15
-9.11
-2.92
2.94
8.14
12.53
16.11
18.93
21.05
22.52
23.30
23.38
22.80
21.73
20.38
19.04
17.88
17.00
16.34
15.76
15.11
14.29
13.28
12.13
10.91
9.71
8.57
7.43
6.22
4.81
3.18
1.34
-0.62
-2.64
-4.64
-6.63
-8.57
-10.44
-12.17
-13.74
-15.20
-16.71
-18.45
-20.55
-22.93
-25.22
-26.91
-27.46
-26.49
-23.97
-20.14
-15.45
-10.34
-5.07
0.18
5.36
10.31
14.77
18.38
20.87
22.16
22.41
21.94
21.06
19.97
18.72
17.30
15.74
14.22
12.95
12.12
11.78
11.75
11.76
11.56
10.98
10.03
8.79
7.41
6.05
4.79
3.68
2.65
1.59
0.34
-1.21
-3.07
-5.11
-7.09
-8.81
-10.18
-11.27
-12.32
-13.59
-15.23
-17.19
-19.24
-21.00
-22.07
-22.10
-20.89
-18.41
-14.74
-10.06
-4.70
0.95
6.42
11.26
15.13
17.90
19.63
20.52
20.78
20.57
19.99
19.07
17.87
16.51
15.14
13.94
13.04
12.52
12.34
12.38
12.45
12.34
11.90
11.06
9.88
8.45
6.86
5.11
3.15
0.96
-1.45
-3.96
-6.44
-8.82
-11.11
-13.38
-15.64
-17.84
-19.90
-21.77
-23.51
-25.30
-27.34
-29.68
-32.12
-34.19
-35.31
-34.97
-32.91
-29.21
-24.21
-18.38
-12.15
-5.80
0.49
6.56
12.17
17.01
20.76
23.23
24.46
24.74
24.46
23.98
23.52
23.06
22.50
21.69
20.58
19.25
17.86
16.59
15.47
14.42
13.20
11.61
9.58
7.21
4.77
2.61
0.96
-0.11
-0.81
-1.47
-2.41
-3.79
-5.54
-7.44
-9.19
-10.60
-11.68
-12.60
-13.61
-14.91
-16.54
-18.39
-20.25
-21.89
-23.12
-23.75
-23.56
-22.33
-19.92
-16.37
-11.98
-7.22
-2.62
1.42
4.75
7.43
9.65
11.54
13.09
14.18
14.68
14.55
13.89
12.96
12.03
11.34
11.00
10.96
11.09
11.24
11.30
11.23
11.07
10.82
10.49
9.99
9.24
8.17
6.78
5.15
3.40
1.63
-0.08
-1.72
-3.27
-4.74
-6.11
-7.40
-8.62
-9.83
-11.08
-12.47
-14.08
-15.90
-17.85
-19.64
-20.91
-21.24
-20.37
-18.25
-15.12
-11.35
-7.37
-3.50
0.06
3.25
6.02
8.33
10.07
11.17
11.64
11.58
11.21
10.74
10.29
9.85
9.27
8.39
7.18
5.73
4.32
3.21
2.59
2.39
2.39
2.32
2.02
1.46
0.74
-0.01
-0.77
-1.64
-2.72
-4.08
-5.62
-7.13
-8.39
-9.29
-9.90
-10.43
-11.14
-12.19
-13.61
-15.31
-17.10
-18.75
-20.00
-20.58
-20.27
-18.93
-16.55
-13.27
-9.35
-5.10
-0.82
3.23
6.83
9.81
12.07
13.57
14.39
14.68
14.61
14.34
13.94
13.42
12.78
12.03
11.20
10.37
9.58
8.85
8.17
7.51
6.88
6.23
5.59
4.94
4.24
3.43
2.45
1.23
-0.22
-1.80
-3.35
-4.67
-5.62
-6.19
-6.54
-6.95
-7.69
-8.91
-10.64
-12.69
-14.81
-16.72
-18.21
-19.12
-19.29
-18.61
-16.97
-14.37
-10.92
-6.89
-2.67
1.38
4.96
7.88
10.15
11.80
12.89
13.49
13.66
13.47
13.00
12.36
11.63
10.84
9.97
8.98
7.85
6.61
5.37
4.28
3.49
3.03
2.79
2.54
2.03
1.08
-0.28
-1.88
-3.44
-4.75
-5.74
-6.51
-7.22
-8.05
-9.02
-10.11
-11.18
-12.10
-12.82
-13.37
-13.90
-14.56
-15.48
-16.62
-17.76
-18.53
-18.55
-17.52
-15.39
-12.33
-8.64
-4.70
-0.77
2.92
6.26
9.14
11.44
13.05
13.90
14.00
13.48
12.59
11.55
10.57
9.69
8.88
8.04
7.12
6.18
5.31
4.63
4.12
3.69
3.18
2.51
1.72
0.95
0.31
-0.16
-0.60
-1.20
-2.05
-3.15
-4.33
-5.42
-6.30
-6.97
-7.61
-8.41
-9.54
-11.05
-12.86
-14.74
-16.40
-17.52
-17.84
-17.22
-15.64
-13.23
-10.19
-6.77
-3.20
0.31
3.62
6.57
9.06
11.06
12.55
13.53
14.01
14.03
13.61
12.87
11.97
11.11
10.47
10.12
10.02
10.03
9.95
9.65
9.10
8.36
7.56
6.79
6.03
5.24
4.33
3.24
1.99
0.63
-0.75
-2.12
-3.44
-4.71
-5.97
-7.22
-8.49
-9.81
-11.20
-12.67
-14.25
-15.93
-17.72
-19.52
-21.16
-22.37
-22.85
-22.35
-20.77
-18.17
-14.76
-10.81
-6.56
-2.23
2.01
5.97
9.45
12.25
14.30
15.63
16.43
16.95
17.42
17.98
18.59
19.06
19.21
18.88
18.04
16.82
15.44
14.09
12.84
11.63
10.26
8.56
6.45
4.10
1.80
-0.11
-1.46
-2.32
-2.96
-3.72
-4.83
-6.25
-7.79
-9.18
-10.27
-11.10
-11.87
-12.84
-14.18
-15.89
-17.80
-19.58
-20.86
-21.29
-20.63
-18.81
-15.96
-12.33
-8.29
-4.19
-0.33
3.11
6.01
8.36
10.18
11.50
12.37
12.86
13.01
12.89
12.56
12.08
11.46
10.71
9.82
8.82
7.82
6.95
6.35
6.05
5.93
5.78
5.35
4.50
3.27
1.84
0.42
-0.83
-1.89
-2.83
-3.77
-4.77
-5.79
-6.77
-7.68
-8.52
-9.36
-10.28
-11.31
-12.42
-13.50
-14.40
-14.94
-14.97
-14.40
-13.22
-11.48
-9.22
-6.51
-3.38
0.04
3.56
6.89
9.68
11.68
12.78
13.06
12.72
11.96
10.96
9.83
8.66
7.60
6.82
6.44
6.52
6.99
7.64
8.26
8.64
8.66
8.31
7.67
6.88
6.05
5.25
4.43
3.53
2.50
1.33
0.09
-1.18
-2.42
-3.68
-5.04
-6.60
-8.44
-10.58
-12.96
-15.46
-17.88
-19.98
-21.47
-22.12
-21.74
-20.23
-17.62
-14.03
-9.65
-4.77
0.24
4.98
9.05
12.22
14.42
15.76
16.47
16.75
16.71
16.41
15.82
15.00
14.06
13.14
12.32
11.60
10.88
10.04
9.06
7.99
6.95
6.03
5.24
4.42
3.40
2.04
0.33
-1.62
-3.58
-5.35
-6.79
-7.91
-8.80
-9.60
-10.50
-11.67
-13.23
-15.25
-17.75
-20.65
-23.75
-26.73
-29.17
-30.67
-30.90
-29.71
-27.15
-23.50
-19.16
-14.59
-10.18
-6.20
-2.80
-0.01
2.21
3.93
5.21
6.14
6.83
7.37
7.88
8.47
9.16
9.89
10.56
11.03
11.25
11.26
11.16
11.05
10.99
10.91
10.70
10.26
9.56
8.68
7.68
6.62
5.47
4.19
2.70
1.03
-0.80
-2.72
-4.69
-6.72
-8.85
-11.13
-13.55
-16.02
-18.35
-20.21
-21.26
-21.23
-19.95
-17.49
-14.07
-9.97
-5.50
-0.89
3.66
7.99
11.87
15.03
17.21
18.30
18.38
17.72
16.77
15.89
15.32
15.11
15.09
15.06
14.84
14.37
13.74
13.07
12.46
11.89
11.26
10.40
9.20
7.64
5.79
3.79
1.75
-0.30
-2.38
-4.48
-6.57
-8.52
-10.21
-11.62
-12.85
-14.13
-15.69
-17.69
-20.12
-22.73
-25.12
-26.80
-27.34
-26.45
-24.09
-20.45
-15.89
-10.79
-5.53
-0.38
4.48
8.83
12.51
15.35
17.30
18.44
19.00
19.22
19.32
19.36
19.28
18.98
18.39
17.51
16.45
15.33
14.25
13.23
12.24
11.23
10.18
9.08
8.01
6.96
5.89
4.71
3.32
1.71
-0.02
-1.67
-3.04
-4.05
-4.77
-5.43
-6.27
-7.50
-9.17
-11.25
-13.62
-16.15
-18.66
-20.93
-22.64
-23.47
-23.18
-21.71
-19.21
-16.05
-12.61
-9.24
-6.10
-3.22
-0.54
1.98
4.36
6.55
8.46
10.04
11.27
12.20
12.91
13.54
14.17
14.86
15.55
16.10
16.36
16.25
15.78
15.05
14.18
13.25
12.22
10.98
9.47
7.65
5.63
3.59
1.71
0.15
-1.09
-2.05
-2.88
-3.74
-4.77
-6.08
-7.73
-9.74
-12.03
-14.43
-16.62
-18.24
-18.92
-18.43
-16.76
-14.11
-10.81
-7.21
-3.57
0.01
3.47
6.71
9.53
11.70
13.01
13.44
13.19
12.61
12.07
11.78
11.80
12.07
12.49
13.01
13.60
14.21
14.75
15.05
14.98
14.48
13.59
12.37
10.86
9.03
6.88
4.45
1.93
-0.42
-2.38
-3.91
-5.18
-6.47
-8.01
-9.90
-12.14
-14.66
-17.47
-20.60
-24.01
-27.40
-30.29
-32.02
-32.09
-30.29
-26.81
-22.13
-16.78
-11.24
-5.82
-0.70
3.99
8.16
11.73
14.62
16.76
18.13
18.72
18.61
18.00
17.15
16.35
15.80
15.57
15.58
15.67
15.69
15.52
15.11
14.42
13.37
11.91
10.02
7.82
5.50
3.28
1.31
-0.42
-2.03
-3.71
-5.60
-7.72
-10.01
-12.33
-14.62
-16.87
-19.18
-21.62
-24.16
-26.60
-28.58
-29.66
-29.48
-27.88
-24.92
-20.87
-16.11
-10.99
-5.75
-0.60
4.31
8.82
12.75
15.92
18.24
19.67
20.25
20.09
19.33
18.17
16.81
15.48
14.35
13.47
12.78
12.11
11.21
9.87
7.96
5.49
2.59
-0.56
-3.71
-6.66
-9.24
-11.34
-12.99
-14.31
-15.51
-16.78
-18.22
-19.79
-21.35
-22.73
-23.90
-24.93
-25.96
-27.03
-27.99
-28.50
-28.14
-26.55
-23.62
-19.43
-14.27
-8.49
-2.49
3.39
8.79
13.43
17.09
19.71
21.35
22.19
22.41
22.16
21.55
20.67
19.61
18.49
17.44
16.59
16.01
15.73
15.69
15.79
15.91
15.94
15.79
15.42
14.81
13.90
12.69
11.15
9.35
7.40
5.45
3.59
1.85
0.18
-1.52
-3.30
-5.19
-7.21
-9.37
-11.69
-14.15
-16.60
-18.76
-20.22
-20.60
-19.65
-17.36
-13.96
-9.81
-5.26
-0.53
4.28
9.13
13.94
18.48
22.41
25.40
27.29
28.13
28.15
27.66
26.88
25.95
24.90
23.76
22.60
21.54
20.71
20.14
19.72
19.29
18.65
17.68
16.35
14.81
13.23
11.72
10.34
8.98
7.49
5.71
3.60
1.20
-1.31
-3.75
-5.96
-7.85
-9.46
-10.90
-12.36
-14.01
-15.93
-18.08
-20.25
-22.08
-23.15
-23.11
-21.73
-18.98
-15.02
-10.19
-4.95
0.22
4.92
8.87
11.98
14.27
15.85
16.73
16.88
16.26
14.87
12.90
10.65
8.45
6.53
4.97
3.69
2.60
1.65
0.89
0.40
0.21
0.24
0.29
0.19
-0.24
-1.04
-2.17
-3.53
-5.03
-6.58
-8.11
-9.56
-10.86
-11.95
-12.76
-13.30
-13.62
-13.88
-14.25
-14.87
-15.77
-16.76
-17.54
-17.71
-16.96
-15.13
-12.25
-8.53
-4.28
0.16
4.50
8.50
12.02
14.94
17.20
18.76
19.60
19.75
19.30
18.43
17.28
16.02
14.73
13.44
12.16
10.93
9.79
8.79
7.92
7.14
6.37
5.54
4.60
3.49
2.17
0.60
-1.21
-3.20
-5.26
-7.29
-9.15
-10.78
-12.10
-13.11
-13.82
-14.38
-14.99
-15.91
-17.29
-19.18
-21.36
-23.45
-24.93
-25.28
-24.15
-21.45
-17.44
-12.61
-7.60
-2.92
1.09
4.37
6.93
8.88
10.24
11.01
11.25
11.05
10.59
9.98
9.28
8.46
7.48
6.39
5.32
4.43
3.86
3.58
3.43
3.20
2.69
1.86
0.79
-0.31
-1.28
-2.04
-2.66
-3.27
-4.03
-4.98
-6.04
-7.08
-7.96
-8.67
-9.31
-10.05
-11.00
-12.15
-13.32
-14.18
-14.37
-13.60
-11.78
-9.04
-5.66
-2.01
1.59
4.88
7.71
9.95
11.49
12.28
12.36
11.89
11.08
10.20
9.41
8.76
8.17
7.53
6.72
5.73
4.64
3.64
2.94
2.68
2.84
3.24
3.60
3.61
3.06
1.89
0.22
-1.76
-3.84
-5.84
-7.65
-9.21
-10.51
-11.63
-12.71
-13.96
-15.54
-17.49
-19.63
-21.57
-22.87
-23.12
-22.11
-19.85
-16.56
-12.60
-8.34
-4.08
-0.09
3.45
6.44
8.80
10.49
11.53
11.96
11.87
11.45
10.89
10.41
10.14
10.06
10.00
9.73
9.11
8.15
7.05
6.06
5.39
5.04
4.85
4.55
3.87
2.69
1.04
-0.87
-2.79
-4.53
-6.01
-7.31
-8.61
-10.12
-11.99
-14.25
-16.81
-19.41
-21.73
-23.37
-24.01
-23.45
-21.68
-18.88
-15.28
-11.20
-6.91
-2.68
1.22
4.56
7.18
9.08
10.38
11.29
11.96
12.40
12.48
12.08
11.20
10.02
8.79
7.74
6.96
6.44
6.09
5.82
5.51
5.06
4.30
3.11
1.47
-0.48
-2.46
-4.14
-5.28
-5.88
-6.10
-6.24
-6.60
-7.38
-8.64
-10.33
-12.27
-14.25
-16.00
-17.25
-17.76
-17.31
-15.82
-13.32
-10.02
-6.27
-2.38
1.39
4.91
8.09
10.86
13.09
14.56
15.15
14.86
13.91
12.60
11.28
10.14
9.26
8.60
8.08
7.69
7.44
7.34
7.35
7.37
7.26
6.93
6.29
5.34
4.08
2.50
0.64
-1.44
-3.57
-5.55
-7.15
-8.32
-9.17
-10.01
-11.18
-12.94
-15.32
-18.07
-20.73
-22.82
-23.92
-23.81
-22.44
-19.90
-16.38
-12.14
-7.47
-2.71
1.77
5.69
8.89
11.33
13.11
14.32
15.05
15.29
15.03
14.31
13.25
12.09
11.09
10.40
10.01
9.77
9.44
8.90
8.14
7.31
6.57
5.99
5.46
4.77
3.71
2.20
0.35
-1.62
-3.49
-5.11
-6.51
-7.78
-9.09
-10.55
-12.28
-14.28
-16.53
-18.92
-21.24
-23.18
-24.43
-24.70
-23.82
-21.76
-18.66
-14.74
-10.32
-5.66
-1.01
3.40
7.36
10.66
13.11
14.63
15.25
15.11
14.48
13.58
12.60
11.58
10.54
9.43
8.24
6.97
5.67
4.39
3.21
2.27
1.64
1.35
1.34
1.53
1.80
2.09
2.36
2.55
2.59
2.37
1.81
0.93
-0.21
-1.56
-3.17
-5.15
-7.64
-10.69
-14.12
-17.58
-20.61
-22.73
-23.63
-23.09
-21.02
-17.51
-12.78
-7.24
-1.44
4.07
8.81
12.52
15.13
16.78
17.69
18.08
18.16
18.03
17.77
17.37
16.86
16.25
15.59
14.92
14.28
13.63
12.87
11.93
10.72
9.25
7.62
5.97
4.42
3.01
1.70
0.32
-1.26
-3.14
-5.30
-7.61
-9.87
-11.95
-13.78
-15.41
-16.96
-18.52
-20.16
-21.80
-23.25
-24.23
-24.38
-23.36
-20.96
-17.14
-12.07
-6.10
0.26
6.51
12.21
17.08
20.99
23.94
26.00
27.26
27.77
27.54
26.60
25.01
22.92
20.55
18.15
16.00
14.32
13.20
12.66
12.58
12.70
12.72
12.43
11.79
10.90
9.99
9.25
8.73
8.32
7.84
7.10
6.04
4.76
3.41
2.15
1.00
-0.17
-1.53
-3.25
-5.39
-7.82
-10.29
-12.48
-14.08
-14.89
-14.80
-13.81
-12.00
-9.48
-6.44
-3.11
0.28
3.45
6.19
8.31
9.69
10.24
9.93
8.80
7.02
4.87
2.72
0.97
-0.11
-0.45
-0.17
0.45
1.09
1.56
1.77
1.78
1.67
1.51
1.32
1.07
0.72
0.26
-0.30
-0.94
-1.63
-2.36
-3.05
-3.65
-4.08
-4.35
-4.50
-4.65
-4.96
-5.59
-6.66
-8.22
-10.23
-12.47
-14.61
-16.23
-16.94
-16.48
-14.83
-12.13
-8.71
-4.95
-1.19
2.30
5.38
7.98
10.09
11.69
12.72
13.11
12.85
11.99
10.72
9.28
7.88
6.64
5.59
4.77
4.24
4.12
4.52
5.44
6.73
8.17
9.51
10.61
11.44
12.03
12.37
12.41
11.97
10.97
9.40
7.39
5.22
3.11
1.22
-0.45
-2.01
-3.63
-5.43
-7.44
-9.64
-11.89
-14.00
-15.71
-16.71
-16.70
-15.47
-13.04
-9.66
-5.81
-2.03
1.21
3.69
5.45
6.71
7.73
8.66
9.47
10.05
10.28
10.17
9.81
9.36
8.91
8.45
7.90
7.24
6.51
5.82
5.25
4.78
4.29
3.65
2.82
1.88
1.02
0.39
0.02
-0.19
-0.42
-0.87
-1.58
-2.53
-3.58
-4.59
-5.46
-6.16
-6.77
-7.38
-8.11
-9.04
-10.15
-11.31
-12.33
-13.03
-13.21
-12.81
-11.82
-10.30
-8.38
-6.16
-3.79
-1.38
0.94
2.99
4.59
5.56
5.79
5.30
4.26
2.96
1.68
0.60
-0.16
-0.59
-0.68
-0.39
0.28
1.20
2.15
2.80
2.93
2.48
1.59
0.51
-0.58
-1.62
-2.63
-3.66
-4.65
-5.46
-5.95
-6.10
-6.04
-6.01
-6.17
-6.63
-7.36
-8.28
-9.32
-10.41
-11.51
-12.47
-13.10
-13.11
-12.23
-10.33
-7.45
-3.83
0.17
4.13
7.70
10.69
13.02
14.75
15.93
16.63
16.87
16.69
16.14
15.31
14.33
13.32
12.37
11.50
10.66
9.73
8.65
7.42
6.09
4.80
3.62
2.54
1.41
0.03
-1.74
-3.91
-6.25
-8.46
-10.24
-11.47
-12.26
-12.92
-13.72
-14.84
-16.24
-17.72
-19.07
-20.18
-21.05
-21.73
-22.17
-22.22
-21.58
-20.02
-17.46
-14.07
-10.20
-6.27
-2.60
0.63
3.36
5.59
7.27
8.37
8.83
8.66
7.97
6.91
5.66
4.41
3.32
2.47
1.90
1.56
1.36
1.25
1.21
1.27
1.43
1.63
1.71
1.44
0.64
-0.69
-2.39
-4.14
-5.65
-6.80
-7.67
-8.49
-9.52
-10.89
-12.61
-14.52
-16.41
-18.05
-19.23
-19.73
-19.31
-17.79
-15.06
-11.28
-6.81
-2.20
2.04
5.52
8.15
9.99
11.24
12.02
12.38
12.35
11.96
11.37
10.78
10.34
10.07
9.86
9.55
9.02
8.25
7.34
6.41
5.54
4.76
3.97
3.01
1.70
-0.09
-2.35
-4.95
-7.60
-10.02
-12.01
-13.57
-14.93
-16.44
-18.41
-21.00
-24.12
-27.47
-30.57
-32.94
-34.14
-33.91
-32.22
-29.24
-25.33
-20.87
-16.18
-11.46
-6.85
-2.43
1.66
5.21
8.08
10.19
11.61
12.51
13.10
13.55
13.93
14.21
14.34
14.28
14.02
13.62
13.14
12.59
11.94
11.14
10.12
8.87
7.42
5.84
4.21
2.54
0.82
-0.99
-2.95
-5.09
-7.42
-9.96
-12.73
-15.70
-18.78
-21.79
-24.46
-26.43
-27.37
-27.00
-25.21
-22.11
-17.96
-13.18
-8.12
-3.06
1.86
6.58
11.03
15.06
18.47
21.05
22.77
23.82
24.62
25.58
26.95
28.63
30.26
31.31
31.41
30.43
28.63
26.43
24.24
22.31
20.62
18.98
17.17
15.07
12.67
10.09
7.45
4.85
2.34
-0.12
-2.51
-4.84
-7.12
-9.38
-11.71
-14.16
-16.66
-18.97
-20.71
-21.46
-20.93
-19.06
-16.05
-12.24
-8.02
-3.67
0.59
4.65
8.35
11.49
13.89
15.44
16.14
16.16
15.76
15.23
14.81
14.58
14.52
14.45
14.20
13.67
12.88
11.95
11.04
10.28
9.67
9.11
8.43
7.43
6.05
4.31
2.32
0.29
-1.67
-3.49
-5.22
-7.00
-8.99
-11.26
-13.82
-16.49
-19.02
-21.04
-22.22
-22.28
-21.07
-18.67
-15.29
-11.33
-7.15
-3.02
0.94
4.73
8.33
11.68
14.57
16.73
17.95
18.16
17.50
16.27
14.86
13.64
12.85
12.52
12.50
12.51
12.26
11.61
10.60
9.44
8.34
7.42
6.60
5.72
4.59
3.09
1.25
-0.86
-3.11
-5.35
-7.47
-9.38
-11.06
-12.54
-13.95
-15.46
-17.18
-19.10
-21.05
-22.74
-23.84
-24.08
-23.28
-21.33
-18.31
-14.35
-9.77
-4.93
-0.17
4.24
8.13
11.47
14.22
16.33
17.74
18.41
18.35
17.73
16.78
15.76
14.88
14.22
13.73
13.33
12.90
12.35
11.70
10.99
10.32
9.73
9.21
8.64
7.90
6.82
5.35
3.54
1.52
-0.51
-2.39
-4.06
-5.56
-7.02
-8.58
-10.32
-12.27
-14.39
-16.57
-18.67
-20.50
-21.78
-22.26
-21.71
-20.01
-17.21
-13.46
-9.07
-4.37
0.27
4.51
8.08
10.79
12.58
13.51
13.74
13.48
12.92
12.23
11.53
10.86
10.24
9.63
8.96
8.15
7.16
6.01
4.72
3.35
1.95
0.59
-0.62
-1.57
-2.16
-2.41
-2.43
-2.37
-2.40
-2.59
-2.97
-3.50
-4.15
-4.92
-5.83
-6.89
-8.09
-9.45
-11.00
-12.77
-14.72
-16.70
-18.39
-19.36
-19.21
-17.70
-14.89
-11.06
-6.67
-2.19
2.01
5.77
9.01
11.72
13.85
15.28
15.97
15.93
15.33
14.45
13.54
12.78
12.19
11.70
11.19
10.63
10.05
9.49
8.98
8.47
7.87
7.11
6.16
5.07
3.92
2.74
1.57
0.41
-0.72
-1.78
-2.75
-3.63
-4.48
-5.45
-6.73
-8.48
-10.81
-13.73
-17.09
-20.59
-23.81
-26.27
-27.52
-27.29
-25.50
-22.33
-18.10
-13.25
-8.20
-3.30
1.20
5.14
8.40
10.95
12.75
13.86
14.43
14.68
14.84
15.08
15.42
15.79
16.02
16.01
15.74
15.32
14.87
14.47
14.12
13.78
13.35
12.82
12.18
11.44
10.57
9.51
8.17
6.54
4.67
2.68
0.69
-1.26
-3.19
-5.21
-7.45
-10.01
-12.90
-16.03
-19.21
-22.18
-24.64
-26.31
-26.97
-26.58
-25.18
-22.96
-20.07
-16.67
-12.90
-8.91
-4.89
-1.14
2.00
4.27
5.59
6.04
5.88
5.38
4.77
4.18
3.67
3.28
3.05
3.06
3.33
3.87
4.63
5.58
6.60
7.52
8.12
8.13
7.40
5.94
4.01
2.01
0.35
-0.69
-1.08
-1.01
-0.87
-1.04
-1.85
-3.51
-6.02
-9.26
-12.89
-16.44
-19.34
-21.09
-21.34
-19.99
-17.21
-13.30
-8.71
-3.84
0.89
5.19
8.78
11.44
12.97
13.29
12.57
11.19
9.58
8.15
7.08
6.36
5.81
5.21
4.45
3.65
2.97
2.43
1.90
1.16
0.12
-1.04
-2.04
-2.59
-2.31
-1.17
0.36
1.51
1.64
0.60
-1.21
-3.15
-4.58
-4.54
-2.69
0.34
3.14
4.20
2.76
-0.77
-5.24
-8.99
-9.62
-5.63
2.51
12.61
21.85
28.18
31.42
32.46
32.93
35.89
43.86
57.44
75.11
93.60
109.02
118.46
119.11
102.41
65.63
15.56
-34.46
-73.28
-97.61
-110.69
-117.02
-121.88
-129.02
-138.07
-145.32
-147.46
-139.68
-119.17
-85.89
-40.68
11.77
64.68
112.21
150.28
176.75
191.76
197.62
185.09
156.26
118.51
80.28
47.30
21.15
0.66
-15.59
-28.49
-38.68
-44.98
-48.09
-49.84
-51.50
-53.08
-53.82
-52.94
-50.48
-47.53
-44.00
-40.61
-38.26
-37.29
-37.21
-37.12
-36.19
-34.20
-31.65
-28.56
-25.61
-23.70
-23.37
-24.35
-25.97
-27.59
-29.09
-30.75
-32.10
-32.33
-30.35
-25.87
-18.96
-11.09
-4.24
0.27
2.53
4.21
7.12
11.91
17.59
22.14
23.70
21.84
17.76
13.41
10.42
9.12
8.67
7.78
5.74
2.62
-0.48
-1.96
-0.37
5.06
13.86
24.20
33.22
38.00
36.54
28.72
16.50
3.19
-7.81
-14.35
-16.26
-15.07
-13.03
-12.02
-12.73
-14.53
-16.67
-18.18
-18.40
-17.09
-14.44
-10.87
-6.94
-3.06
0.46
3.55
6.42
9.31
12.30
15.05
16.93
17.21
15.44
11.70
6.60
1.06
-4.15
-8.56
-11.97
-14.14
-14.72
-13.32
-9.90
-4.99
0.41
5.19
8.75
11.18
13.15
15.33
17.95
20.61
22.71
24.00
24.90
26.26
28.88
32.98
38.02
43.12
47.54
51.10
54.06
56.77
59.33
61.54
63.27
64.80
67.01
70.95
77.23
85.53
94.48
102.13
106.49
106.44
102.00
94.08
83.90
72.35
59.62
45.21
28.24
7.75
-16.48
-43.51
-71.26
-97.02
-118.02
-131.93
-137.28
-133.52
-121.37
-102.29
-78.35
-52.39
-27.85
-8.06
4.71
10.04
9.33
4.25
-2.91
-9.82
-15.00
-18.44
-21.06
-23.79
-27.02
-30.70
-36.35
-44.43
-53.62
-61.94
-68.38
-72.96
-76.24
-78.82
-81.23
-86.83
-97.07
-110.08
-122.43
-131.82
-137.58
-140.08
-140.24
-139.33
-142.61
-152.84
-168.17
-184.42
-198.54
-209.25
-216.08
-218.62
-191.73
-128.93
-47.31
28.81
86.84
125.65
148.87
161.06
166.42
168.18
164.46
154.43
140.53
126.83
115.97
108.91
105.54
105.13
106.51
105.28
99.02
88.92
78.26
69.50
63.80
61.45
62.37
66.22
70.38
72.59
71.78
67.92
59.82
46.96
30.34
12.59
-3.01
-14.81
-22.23
-25.51
-25.50
-23.66
-21.24
-19.11
-17.83
-17.77
-19.41
-22.57
-26.17
-28.66
-29.00
-27.04
-23.57
-20.07
-17.84
-17.52
-18.82
-20.66
-21.63
-20.51
-16.54
-9.62
-0.94
7.43
12.79
12.58
5.33
-8.52
-26.53
-44.84
-59.60
-68.22
-70.01
-65.97
-57.86
-47.26
-35.01
-21.41
-6.82
7.84
21.00
31.02
36.75
38.07
35.84
31.50
26.38
21.21
16.07
10.57
4.34
-2.67
-9.99
-16.93
-22.94
-27.97
-32.23
-35.73
-38.01
-38.37
-36.27
-31.93
-26.45
-21.28
-17.32
-14.41
-11.55
-8.11
-4.74
-3.11
-4.74
-9.63
-15.92
-20.73
-21.64
-17.36
-8.59
2.70
14.75
26.89
39.16
51.13
61.31
67.64
70.04
69.83
69.16
70.34
75.11
83.95
95.80
108.24
118.52
126.32
131.36
132.71
129.47
121.91
112.01
103.04
98.25
100.00
111.51
133.04
160.97
189.39
212.32
225.41
226.58
215.42
177.65
111.38
29.65
-47.42
-105.93
-143.30
-164.07
-173.98
-177.83
-178.89
-176.64
-171.07
-165.74
-162.99
-164.09
-168.38
-172.77
-173.68
-168.55
-154.67
-132.01
-103.30
-72.26
-39.91
-10.55
12.33
26.82
32.42
30.84
23.94
13.21
0.19
-13.23
-25.41
-34.09
-37.70
-36.23
-30.13
-21.38
-13.30
-9.57
-12.90
-24.50
-42.47
-62.67
-79.86
-89.73
-90.41
-82.40
-68.85
-51.22
-31.42
-11.05
8.10
24.23
36.16
43.79
48.06
50.53
52.93
53.11
50.22
43.98
34.80
23.84
12.64
2.54
-5.69
-11.84
-16.48
-19.78
-21.84
-22.74
-22.71
-22.18
-21.66
-21.54
-21.71
-21.85
-21.03
-18.47
-13.76
-7.04
1.09
9.69
17.79
24.66
29.75
33.10
34.94
35.60
35.36
34.40
32.79
30.54
27.70
24.32
20.70
17.13
13.96
11.45
9.77
8.90
8.64
8.61
8.36
7.55
5.97
3.66
0.83
-2.17
-5.03
-7.54
-9.60
-11.33
-12.93
-14.71
-16.94
-19.78
-23.09
-26.43
-29.08
-30.23
-29.22
-25.80
-20.17
-12.99
-5.15
2.53
9.47
15.44
20.47
24.66
28.06
30.60
32.18
32.77
32.54
31.79
30.84
29.86
28.82
27.53
25.81
23.61
21.08
18.52
16.17
14.18
12.49
10.95
9.35
7.57
5.56
3.35
1.04
-1.28
-3.59
-5.98
-8.61
-11.68
-15.24
-19.13
-22.90
-25.88
-27.41
-27.02
-24.60
-20.43
-15.02
-8.88
-2.46
3.97
10.19
16.01
21.15
25.33
28.35
30.15
30.87
30.77
30.09
29.04
27.73
26.31
24.92
23.78
23.05
22.85
23.12
23.70
24.36
24.85
25.00
24.67
23.85
22.55
20.83
18.74
16.31
13.55
10.38
6.70
2.36
-2.71
-8.47
-14.63
-20.67
-25.88
-29.50
-30.90
-29.78
-26.27
-20.83
-14.21
-7.21
-0.56
5.23
9.85
13.25
15.58
17.10
18.09
18.71
18.98
18.80
18.04
16.62
14.56
11.97
9.03
5.90
2.75
-0.29
-3.11
-5.62
-7.82
-9.73
-11.41
-12.98
-14.57
-16.31
-18.35
-20.74
-23.44
-26.28
-29.02
-31.49
-33.59
-35.37
-36.85
-37.96
-38.42
-37.80
-35.67
-31.70
-25.77
-17.85
-8.08
3.06
14.63
25.09
32.45
34.79
30.90
20.91
6.55
-9.31
-23.52
-33.49
-37.91
-36.86
-31.58
-23.84
-15.35
-7.15
0.13
6.19
10.71
13.36
13.82
11.80
7.29
0.59
-7.19
-15.01
-22.21
-28.60
-34.26
-39.28
-43.65
-47.31
-50.06
-50.69
-48.31
-42.60
-33.66
-21.47
-5.93
12.68
33.36
54.56
76.18
98.06
119.75
140.65
160.27
177.93
192.29
201.41
203.49
199.56
191.20
179.76
166.21
151.74
137.81
125.56
115.39
94.96
59.47
13.20
-33.64
-72.77
-101.15
-119.62
-130.71
-137.21
-141.76
-143.60
-141.62
-135.89
-128.04
-120.17
-114.10
-111.02
-111.30
-113.72
-115.27
-113.58
-107.94
-99.29
-89.16
-78.84
-69.07
-60.00
-51.37
-41.90
-30.91
-18.90
-7.22
2.71
10.05
14.63
16.83
17.38
17.47
17.96
19.03
20.32
21.37
21.90
21.83
21.23
20.24
19.13
17.98
16.69
14.97
12.62
9.64
6.25
2.81
-0.32
-2.95
-5.13
-7.13
-9.32
-12.05
-15.53
-19.68
-24.20
-28.56
-32.11
-34.23
-34.41
-32.40
-28.25
-22.24
-14.85
-6.63
1.90
10.20
17.81
24.33
29.51
33.23
35.52
36.50
36.28
35.03
32.93
30.24
27.32
24.52
22.12
20.21
18.73
17.46
16.21
14.82
13.26
11.56
9.71
7.67
5.32
2.65
-0.26
-3.21
-5.93
-8.26
-10.19
-11.98
-13.98
-16.55
-19.85
-23.73
-27.74
-31.18
-33.35
-33.67
-31.85
-27.97
-22.34
-15.45
-7.80
0.16
8.02
15.35
21.77
26.88
30.43
32.32
32.70
31.83
30.11
27.94
25.68
23.57
21.71
20.05
18.40
16.57
14.47
12.16
9.85
7.74
5.96
4.43
2.94
1.23
-0.81
-3.14
-5.59
-7.99
-10.26
-12.51
-14.89
-17.54
-20.51
-23.74
-27.12
-30.45
-33.47
-35.76
-36.79
-36.00
-33.01
-27.77
-20.64
-12.34
-3.66
4.70
12.31
19.00
24.74
29.48
33.08
35.34
36.11
35.43
33.62
31.16
28.61
26.37
24.58
23.14
21.80
20.31
18.57
16.64
14.67
12.81
11.09
9.42
7.66
5.68
3.47
1.10
-1.31
-3.60
-5.74
-7.76
-9.79
-12.01
-14.56
-17.55
-21.00
-24.79
-28.67
-32.26
-35.07
-36.55
-36.28
-33.99
-29.70
-23.66
-16.32
-8.23
0.00
7.83
14.82
20.67
25.25
28.59
30.74
31.81
31.89
31.07
29.54
27.59
25.54
23.64
21.96
20.41
18.82
17.05
15.17
13.35
11.81
10.62
9.70
8.76
7.50
5.76
3.54
1.04
-1.47
-3.78
-5.83
-7.70
-9.54
-11.51
-13.68
-16.03
-18.53
-21.15
-23.91
-26.77
-29.58
-31.96
-33.41
-33.36
-31.47
-27.67
-22.28
-15.83
-8.94
-2.09
4.41
10.40
15.76
20.32
23.84
26.11
27.05
26.78
25.60
23.90
22.07
20.33
18.80
17.44
16.17
14.91
13.63
12.38
11.23
10.25
9.39
8.53
7.48
6.06
4.21
1.97
-0.51
-3.02
-5.41
-7.63
-9.67
-11.62
-13.51
-15.36
-17.16
-18.96
-20.85
-22.92
-25.25
-27.65
-29.74
-30.94
-30.69
-28.62
-24.73
-19.39
-13.18
-6.71
-0.45
5.33
10.51
15.01
18.76
21.62
23.47
24.30
24.20
23.41
22.22
20.88
19.54
18.24
16.93
15.60
14.27
12.95
11.70
10.48
9.24
7.93
6.53
5.08
3.63
2.19
0.71
-0.87
-2.60
-4.47
-6.40
-8.30
-10.10
-11.78
-13.36
-14.89
-16.45
-18.16
-20.11
-22.31
-24.64
-26.76
-28.16
-28.34
-26.92
-23.84
-19.34
-13.90
-8.05
-2.26
3.13
7.92
11.99
15.23
17.59
19.04
19.66
19.58
19.01
18.12
17.08
15.95
14.76
13.51
12.23
11.02
9.96
9.07
8.30
7.48
6.45
5.14
3.61
2.05
0.62
-0.61
-1.74
-2.99
-4.54
-6.45
-8.59
-10.67
-12.44
-13.75
-14.69
-15.48
-16.42
-17.76
-19.59
-21.79
-24.11
-26.18
-27.58
-27.95
-27.02
-24.72
-21.14
-16.59
-11.47
-6.27
-1.40
2.85
6.36
9.09
11.07
12.34
12.89
12.76
12.00
10.81
9.43
8.17
7.23
6.70
6.50
6.42
6.28
5.90
5.25
4.37
3.35
2.32
1.36
0.47
-0.39
-1.35
-2.51
-3.93
-5.60
-7.39
-9.16
-10.77
-12.13
-13.22
-14.11
-14.85
-15.50
-16.11
-16.76
-17.50
-18.33
-19.09
-19.55
-19.30
-18.01
-15.50
-11.85
-7.38
-2.58
2.01
5.99
9.13
11.38
12.81
13.54
13.67
13.28
12.49
11.43
10.26
9.13
8.11
7.21
6.38
5.56
4.73
3.90
3.10
2.36
1.66
0.96
0.21
-0.61
-1.51
-2.51
-3.60
-4.79
-6.06
-7.39
-8.74
-10.03
-11.16
-12.08
-12.78
-13.35
-13.96
-14.84
-16.16
-17.96
-20.05
-22.01
-23.28
-23.31
-21.72
-18.43
-13.73
-8.22
-2.59
2.57
6.91
10.38
13.10
15.21
16.70
17.46
17.34
16.29
14.52
12.40
10.42
8.94
8.05
7.60
7.27
6.80
6.12
5.30
4.53
3.91
3.41
2.84
2.00
0.81
-0.70
-2.34
-3.94
-5.37
-6.64
-7.81
-8.91
-9.98
-11.02
-12.05
-13.12
-14.33
-15.77
-17.48
-19.41
-21.44
-23.34
-24.82
-25.56
-25.25
-23.70
-20.90
-17.04
-12.47
-7.59
-2.78
1.66
5.52
8.64
10.90
12.24
12.67
12.33
11.43
10.21
8.94
7.80
6.89
6.25
5.83
5.59
5.46
5.39
5.31
5.20
5.00
4.64
4.08
3.27
2.24
1.08
-0.11
-1.27
-2.42
-3.64
-4.96
-6.39
-7.79
-9.04
-10.06
-10.89
-11.65
-12.54
-13.70
-15.14
-16.74
-18.22
-19.21
-19.32
-18.26
-15.88
-12.26
-7.66
-2.46
2.87
7.89
12.24
15.65
17.99
19.28
19.63
19.20
18.19
16.80
15.23
13.69
12.36
11.36
10.70
10.25
9.84
9.33
8.63
7.76
6.79
5.81
4.85
3.93
3.04
2.15
1.19
0.04
-1.41
-3.18
-5.20
-7.24
-9.12
-10.67
-11.92
-13.05
-14.30
-15.88
-17.84
-20.09
-22.30
-24.05
-24.84
-24.28
-22.14
-18.47
-13.59
-7.98
-2.13
3.54
8.73
13.27
17.03
19.89
21.79
22.76
22.93
22.53
21.83
21.03
20.25
19.51
18.76
17.95
17.04
16.01
14.87
13.66
12.44
11.31
10.34
9.57
8.90
8.13
7.07
5.61
3.82
1.99
0.55
-0.09
0.29
1.57
3.28
4.73
5.10
3.70
0.09
-5.63
-12.81
-20.20
-26.19
-29.33
-28.73
-24.34
-16.96
-7.92
1.38
9.77
16.50
21.18
23.70
24.18
22.97
20.63
17.83
15.14
12.85
10.91
9.03
6.96
4.66
2.35
0.41
-0.87
-1.40
-1.36
-1.14
-1.13
-1.56
-2.49
-3.77
-5.27
-6.90
-8.71
-10.75
-13.00
-15.29
-17.35
-19.00
-20.20
-21.07
-21.85
-22.71
-23.67
-24.65
-25.52
-26.12
-26.32
-25.94
-24.72
-22.40
-18.82
-14.07
-8.48
-2.56
3.16
8.31
12.69
16.24
18.99
20.98
22.23
22.81
22.78
22.27
21.40
20.32
19.22
18.22
17.38
16.66
15.91
15.01
13.87
12.56
11.20
9.91
8.76
7.70
6.59
5.32
3.85
2.19
0.41
-1.40
-3.16
-4.80
-6.26
-7.54
-8.68
-9.77
-10.96
-12.34
-13.89
-15.42
-16.59
-16.98
-16.22
-14.14
-10.82
-6.59
-1.95
2.58
6.63
10.01
12.69
14.71
16.11
16.89
16.99
16.42
15.27
13.75
12.14
10.69
9.58
8.83
8.33
7.94
7.53
7.04
6.49
5.96
5.50
5.12
4.75
4.26
3.51
2.46
1.15
-0.31
-1.79
-3.18
-4.44
-5.59
-6.70
-7.83
-9.09
-10.54
-12.22
-14.07
-15.88
-17.35
-18.11
-17.90
-16.60
-14.30
-11.23
-7.63
-3.75
0.23
4.12
7.72
10.77
13.04
14.38
14.78
14.40
13.50
12.35
11.21
10.22
9.44
8.84
8.33
7.80
7.18
6.45
5.60
4.69
3.76
2.85
2.01
1.26
0.59
-0.08
-0.85
-1.88
-3.26
-4.95
-6.78
-8.47
-9.82
-10.77
-11.50
-12.33
-13.56
-15.29
-17.35
-19.29
-20.59
-20.84
-19.84
-17.67
-14.56
-10.83
-6.76
-2.61
1.40
5.07
8.18
10.58
12.20
13.07
13.33
13.16
12.75
12.23
11.70
11.17
10.59
9.92
9.12
8.18
7.13
6.02
4.89
3.75
2.58
1.38
0.16
-1.01
-2.08
-2.99
-3.75
-4.41
-5.02
-5.62
-6.22
-6.84
-7.51
-8.30
-9.33
-10.76
-12.70
-15.15
-17.95
-20.73
-23.02
-24.33
-24.31
-22.83
-20.02
-16.16
-11.66
-6.94
-2.41
1.56
4.73
6.98
8.33
8.96
9.07
8.82
8.32
7.60
6.70
5.71
4.75
3.96
3.42
3.14
3.06
3.07
3.08
3.02
2.85
2.52
2.05
1.46
0.77
0.02
-0.77
-1.59
-2.42
-3.27
-4.11
-4.88
-5.55
-6.12
-6.65
-7.25
-8.08
-9.25
-10.75
-12.44
-14.01
-15.07
-15.26
-14.31
-12.18
-8.98
-4.98
-0.52
4.01
8.26
11.90
14.71
16.59
17.61
17.90
17.66
17.07
16.25
15.28
14.19
13.02
11.82
10.68
9.66
8.78
7.99
7.22
6.37
5.42
4.46
3.58
2.87
2.29
1.66
0.75
-0.60
-2.38
-4.40
-6.33
-7.92
-9.09
-9.94
-10.72
-11.72
-13.17
-15.14
-17.59
-20.31
-23.00
-25.26
-26.67
-26.84
-25.54
-22.76
-18.70
-13.77
-8.44
-3.11
1.88
6.40
10.35
13.68
16.33
18.23
19.34
19.73
19.58
19.10
18.54
18.01
17.54
17.03
16.36
15.47
14.35
13.12
11.93
10.90
10.09
9.45
8.80
7.95
6.74
5.13
3.20
1.11
-0.92
-2.75
-4.34
-5.74
-7.05
-8.40
-9.87
-11.59
-13.62
-16.03
-18.75
-21.53
-23.91
-25.33
-25.26
-23.45
-19.98
-15.31
-10.03
-4.68
0.38
5.01
9.23
13.01
16.28
18.85
20.60
21.51
21.71
21.46
20.98
20.44
19.92
19.42
18.95
18.53
18.15
17.74
17.16
16.23
14.82
12.87
10.42
7.64
4.71
1.85
-0.77
-3.03
-4.91
-6.47
-7.85
-9.23
-10.71
-12.29
-13.88
-15.39
-16.77
-18.10
-19.48
-20.97
-22.47
-23.71
-24.28
-23.79
-21.98
-18.82
-14.57
-9.64
-4.54
0.30
4.59
8.16
10.97
12.98
14.24
14.81
14.81
14.44
13.89
13.31
12.84
12.50
12.27
12.10
11.89
11.59
11.13
10.52
9.78
8.99
8.17
7.34
6.42
5.33
4.07
2.65
1.12
-0.45
-2.05
-3.68
-5.34
-6.97
-8.52
-9.91
-11.16
-12.33
-13.47
-14.57
-15.46
-15.84
-15.38
-13.84
-11.19
-7.66
-3.65
0.43
4.27
7.79
11.06
14.22
17.31
20.23
22.70
24.42
25.14
24.83
23.69
22.12
20.54
19.28
18.46
18.00
17.68
17.27
16.65
15.81
14.87
13.93
13.03
12.06
10.85
9.22
7.16
4.79
2.37
0.13
-1.82
-3.56
-5.27
-7.12
-9.19
-11.42
-13.73
-16.08
-18.49
-20.95
-23.28
-25.11
-25.95
-25.38
-23.23
-19.68
-15.16
-10.16
-5.10
-0.22
4.35
8.52
12.12
14.98
16.92
17.90
18.06
17.70
17.19
16.84
16.77
16.86
16.80
16.27
15.07
13.29
11.23
9.23
7.50
6.01
4.50
2.64
0.26
-2.67
-5.95
-9.30
-12.42
-15.03
-16.90
-17.89
-18.01
-17.44
-16.58
-15.93
-15.99
-17.01
-18.90
-21.21
-23.22
-24.15
-23.37
-20.65
-16.20
-10.65
-4.83
0.50
4.85
8.11
10.46
12.15
13.37
14.13
14.37
14.07
13.32
12.34
11.34
10.46
9.69
8.94
8.08
7.03
5.82
4.53
3.27
2.14
1.18
0.38
-0.32
-1.03
-1.87
-2.91
-4.13
-5.47
-6.78
-7.98
-9.03
-9.94
-10.80
-11.67
-12.66
-13.87
-15.42
-17.39
-19.70
-22.09
-24.06
-25.00
-24.37
-21.95
-17.90
-12.78
-7.29
-2.07
2.49
6.31
9.48
12.14
14.29
15.86
16.73
16.88
16.41
15.56
14.59
13.64
12.76
11.85
10.82
9.64
8.39
7.20
6.22
5.52
5.07
4.71
4.26
3.53
2.45
1.04
-0.59
-2.29
-3.94
-5.48
-6.93
-8.35
-9.81
-11.36
-13.03
-14.84
-16.80
-18.90
-20.99
-22.80
-23.91
-23.90
-22.44
-19.49
-15.32
-10.41
-5.36
-0.58
3.68
7.37
10.49
12.99
14.75
15.60
15.51
14.63
13.32
12.00
11.00
10.44
10.27
10.25
10.12
9.69
8.90
7.87
6.78
5.81
5.03
4.51
4.16
3.79
3.09
1.80
-0.09
-2.44
-4.98
-7.41
-9.22
-10.11
-10.18
-9.99
-10.29
-11.66
-14.33
-18.11
-22.26
-25.46
-26.45
-24.66
-20.57
-15.36
-10.31
-6.39
-3.89
-2.17
0.71
6.96
17.81
32.56
48.71
62.82
71.49
72.51
63.24
44.05
19.31
-4.54
-23.11
-35.75
-44.14
-50.47
-56.20
-61.84
-66.79
-69.76
-69.11
-63.32
-51.33
-33.24
-11.78
7.77
19.47
19.86
10.53
-2.02
-9.26
-5.57
10.20
33.66
57.31
74.17
81.18
78.55
71.58
65.72
63.77
65.72
69.41
72.24
72.07
67.14
57.26
41.56
20.10
-5.58
-32.12
-55.77
-73.76
-84.16
-89.14
-91.67
-92.94
-91.28
-84.24
-68.25
-42.95
-11.88
18.60
41.55
52.41
50.41
38.35
20.89
2.79
-12.99
-25.32
-34.18
-39.78
-41.44
-38.12
-29.22
-15.59
0.68
16.49
29.08
36.53
38.47
36.19
31.82
27.26
23.33
19.83
15.77
10.38
3.76
-2.87
-7.73
-9.24
-6.80
-1.05
6.64
14.52
21.30
26.45
30.37
33.64
36.83
40.11
43.32
46.08
47.60
47.17
44.44
40.08
35.26
31.41
29.39
29.13
29.77
29.74
28.05
24.65
20.46
15.85
11.15
5.98
-0.59
-9.04
-19.04
-28.76
-38.78
-47.88
-55.51
-61.67
-66.86
-71.85
-73.55
-71.26
-65.33
-56.99
-47.44
-38.14
-30.29
-24.64
-21.41
-20.19
-20.76
-22.46
-24.52
-25.92
-25.98
-24.26
-20.63
-15.13
-7.95
-0.05
7.59
14.11
19.17
22.87
25.64
27.96
30.07
31.92
32.93
32.64
30.88
27.81
23.78
19.28
14.90
11.34
9.19
8.60
9.28
10.44
11.10
10.44
8.07
4.24
-0.42
-5.15
-9.48
-13.21
-16.37
-18.96
-20.86
-21.91
-21.97
-21.13
-19.70
-18.08
-16.61
-15.41
-14.31
-12.94
-10.94
-8.14
-4.62
-0.72
3.17
6.69
9.55
11.47
12.08
10.91
7.55
1.87
-5.74
-14.36
-22.64
-29.12
-32.70
-32.85
-29.91
-24.90
-19.36
-14.84
-12.50
-12.72
-15.12
-18.71
-22.36
-25.11
-26.48
-26.45
-25.31
-23.44
-21.23
-19.05
-17.20
-15.87
-15.06
-14.56
-14.02
-13.15
-11.88
-10.47
-9.40
-9.11
-9.76
-11.03
-12.32
-12.90
-12.26
-10.23
-7.01
-3.01
1.31
5.56
9.46
12.82
15.47
17.35
18.51
19.12
19.50
19.96
20.70
21.70
22.72
23.42
23.50
22.88
21.72
20.41
19.38
18.93
19.08
19.57
19.91
19.61
18.35
16.04
12.93
9.39
5.84
2.60
-0.22
-2.59
-4.57
-6.17
-7.39
-8.28
-8.96
-9.64
-10.50
-11.56
-12.63
-13.30
-13.13
-11.78
-9.13
-5.35
-0.77
4.23
9.29
14.09
18.36
21.83
24.29
25.61
25.84
25.15
23.84
22.19
20.44
18.69
16.96
15.23
13.56
12.05
10.84
10.02
9.62
9.54
9.61
9.63
9.38
8.73
7.57
5.90
3.80
1.44
-0.97
-3.21
-5.17
-6.81
-8.24
-9.63
-11.19
-13.11
-15.53
-18.47
-21.81
-25.18
-28.08
-29.92
-30.25
-28.79
-25.61
-21.04
-15.56
-9.70
-3.93
1.39
5.97
9.62
12.29
14.02
15.02
15.56
15.86
16.08
16.21
16.19
15.91
15.35
14.57
13.70
12.90
12.23
11.68
11.15
10.53
9.72
8.74
7.62
6.39
5.02
3.38
1.38
-0.99
-3.58
-6.11
-8.30
-10.01
-11.27
-12.30
-13.42
-14.91
-16.93
-19.50
-22.43
-25.35
-27.74
-29.04
-28.78
-26.74
-22.97
-17.85
-11.92
-5.75
0.18
5.54
10.17
13.98
16.93
18.94
19.95
19.91
18.90
17.19
15.17
13.30
11.92
11.15
10.80
10.59
10.22
9.62
8.89
8.22
7.75
7.44
7.03
6.21
4.75
2.61
-0.05
-2.96
-5.87
-8.57
-11.00
-13.15
-15.14
-17.08
-19.09
-21.27
-23.67
-26.27
-28.94
-31.38
-33.20
-33.89
-33.02
-30.35
-25.95
-20.19
-13.67
-6.98
-0.56
5.39
10.77
15.50
19.41
22.25
23.81
24.09
23.34
22.02
20.55
19.26
18.23
17.36
16.47
15.49
14.44
13.42
12.56
11.91
11.42
10.98
10.40
9.49
8.12
6.21
3.78
1.03
-1.79
-4.42
-6.67
-8.55
-10.20
-11.85
-13.71
-15.92
-18.53
-21.56
-24.91
-28.40
-31.64
-34.05
-34.97
-33.87
-30.60
-25.41
-18.91
-11.82
-4.77
1.86
7.89
13.24
17.84
21.59
24.38
26.21
27.20
27.55
27.49
27.20
26.79
26.29
25.68
24.93
24.01
22.95
21.82
20.69
19.63
18.61
17.55
16.28
14.66
12.62
10.24
7.73
5.31
3.13
1.13
-0.86
-3.09
-5.70
-8.63
-11.70
-14.69
-17.55
-20.43
-23.54
-26.94
-30.34
-33.12
-34.48
-33.76
-30.66
-25.39
-18.52
-10.79
-2.87
4.70
11.57
17.46
22.15
25.48
27.43
28.19
28.13
27.70
27.22
26.81
26.35
25.63
24.51
23.04
21.45
20.06
19.08
18.53
18.22
17.86
17.22
16.20
14.79
13.07
11.08
8.88
6.45
3.85
1.17
-1.45
-3.91
-6.11
-8.06
-9.86
-11.68
-13.75
-16.29
-19.45
-23.14
-26.99
-30.33
-32.39
-32.48
-30.28
-25.92
-19.92
-13.00
-5.82
1.10
7.45
13.05
17.73
21.41
23.99
25.53
26.12
25.98
25.30
24.33
23.24
22.19
21.23
20.34
19.44
18.38
17.10
15.66
14.18
12.83
11.67
10.64
9.61
8.43
6.98
5.28
3.40
1.40
-0.63
-2.65
-4.61
-6.47
-8.21
-9.93
-11.83
-14.15
-17.02
-20.36
-23.75
-26.57
-28.14
-27.99
-25.95
-22.20
-17.15
-11.35
-5.29
0.62
6.10
10.97
15.06
18.19
20.22
21.09
20.91
19.97
18.70
17.48
16.58
15.99
15.51
14.89
13.98
12.82
11.62
10.60
9.91
9.52
9.26
8.88
8.17
7.04
5.50
3.67
1.67
-0.41
-2.51
-4.59
-6.63
-8.58
-10.41
-12.16
-13.99
-16.11
-18.71
-21.83
-25.22
-28.41
-30.74
-31.62
-30.66
-27.81
-23.33
-17.67
-11.37
-4.86
1.47
7.36
12.55
16.79
19.90
21.81
22.60
22.46
21.67
20.53
19.26
18.06
17.04
16.23
15.56
14.90
14.12
13.13
11.95
10.67
9.42
8.21
6.98
5.60
3.95
2.02
-0.09
-2.20
-4.13
-5.79
-7.19
-8.42
-9.65
-11.05
-12.75
-14.87
-17.43
-20.38
-23.49
-26.38
-28.54
-29.46
-28.77
-26.34
-22.36
-17.28
-11.63
-5.93
-0.48
4.50
8.89
12.58
15.41
17.29
18.17
18.17
17.49
16.42
15.19
13.96
12.81
11.77
10.84
10.00
9.26
8.56
7.87
7.16
6.41
5.58
4.64
3.51
2.16
0.60
-1.11
-2.79
-4.30
-5.54
-6.58
-7.56
-8.72
-10.20
-12.11
-14.41
-16.98
-19.63
-22.09
-24.04
-25.14
-25.05
-23.56
-20.63
-16.45
-11.39
-5.89
-0.39
4.77
9.30
12.99
15.64
17.16
17.52
16.90
15.58
13.96
12.39
11.08
10.10
9.34
8.64
7.87
6.93
5.80
4.51
3.12
1.74
0.43
-0.76
-1.83
-2.84
-3.88
-4.98
-6.16
-7.38
-8.58
-9.72
-10.81
-11.94
-13.24
-14.86
-16.87
-19.25
-21.81
-24.20
-25.97
-26.68
-26.01
-23.86
-20.37
-15.84
-10.72
-5.43
-0.33
4.30
8.27
11.50
13.93
15.57
16.44
16.59
16.12
15.17
13.92
12.54
11.20
9.98
8.90
7.94
7.08
6.38
5.87
5.57
5.36
5.06
4.42
3.30
1.74
-0.06
-1.81
-3.24
-4.27
-5.01
-5.72
-6.70
-8.10
-9.97
-12.25
-14.85
-17.69
-20.62
-23.38
-25.54
-26.57
-26.04
-23.76
-19.91
-14.95
-9.44
-3.87
1.42
6.20
10.24
13.31
15.25
16.07
16.02
15.46
14.77
14.14
13.57
12.91
12.04
10.94
9.75
8.62
7.68
6.97
6.42
5.95
5.49
4.95
4.28
3.41
2.24
0.75
-1.04
-2.97
-4.88
-6.59
-7.99
-9.04
-9.82
-10.47
-11.19
-12.17
-13.52
-15.25
-17.18
-18.99
-20.28
-20.63
-19.74
-17.54
-14.14
-9.86
-5.09
-0.23
4.37
8.43
11.78
14.32
16.02
16.95
17.16
16.78
15.93
14.75
13.39
12.05
10.89
10.01
9.42
9.01
8.58
7.94
7.00
5.81
4.52
3.33
2.40
1.76
1.33
0.89
0.26
-0.74
-2.13
-3.81
-5.60
-7.30
-8.80
-10.12
-11.43
-12.97
-14.92
-17.27
-19.79
-22.02
-23.40
-23.46
-21.95
-18.96
-14.85
-10.12
-5.25
-0.62
3.60
7.34
10.56
13.21
15.22
16.53
17.14
17.14
16.63
15.77
14.70
13.54
12.44
11.49
10.74
10.14
9.58
8.94
8.16
7.26
6.32
5.40
4.50
3.54
2.39
1.00
-0.58
-2.23
-3.84
-5.33
-6.68
-7.95
-9.16
-10.35
-11.53
-12.74
-14.09
-15.69
-17.60
-19.69
-21.71
-23.22
-23.79
-23.07
-20.95
-17.51
-13.06
-8.00
-2.73
2.35
6.95
10.79
13.68
15.51
16.29
16.20
15.52
14.59
13.67
12.89
12.21
11.53
10.74
9.82
8.84
7.94
7.22
6.66
6.17
5.61
4.90
4.04
3.09
2.11
1.12
0.08
-1.10
-2.44
-3.93
-5.45
-6.89
-8.17
-9.29
-10.30
-11.32
-12.48
-13.92
-15.72
-17.88
-20.29
-22.64
-24.53
-25.49
-25.14
-23.29
-20.00
-15.58
-10.47
-5.18
-0.12
4.37
8.10
10.96
12.92
14.05
14.40
14.13
13.41
12.41
11.30
10.25
9.33
8.61
8.07
7.68
7.34
6.99
6.59
6.11
5.55
4.92
4.18
3.28
2.16
0.82
-0.69
-2.23
-3.69
-4.97
-6.08
-7.10
-8.14
-9.28
-10.53
-11.87
-13.22
-14.61
-16.05
-17.60
-19.25
-20.84
-22.05
-22.46
-21.67
-19.48
-15.93
-11.35
-6.22
-1.06
3.71
7.82
11.11
13.52
15.08
15.78
15.71
14.93
13.64
12.03
10.38
8.88
7.65
6.71
5.97
5.36
4.85
4.49
4.36
4.48
4.80
5.17
5.41
5.41
5.10
4.47
3.49
2.14
0.47
-1.40
-3.24
-4.80
-5.94
-6.66
-7.14
-7.70
-8.66
-10.28
-12.62
-15.58
-18.74
-21.48
-23.05
-22.81
-20.51
-16.43
-11.26
-5.86
-0.88
3.41
7.10
10.38
13.29
15.62
17.02
17.28
16.46
14.95
13.29
11.90
10.91
10.19
9.43
8.40
7.03
5.44
3.84
2.44
1.34
0.51
-0.19
-0.91
-1.80
-2.93
-4.32
-5.94
-7.70
-9.50
-11.25
-12.87
-14.31
-15.55
-16.59
-17.42
-18.12
-18.84
-19.80
-21.24
-23.24
-25.57
-27.71
-28.92
-28.58
-26.40
-22.56
-17.57
-12.08
-6.57
-1.35
3.51
7.95
11.85
14.99
17.20
18.43
18.83
18.68
18.29
17.89
17.52
17.11
16.53
15.70
14.66
13.55
12.54
11.77
11.22
10.73
10.09
9.14
7.88
6.43
4.97
3.64
2.48
1.38
0.23
-1.05
-2.47
-3.97
-5.46
-6.94
-8.46
-10.17
-12.21
-14.65
-17.31
-19.80
-21.50
-21.81
-20.36
-17.17
-12.66
-7.45
-2.08
3.05
7.80
12.03
15.59
18.23
19.75
20.16
19.71
18.85
17.96
17.28
16.77
16.23
15.46
14.42
13.26
12.19
11.35
10.72
10.13
9.33
8.22
6.85
5.43
4.17
3.16
2.29
1.29
-0.03
-1.74
-3.71
-5.71
-7.55
-9.14
-10.54
-11.91
-13.42
-15.25
-17.45
-19.87
-22.15
-23.75
-24.11
-22.89
-20.04
-15.90
-11.00
-5.87
-0.87
3.81
8.08
11.85
14.94
17.19
18.57
19.15
19.14
18.74
18.07
17.17
16.05
14.82
13.61
12.60
11.86
11.33
10.85
10.27
9.56
8.82
8.20
7.78
7.44
6.95
6.06
4.65
2.80
0.75
-1.27
-3.09
-4.71
-6.23
-7.79
-9.49
-11.38
-13.43
-15.58
-17.69
-19.54
-20.85
-21.33
-20.71
-18.85
-15.70
-11.36
-6.14
-0.45
5.18
10.28
14.49
17.66
19.79
20.99
21.39
21.11
20.29
19.08
17.66
16.19
14.75
13.31
11.82
10.25
8.69
7.28
6.22
5.59
5.36
5.34
5.30
5.01
4.31
3.16
1.60
-0.27
-2.33
-4.46
-6.54
-8.47
-10.18
-11.62
-12.82
-13.85
-14.84
-15.88
-17.00
-18.10
-18.99
-19.36
-18.92
-17.45
-14.88
-11.36
-7.16
-2.69
1.68
5.68
9.12
11.91
14.06
15.58
16.53
17.00
17.05
16.77
16.17
15.30
14.16
12.83
11.41
10.02
8.78
7.79
7.08
6.63
6.39
6.19
5.85
5.21
4.15
2.74
1.09
-0.60
-2.21
-3.67
-5.04
-6.39
-7.77
-9.19
-10.60
-11.96
-13.25
-14.50
-15.75
-17.02
-18.26
-19.31
-19.93
-19.84
-18.77
-16.54
-13.14
-8.74
-3.77
1.27
5.84
9.56
12.25
13.95
14.80
14.95
14.55
13.68
12.45
11.00
9.53
8.23
7.19
6.44
5.87
5.32
4.63
3.70
2.60
1.49
0.66
0.30
0.45
0.87
1.13
0.81
-0.32
-2.15
-4.27
-6.23
-7.67
-8.53
-8.95
-9.21
-9.56
-10.19
-11.17
-12.56
-14.33
-16.32
-18.14
-19.26
-19.11
-17.38
-14.13
-9.84
-5.22
-0.88
2.81
5.86
8.42
10.62
12.43
13.62
13.94
13.27
11.75
9.75
7.77
6.22
5.30
5.00
5.12
5.38
5.55
5.51
5.20
4.67
3.99
3.24
2.42
1.52
0.46
-0.83
-2.36
-4.04
-5.72
-7.23
-8.48
-9.51
-10.48
-11.58
-12.96
-14.67
-16.68
-18.85
-21.06
-23.11
-24.76
-25.67
-25.47
-23.85
-20.68
-16.13
-10.64
-4.83
0.71
5.54
9.48
12.53
14.77
16.23
16.90
16.80
16.04
14.88
13.64
12.59
11.80
11.19
10.56
9.78
8.87
7.95
7.22
6.77
6.57
6.43
6.07
5.23
3.81
1.85
-0.40
-2.62
-4.59
-6.19
-7.50
-8.67
-9.86
-11.16
-12.66
-14.42
-16.50
-18.86
-21.23
-23.17
-24.10
-23.53
-21.23
-17.31
-12.12
-6.19
-0.02
5.91
11.20
15.52
18.67
20.61
21.44
21.41
20.80
19.87
18.79
17.71
16.73
15.88
15.11
14.28
13.23
11.86
10.22
8.54
7.12
6.21
5.88
5.96
6.12
5.99
5.34
4.10
2.45
0.69
-0.90
-2.13
-3.03
-3.79
-4.72
-6.06
-7.86
-9.95
-11.94
-13.41
-14.02
-13.61
-12.19
-9.89
-6.91
-3.46
0.28
4.10
7.80
11.17
13.99
16.10
17.39
17.86
17.61
16.87
15.93
15.06
14.42
14.02
13.71
13.32
12.70
11.85
10.87
9.90
9.02
8.23
7.46
6.57
5.51
4.33
3.14
2.05
1.08
0.19
-0.72
-1.73
-2.85
-4.03
-5.21
-6.37
-7.59
-8.95
-10.52
-12.24
-13.90
-15.12
-15.49
-14.74
-12.77
-9.70
-5.80
-1.38
3.23
7.73
11.80
15.12
17.45
18.74
19.10
18.77
18.00
16.96
15.73
14.31
12.75
11.11
9.49
7.92
6.42
5.02
3.81
2.96
2.55
2.51
2.54
2.29
1.45
-0.00
-1.80
-3.53
-4.83
-5.59
-5.97
-6.30
-6.88
-7.85
-9.15
-10.60
-12.03
-13.32
-14.44
-15.40
-16.13
-16.51
-16.34
-15.38
-13.51
-10.75
-7.30
-3.48
0.30
3.68
6.41
8.39
9.60
10.13
10.06
9.52
8.65
7.61
6.55
5.63
4.90
4.34
3.86
3.36
2.77
2.10
1.45
0.92
0.54
0.27
-0.03
-0.53
-1.31
-2.31
-3.43
-4.49
-5.40
-6.16
-6.84
-7.57
-8.41
-9.42
-10.57
-11.91
-13.46
-15.23
-17.16
-19.07
-20.69
-21.75
-22.05
-21.57
-20.41
-18.69
-16.44
-13.63
-10.22
-6.30
-2.21
1.56
4.52
6.45
7.43
7.83
8.06
8.31
8.46
8.13
6.94
4.81
2.08
-0.57
-2.41
-3.02
-2.43
-1.18
-0.15
-0.35
-2.75
-8.05
-16.31
-26.66
-37.05
-44.61
-46.31
-40.17
-26.03
-5.89
16.80
38.30
55.75
67.74
74.10
75.25
71.46
62.75
49.21
31.56
11.48
-8.63
-26.17
-39.14
-46.57
-48.61
-46.24
-40.79
-33.63
-25.85
-18.30
-11.56
-6.04
-1.97
0.54
1.58
1.43
0.49
-0.71
-1.69
-2.07
-1.79
-1.05
-0.30
-0.01
-0.51
-1.79
-3.56
-5.35
-6.71
-7.42
-7.48
-7.11
-6.59
-6.10
-5.70
-5.29
-4.87
-4.55
-4.60
-5.17
-6.26
-7.58
-8.68
-9.15
-8.68
-7.30
-5.24
-2.82
-0.33
2.08
4.31
6.20
7.48
8.05
7.81
6.92
5.67
4.45
3.57
2.92
2.12
0.72
-1.11
-3.04
-4.54
-5.30
-5.23
-4.51
-3.98
-4.65
-7.31
-11.28
-15.73
-19.54
-22.17
-23.63
-24.27
-25.31
-27.94
-32.95
-39.05
-45.27
-50.79
-56.05
-61.81
-67.56
-71.92
-72.55
-68.16
-58.08
-45.88
-37.18
-38.50
-54.24
-79.42
-105.74
-125.33
-145.70
-169.72
-197.43
-218.88
-225.48
-212.01
-177.76
-128.28
-72.73
-20.88
22.67
51.78
65.30
72.35
79.83
91.50
105.14
120.15
136.89
157.35
181.82
208.97
234.61
252.25
256.60
244.87
218.12
180.03
136.59
93.12
53.95
20.94
-6.78
-30.84
-52.85
-73.11
-90.92
-104.31
-111.14
-109.22
-97.08
-75.21
-45.23
-9.79
28.13
65.17
98.06
123.82
140.78
149.28
150.26
145.11
135.36
123.09
110.48
99.12
89.53
81.36
74.93
69.83
65.50
61.80
60.04
62.26
69.57
81.00
94.04
107.03
117.70
123.56
122.22
113.12
97.16
75.44
48.34
7.78
-45.42
-101.82
-148.59
-177.74
-188.94
-185.68
-170.89
-147.34
-117.33
-80.62
-39.24
3.36
40.10
65.16
76.70
76.93
69.88
59.26
48.60
38.79
30.85
20.55
5.32
-15.10
-39.55
-66.39
-93.91
-117.05
-130.84
-133.50
-127.75
-117.54
-105.99
-94.51
-83.24
-72.01
-60.66
-50.28
-42.63
-39.19
-39.39
-41.36
-43.14
-43.45
-41.62
-37.02
-29.66
-20.29
-10.52
-1.75
5.35
11.19
17.13
24.88
35.10
46.19
54.60
56.24
48.78
32.74
11.41
-10.32
-27.49
-36.27
-34.89
-23.71
-5.05
17.31
39.10
56.54
66.61
67.82
60.46
46.40
28.66
10.76
-4.02
-13.35
-16.51
-14.58
-10.06
-5.90
-4.23
-5.45
-8.36
-10.70
-10.26
-5.99
1.52
10.18
17.15
19.85
16.62
7.09
-7.84
-25.74
-42.93
-55.13
-58.97
-53.42
-40.61
-25.22
-12.68
-6.64
-7.32
-11.72
-14.17
-9.73
2.33
18.29
32.67
41.55
44.55
44.39
44.92
48.67
55.35
61.75
63.36
56.38
39.49
14.79
-13.00
-37.92
-55.57
-64.49
-65.78
-62.10
-56.15
-49.32
-41.24
-30.87
-17.58
-2.33
12.39
23.52
28.64
26.70
18.07
4.39
-12.94
-30.85
-46.52
-57.68
-62.63
-60.28
-50.69
-36.14
-18.36
-0.43
14.22
22.67
23.65
18.38
10.16
2.79
-0.80
0.85
7.15
16.40
26.50
36.14
43.79
49.29
52.97
55.05
55.67
54.52
51.28
45.86
38.80
32.00
27.97
28.38
33.54
42.64
53.75
64.37
71.84
70.09
56.06
32.33
5.49
-18.12
-34.85
-43.88
-45.98
-42.64
-35.97
-28.09
-21.51
-18.76
-20.99
-26.43
-30.89
-30.26
-21.54
-5.15
15.57
35.60
50.36
57.54
57.61
52.55
44.45
34.64
23.38
11.04
-1.58
-13.46
-24.04
-31.55
-35.82
-37.69
-38.32
-38.76
-39.19
-39.12
-37.81
-34.80
-30.11
-24.48
-18.85
-13.98
-10.33
-8.01
-6.86
-6.65
-7.14
-8.05
-9.21
-10.31
-11.06
-11.36
-11.34
-11.22
-11.17
-11.24
-11.37
-11.60
-11.95
-12.43
-13.00
-13.57
-13.89
-13.70
-12.85
-11.48
-9.86
-8.23
-6.67
-5.13
-3.56
-1.89
-0.18
1.35
2.11
1.83
0.72
-0.63
-1.74
-2.54
-3.26
-4.25
-5.80
-8.54
-12.21
-15.64
-17.43
-16.93
-14.64
-11.68
-9.11
-7.65
-8.48
-11.46
-15.36
-18.79
-21.36
-23.84
-27.19
-31.72
-37.33
-45.13
-55.31
-67.10
-79.09
-89.77
-97.62
-100.51
-95.99
-75.15
-37.65
7.60
48.95
80.80
105.89
128.72
150.40
169.26
182.39
181.30
162.31
127.02
81.28
32.50
-12.77
-49.63
-74.93
-87.38
-88.48
-79.81
-63.27
-41.27
-17.24
4.79
21.57
31.67
35.43
33.83
29.30
24.52
21.60
21.24
22.69
24.57
25.73
25.56
23.73
20.78
17.65
15.14
13.52
12.44
11.33
9.72
7.38
4.17
0.33
-3.66
-7.26
-9.95
-11.39
-11.46
-10.20
-7.89
-4.95
-1.82
1.13
3.66
5.70
7.31
8.65
9.88
11.12
12.37
13.52
14.33
14.61
14.28
13.59
13.00
13.06
14.10
16.06
18.47
20.64
22.02
22.34
21.66
20.18
18.00
14.97
10.76
5.10
-2.02
-10.24
-18.93
-27.34
-34.81
-40.81
-44.99
-47.18
-47.42
-46.04
-43.68
-41.15
-39.28
-38.62
-39.28
-40.89
-42.72
-43.89
-43.62
-41.43
-37.22
-31.29
-24.28
-17.09
-10.58
-5.45
-1.88
0.49
2.53
5.29
9.56
15.49
22.47
29.35
34.82
37.89
38.17
35.86
31.54
25.87
19.40
12.59
5.88
-0.22
-5.05
-7.93
-8.29
-5.78
-0.39
7.44
16.61
25.22
30.79
30.69
23.08
7.72
-13.53
-36.95
-57.99
-72.60
-78.49
-75.67
-66.12
-52.92
-39.21
-27.39
-18.98
-14.69
-14.82
-19.26
-27.37
-37.84
-48.62
-57.43
-62.43
-63.01
-60.03
-55.60
-52.13
-51.40
-53.76
-57.93
-61.48
-61.66
-56.36
-44.72
-27.41
-6.35
15.83
36.39
53.11
64.65
70.64
71.56
68.46
62.56
55.01
46.74
38.47
30.94
24.93
21.19
20.19
21.87
25.44
29.64
33.14
35.08
35.36
34.56
33.56
33.07
33.31
34.05
34.83
35.26
35.18
34.64
33.74
32.49
30.78
28.51
25.66
22.40
19.03
15.79
12.81
10.01
7.29
4.63
2.14
0.08
-1.41
-2.37
-3.04
-3.75
-4.69
-5.79
-6.78
-7.37
-7.43
-7.08
-6.65
-6.46
-6.66
-7.22
-7.97
-8.80
-9.67
-10.60
-11.52
-12.22
-12.37
-11.64
-9.77
-6.76
-2.76
1.88
6.75
11.41
15.46
18.59
20.64
21.65
21.80
21.33
20.44
19.22
17.65
15.76
13.61
11.41
9.35
7.54
5.95
4.47
2.97
1.42
-0.04
-1.22
-1.91
-2.05
-1.74
-1.22
-0.80
-0.78
-1.30
-2.36
-3.78
-5.30
-6.66
-7.71
-8.47
-9.09
-9.72
-10.47
-11.31
-12.15
-12.86
-13.39
-13.67
-13.54
-12.77
-11.04
-8.14
-4.08
0.79
5.90
10.60
14.40
17.09
18.69
19.35
19.23
18.46
17.15
15.44
13.54
11.75
10.36
9.56
9.43
9.80
10.35
10.67
10.40
9.38
7.68
5.52
3.19
0.89
-1.29
-3.33
-5.26
-7.01
-8.53
-9.74
-10.64
-11.36
-12.13
-13.23
-14.87
-17.04
-19.46
-21.65
-23.02
-23.12
-21.74
-19.00
-15.24
-10.85
-6.15
-1.36
3.35
7.79
11.68
14.77
16.89
18.04
18.39
18.22
17.78
17.25
16.69
16.04
15.25
14.33
13.34
12.42
11.68
11.09
10.53
9.79
8.77
7.48
6.07
4.75
3.59
2.55
1.45
0.16
-1.40
-3.16
-4.99
-6.81
-8.60
-10.46
-12.49
-14.75
-17.14
-19.45
-21.36
-22.50
-22.59
-21.48
-19.19
-15.96
-12.08
-7.91
-3.69
0.39
4.19
7.48
9.97
11.37
11.57
10.74
9.32
7.90
6.98
6.77
7.20
7.97
8.81
9.54
10.11
10.53
10.68
10.42
9.62
8.31
6.70
5.12
3.84
2.92
2.21
1.43
0.36
-1.07
-2.69
-4.26
-5.57
-6.62
-7.56
-8.67
-10.13
-11.95
-13.90
-15.58
-16.59
-16.64
-15.64
-13.66
-10.89
-7.56
-3.95
-0.31
3.09
6.04
8.32
9.88
10.68
10.82
10.44
9.70
8.76
7.77
6.85
6.08
5.53
5.20
5.00
4.78
4.39
3.79
3.05
2.34
1.78
1.38
0.95
0.23
-0.97
-2.64
-4.64
-6.71
-8.63
-10.31
-11.71
-12.85
-13.67
-14.14
-14.29
-14.24
-14.18
-14.20
-14.20
-13.86
-12.79
-10.69
-7.56
-3.71
0.31
4.01
7.12
9.61
11.64
13.29
14.52
15.11
14.89
13.87
12.35
10.73
9.39
8.47
7.88
7.36
6.73
5.91
5.01
4.20
3.62
3.27
3.04
2.79
2.40
1.80
1.00
0.04
-1.04
-2.20
-3.39
-4.59
-5.79
-7.02
-8.32
-9.70
-11.14
-12.60
-14.00
-15.28
-16.35
-17.06
-17.16
-16.39
-14.53
-11.56
-7.69
-3.35
1.02
5.02
8.46
11.26
13.39
14.76
15.26
14.81
13.48
11.51
9.25
7.14
5.51
4.59
4.41
4.81
5.53
6.23
6.65
6.63
6.17
5.41
4.46
3.45
2.39
1.26
0.01
-1.36
-2.79
-4.19
-5.48
-6.66
-7.77
-8.89
-10.09
-11.37
-12.67
-13.90
-14.95
-15.63
-15.78
-15.20
-13.75
-11.40
-8.32
-4.79
-1.19
2.13
4.90
6.97
8.30
8.91
8.94
8.56
7.95
7.23
6.45
5.56
4.54
3.43
2.36
1.47
0.81
0.31
-0.17
-0.73
-1.36
-1.92
-2.26
-2.37
-2.44
-2.69
-3.32
-4.35
-5.58
-6.74
-7.63
-8.26
-8.84
-9.65
-10.95
-12.81
-15.04
-17.23
-18.87
-19.49
-18.80
-16.76
-13.61
-9.75
-5.64
-1.67
1.94
5.09
7.74
9.88
11.44
12.29
12.35
11.67
10.44
8.98
7.58
6.45
5.61
4.96
4.36
3.77
3.23
2.86
2.73
2.77
2.78
2.51
1.75
0.47
-1.20
-3.02
-4.78
-6.32
-7.62
-8.72
-9.73
-10.75
-11.90
-13.33
-15.18
-17.53
-20.20
-22.79
-24.70
-25.30
-24.20
-21.36
-17.11
-12.00
-6.61
-1.30
3.70
8.31
12.37
15.62
17.76
18.62
18.27
17.06
15.51
14.09
13.03
12.25
11.47
10.37
8.80
6.90
4.99
3.42
2.39
1.89
1.70
1.50
1.00
0.01
-1.60
-3.77
-6.30
-8.83
-10.84
-11.94
-11.94
-11.14
-10.20
-9.86
-10.60
-12.40
-14.77
-16.94
-18.25
-18.27
-16.84
-14.01
-9.89
-4.74
1.04
6.85
12.07
16.22
19.13
20.95
21.95
22.25
21.75
20.24
17.68
14.42
11.20
8.92
8.17
8.97
10.60
11.92
11.85
9.87
6.33
2.25
-1.07
-2.71
-2.64
-1.76
-1.52
-3.25
-7.46
-13.47
-19.70
-24.37
-26.39
-25.96
-24.56
-24.24
-26.68
-32.32
-40.11
-47.87
-53.00
-53.20
-46.92
-33.69
-14.59
7.23
26.43
36.60
32.48
12.65
-18.84
-53.10
-79.41
-89.39
-80.25
-55.53
-23.07
8.60
33.40
49.06
56.36
57.37
53.82
46.66
36.58
24.76
13.19
4.29
-0.09
0.45
4.53
9.42
12.27
11.24
6.33
-0.81
-7.74
-12.44
-14.27
-14.07
-13.62
-14.54
-17.45
-21.65
-25.50
-27.29
-26.01
-21.67
-15.17
-7.71
-0.27
6.69
13.12
19.13
24.76
29.80
33.96
37.03
38.97
39.96
40.26
40.10
39.61
38.90
38.10
37.42
37.01
36.95
37.03
36.87
35.97
34.00
30.90
26.96
22.69
18.58
14.91
11.74
8.87
6.09
3.26
0.39
-2.42
-5.09
-7.60
-10.11
-12.81
-15.84
-19.16
-22.47
-25.23
-26.87
-26.90
-25.15
-21.81
-17.36
-12.32
-7.13
-1.95
3.26
8.52
13.72
18.47
22.26
24.65
25.46
24.92
23.53
21.93
20.62
19.82
19.46
19.32
19.17
18.87
18.48
18.10
17.83
17.67
17.44
16.92
15.89
14.36
12.47
10.53
8.76
7.22
5.77
4.17
2.23
-0.02
-2.36
-4.43
-6.00
-7.08
-7.94
-8.99
-10.54
-12.59
-14.80
-16.59
-17.33
-16.65
-14.51
-11.26
-7.38
-3.38
0.39
3.78
6.71
9.08
10.81
11.78
12.00
11.64
10.95
10.18
9.48
8.90
8.38
7.85
7.24
6.54
5.77
5.00
4.27
3.68
3.28
3.05
2.88
2.60
2.05
1.20
0.07
-1.21
-2.58
-3.98
-5.37
-6.68
-7.82
-8.68
-9.33
-9.93
-10.79
-12.19
-14.17
-16.49
-18.66
-20.13
-20.48
-19.58
-17.56
-14.69
-11.23
-7.39
-3.27
0.95
5.01
8.52
11.11
12.56
12.90
12.40
11.47
10.46
9.54
8.73
7.93
7.07
6.22
5.51
5.14
5.15
5.48
5.90
6.18
6.19
5.91
5.41
4.76
3.93
2.78
1.20
-0.81
-3.09
-5.40
-7.45
-9.08
-10.27
-11.14
-11.86
-12.58
-13.38
-14.24
-15.09
-15.84
-16.40
-16.63
-16.34
-15.34
-13.43
-10.54
-6.82
-2.62
1.49
4.95
7.34
8.53
8.68
8.14
7.32
6.53
5.90
5.45
5.09
4.74
4.36
3.92
3.44
2.88
2.25
1.58
0.94
0.46
0.19
0.12
0.13
0.02
-0.39
-1.22
-2.46
-3.99
-5.62
-7.17
-8.49
-9.58
-10.55
-11.60
-12.98
-14.85
-17.20
-19.81
-22.30
-24.21
-25.16
-24.87
-23.25
-20.39
-16.46
-11.78
-6.70
-1.66
2.93
6.72
9.52
11.30
12.18
12.40
12.18
11.74
11.17
10.53
9.85
9.15
8.49
7.90
7.41
6.99
6.57
6.10
5.57
4.99
4.40
3.77
3.00
1.94
0.46
-1.44
-3.57
-5.65
-7.44
-8.83
-9.92
-10.97
-12.27
-14.03
-16.32
-18.99
-21.78
-24.29
-26.13
-26.91
-26.40
-24.56
-21.53
-17.60
-13.07
-8.21
-3.28
1.52
5.90
9.57
12.27
13.83
14.29
13.87
12.93
11.84
10.91
10.27
9.89
9.62
9.27
8.72
8.00
7.22
6.54
6.01
5.56
5.06
4.38
3.49
2.44
1.29
0.06
-1.32
-2.90
-4.71
-6.64
-8.52
-10.20
-11.71
-13.22
-15.01
-17.29
-20.02
-22.87
-25.25
-26.53
-26.25
-24.25
-20.70
-15.97
-10.56
-4.92
0.57
5.60
9.92
13.37
15.85
17.38
18.09
18.21
18.01
17.76
17.62
17.56
17.47
17.12
16.41
15.37
14.27
13.46
13.22
13.57
14.25
14.79
14.69
13.59
11.34
7.96
3.67
-1.22
-6.25
-10.94
-14.82
-17.58
-19.17
-19.83
-19.93
-19.92
-20.16
-20.80
-21.83
-23.09
-24.30
-25.14
-25.28
-24.45
-22.46
-19.30
-15.02
-9.79
-3.79
2.69
9.20
15.14
19.78
22.52
23.13
21.88
19.51
16.95
15.02
14.09
14.03
14.38
14.58
14.29
13.48
12.36
11.20
10.17
9.19
8.07
6.67
4.97
3.08
1.17
-0.69
-2.54
-4.50
-6.58
-8.66
-10.57
-12.20
-13.71
-15.49
-17.94
-21.26
-25.19
-29.05
-32.01
-33.37
-32.79
-30.38
-26.52
-21.70
-16.34
-10.70
-4.96
0.72
6.09
10.82
14.59
17.18
18.65
19.25
19.40
19.46
19.60
19.77
19.76
19.38
18.57
17.45
16.28
15.30
14.63
14.23
13.94
13.55
12.90
11.94
10.70
9.29
7.80
6.29
4.71
2.99
1.05
-1.14
-3.52
-5.95
-8.28
-10.41
-12.35
-14.20
-16.08
-17.92
-19.45
-20.14
-19.45
-17.03
-12.91
-7.50
-1.50
4.43
9.81
14.43
18.25
21.34
23.66
25.17
25.80
25.57
24.62
23.15
21.42
19.64
17.98
16.54
15.36
14.49
13.93
13.66
13.59
13.58
13.47
13.13
12.46
11.49
10.22
8.70
6.95
4.98
2.88
0.77
-1.16
-2.80
-4.14
-5.30
-6.49
-7.89
-9.60
-11.63
-13.91
-16.29
-18.51
-20.26
-21.15
-20.80
-19.01
-15.85
-11.64
-6.89
-2.11
2.30
6.11
9.21
11.56
13.11
13.87
13.91
13.40
12.60
11.77
11.08
10.54
10.05
9.49
8.80
8.05
7.38
6.93
6.73
6.68
6.60
6.33
5.79
5.01
4.09
3.05
1.88
0.52
-1.11
-2.95
-4.87
-6.67
-8.20
-9.40
-10.40
-11.45
-12.80
-14.60
-16.78
-19.02
-20.89
-21.91
-21.77
-20.33
-17.68
-14.05
-9.76
-5.12
-0.47
3.93
7.81
10.95
13.18
14.43
14.71
14.16
12.99
11.49
9.92
8.52
7.41
6.66
6.23
6.05
5.98
5.91
5.72
5.39
4.95
4.50
4.09
3.72
3.29
2.66
1.73
0.51
-0.93
-2.43
-3.88
-5.22
-6.49
-7.71
-8.93
-10.19
-11.54
-13.03
-14.70
-16.47
-18.15
-19.43
-19.96
-19.42
-17.71
-14.89
-11.19
-6.95
-2.54
1.73
5.54
8.67
10.93
12.21
12.50
11.89
10.63
9.02
7.39
6.02
5.05
4.52
4.33
4.36
4.49
4.61
4.63
4.50
4.14
3.56
2.77
1.84
0.82
-0.26
-1.40
-2.62
-3.92
-5.25
-6.53
-7.67
-8.66
-9.55
-10.51
-11.72
-13.34
-15.37
-17.60
-19.65
-21.07
-21.44
-20.55
-18.38
-15.14
-11.13
-6.71
-2.15
2.26
6.24
9.54
11.95
13.35
13.82
13.56
12.86
12.03
11.24
10.55
9.91
9.20
8.35
7.36
6.35
5.46
4.83
4.47
4.27
4.04
3.60
2.88
1.92
0.84
-0.20
-1.14
-2.05
-2.99
-4.06
-5.23
-6.47
-7.73
-9.11
-10.75
-12.84
-15.41
-18.28
-21.05
-23.18
-24.20
-23.84
-22.07
-19.07
-15.13
-10.56
-5.63
-0.63
4.13
8.34
11.72
14.06
15.33
15.63
15.19
14.29
13.18
12.04
10.99
10.10
9.42
8.94
8.63
8.38
8.11
7.73
7.22
6.62
5.97
5.25
4.46
3.55
2.49
1.30
0.01
-1.39
-2.88
-4.45
-6.04
-7.57
-9.00
-10.37
-11.83
-13.58
-15.70
-18.11
-20.47
-22.26
-22.91
-22.04
-19.54
-15.61
-10.72
-5.46
-0.37
4.18
8.00
11.09
13.49
15.21
16.31
16.76
16.65
16.09
15.20
14.10
12.92
11.71
10.57
9.59
8.81
8.21
7.68
7.06
6.18
4.99
3.55
2.04
0.65
-0.46
-1.27
-1.85
-2.34
-2.85
-3.34
-3.71
-3.83
-3.71
-3.55
-3.72
-4.59
-6.37
-8.95
-11.90
-14.64
-16.53
-17.12
-16.17
-13.73
-10.10
-5.71
-1.13
3.06
6.38
8.55
9.48
9.26
8.14
6.38
4.33
2.35
0.76
-0.24
-0.67
-0.76
-0.89
-1.38
-2.34
-3.59
-4.79
-5.57
-5.80
-5.63
-5.40
-5.50
-6.12
-7.18
-8.37
-9.28
-9.57
-9.15
-8.18
-7.00
-5.97
-5.38
-5.35
-5.99
-7.39
-9.64
-12.72
-16.29
-19.68
-22.04
-22.69
-21.42
-18.54
-14.61
-10.07
-5.10
0.30
5.98
11.44
15.79
18.23
18.43
16.84
14.46
12.36
11.18
10.93
11.12
11.21
10.90
10.30
9.70
9.35
9.25
9.21
8.96
8.31
7.31
6.14
5.01
4.07
3.35
2.77
2.21
1.53
0.60
-0.64
-2.15
-3.80
-5.34
-6.54
-7.32
-7.80
-8.25
-8.93
-9.87
-10.79
-11.14
-10.42
-8.38
-5.23
-1.58
1.77
4.29
5.86
6.78
7.53
8.47
9.66
10.91
12.05
13.07
14.09
15.21
16.20
16.60
15.87
13.80
10.74
7.59
5.37
4.75
5.70
7.52
9.24
10.07
9.73
8.55
7.13
6.03
5.39
4.88
3.97
2.24
-0.36
-3.43
-6.37
-8.68
-10.18
-11.06
-11.67
-12.32
-13.16
-14.13
-15.10
-15.86
-16.23
-15.96
-14.77
-12.47
-9.04
-4.69
0.13
4.95
9.36
13.08
15.92
17.74
18.42
17.95
16.52
14.56
12.58
11.00
10.02
9.50
9.12
8.57
7.72
6.69
5.72
5.05
4.74
4.65
4.55
4.24
3.68
3.00
2.33
1.75
1.21
0.53
-0.47
-1.83
-3.45
-5.15
-6.69
-7.92
-8.81
-9.42
-9.86
-10.26
-10.70
-11.24
-11.83
-12.37
-12.63
-12.36
-11.36
-9.48
-6.76
-3.35
0.46
4.38
8.08
11.24
13.61
15.04
15.57
15.38
14.79
14.11
13.52
13.06
12.60
11.99
11.15
10.10
8.99
7.97
7.16
6.57
6.17
5.90
5.74
5.66
5.60
5.47
5.13
4.45
3.38
1.98
0.35
-1.38
-3.17
-5.01
-6.91
-8.81
-10.54
-11.90
-12.76
-13.19
-13.40
-13.70
-14.26
-15.02
-15.64
-15.63
-14.57
-12.27
-8.90
-4.89
-0.85
2.70
5.40
7.12
7.91
7.89
7.17
5.87
4.14
2.19
0.33
-1.18
-2.20
-2.70
-2.81
-2.66
-2.40
-2.08
-1.82
-1.73
-2.01
-2.85
-4.29
-6.26
-8.50
-10.69
-12.47
-13.55
-13.77
-13.18
-12.01
-10.72
-9.77
-9.57
-10.30
-11.86
-13.95
-16.17
-18.10
-19.40
-19.83
-19.24
-17.58
-14.91
-11.42
-7.40
-3.24
0.65
3.93
6.39
8.02
9.01
9.67
10.25
10.83
11.24
11.17
10.40
8.95
7.15
5.52
4.46
4.10
4.20
4.32
4.07
3.32
2.23
1.14
0.34
-0.09
-0.30
-0.59
-1.26
-2.45
-4.06
-5.85
-7.53
-8.90
-9.90
-10.65
-11.37
-12.26
-13.46
-14.93
-16.48
-17.79
-18.52
-18.36
-17.14
-14.87
-11.71
-7.97
-3.98
-0.10
3.43
6.41
8.77
10.48
11.59
12.20
12.42
12.32
11.92
11.20
10.20
9.01
7.79
6.73
5.92
5.36
4.93
4.51
4.04
3.59
3.23
3.03
2.93
2.72
2.18
1.16
-0.32
-2.05
-3.72
-5.06
-5.91
-6.38
-6.70
-7.22
-8.19
-9.71
-11.66
-13.73
-15.48
-16.45
-16.29
-14.79
-11.98
-8.09
-3.52
1.25
5.79
9.81
13.12
15.59
17.14
17.71
17.31
16.11
14.42
12.62
11.02
9.79
8.91
8.22
7.56
6.81
6.01
5.27
4.73
4.48
4.48
4.60
4.64
4.33
3.48
1.98
-0.08
-2.41
-4.62
-6.34
-7.38
-7.81
-8.00
-8.39
-9.38
-11.10
-13.37
-15.75
-17.63
-18.49
-17.93
-15.82
-12.31
-7.79
-2.80
2.04
6.22
9.45
11.68
13.06
13.80
14.08
13.98
13.46
12.51
11.16
9.54
7.88
6.39
5.25
4.54
4.27
4.37
4.78
5.40
6.08
6.63
6.82
6.43
5.36
3.67
1.55
-0.64
-2.58
-4.06
-5.06
-5.70
-6.21
-6.81
-7.61
-8.65
-9.90
-11.28
-12.61
-13.59
-13.82
-12.87
-10.49
-6.77
-2.13
2.75
7.19
10.75
13.27
14.87
15.77
16.20
16.22
15.84
14.98
13.69
12.09
10.43
8.99
7.93
7.28
6.91
6.59
6.13
5.48
4.73
4.04
3.53
3.21
2.93
2.51
1.80
0.75
-0.55
-1.95
-3.30
-4.52
-5.60
-6.63
-7.72
-8.94
-10.30
-11.68
-12.94
-13.88
-14.28
-13.97
-12.79
-10.68
-7.68
-4.04
-0.15
3.49
6.46
8.53
9.66
10.06
9.95
9.54
8.91
8.09
7.08
5.93
4.78
3.78
3.05
2.62
2.43
2.31
2.11
1.69
1.00
0.08
-0.98
-2.04
-3.02
-3.85
-4.56
-5.20
-5.80
-6.42
-7.06
-7.72
-8.46
-9.36
-10.53
-12.03
-13.78
-15.50
-16.76
-17.08
-16.16
-13.96
-10.75
-6.97
-3.11
0.48
3.61
6.17
8.11
9.37
9.93
9.82
9.17
8.17
7.03
5.92
4.94
4.12
3.44
2.87
2.39
1.98
1.68
1.50
1.42
1.35
1.15
0.72
-0.01
-0.95
-1.91
-2.74
-3.39
-3.94
-4.61
-5.59
-6.98
-8.70
-10.58
-12.37
-13.88
-14.95
-15.48
-15.32
-14.34
-12.40
-9.52
-5.90
-1.93
1.90
5.18
7.65
9.28
10.18
10.55
10.58
10.38
10.03
9.56
8.99
8.36
7.70
7.07
6.54
6.14
5.87
5.68
5.45
5.06
4.41
3.47
2.26
0.89
-0.59
-2.10
-3.61
-5.09
-6.48
-7.74
-8.88
-9.98
-11.25
-12.87
-14.96
-17.37
-19.71
-21.43
-21.98
-21.05
-18.63
-15.05
-10.78
-6.30
-1.99
1.98
5.49
8.50
10.87
12.45
13.08
12.76
11.69
10.25
8.87
7.88
7.40
7.31
7.39
7.41
7.22
6.80
6.18
5.34
4.22
2.76
0.93
-1.15
-3.25
-5.11
-6.53
-7.46
-7.96
-8.26
-8.67
-9.49
-10.96
-13.19
-16.07
-19.30
-22.41
-24.87
-26.20
-26.03
-24.17
-20.64
-15.74
-9.94
-3.87
1.86
6.84
10.89
14.09
16.63
18.64
20.09
20.79
20.57
19.43
17.63
15.66
14.02
13.01
12.64
12.68
12.79
12.68
12.25
11.51
10.57
9.47
8.20
6.67
4.83
2.70
0.40
-1.82
-3.73
-5.18
-6.18
-6.91
-7.72
-8.97
-10.94
-13.66
-16.88
-20.07
-22.57
-23.72
-23.05
-20.43
-16.11
-10.64
-4.72
1.00
6.07
10.29
13.60
16.07
17.78
18.80
19.24
19.21
18.83
18.26
17.56
16.73
15.77
14.71
13.63
12.63
11.77
11.07
10.54
10.09
9.55
8.77
7.67
6.26
4.63
2.90
1.14
-0.59
-2.36
-4.31
-6.42
-8.52
-10.28
-11.44
-12.02
-12.43
-13.11
-14.67
-17.45
-21.10
-24.42
-25.89
-24.27
-19.21
-11.54
-2.66
5.35
10.56
12.35
11.68
10.55
10.92
13.73
18.37
23.54
26.95
26.42
21.59
14.27
7.58
4.42
6.33
13.08
23.93
37.05
49.57
58.71
62.22
58.91
49.73
38.94
28.55
26.29
39.53
66.09
93.04
104.29
89.86
50.58
-3.11
-56.49
-96.01
-114.38
-113.45
-97.99
-72.75
-42.12
-10.30
18.94
42.88
57.22
62.17
59.31
49.11
30.02
0.09
-40.36
-87.22
-133.80
-172.88
-201.97
-220.98
-231.09
-232.83
-225.40
-208.13
-182.77
-154.73
-131.21
-117.59
-114.55
-117.57
-119.19
-113.08
-96.94
-73.04
-47.53
-26.19
-11.01
0.45
12.88
30.21
53.48
80.73
108.35
133.04
153.26
169.12
181.23
189.54
193.06
190.86
182.75
169.63
153.21
135.59
118.80
104.56
93.81
86.68
82.32
78.95
74.40
66.95
56.34
43.95
32.27
23.55
18.64
16.79
16.25
15.25
12.80
9.02
4.64
0.29
-3.91
-8.42
-13.85
-20.72
-29.05
-38.32
-47.55
-55.56
-61.26
-64.07
-64.09
-62.10
-59.22
-56.50
-54.54
-53.38
-52.74
-52.24
-51.63
-50.80
-49.70
-48.21
-46.11
-43.21
-39.37
-34.56
-28.66
-21.32
-12.07
-0.49
13.40
28.92
44.82
59.76
72.75
83.41
91.84
98.26
102.68
104.89
104.66
102.15
98.10
93.74
90.29
88.39
87.72
87.00
84.54
78.93
69.72
57.52
43.69
29.76
16.84
5.44
-4.38
-12.68
-19.41
-24.36
-27.37
-28.54
-28.31
-27.37
-26.60
-26.75
-28.35
-31.60
-36.34
-42.20
-48.67
-55.30
-61.75
-67.79
-73.15
-77.47
-80.41
-81.67
-81.19
-79.18
-75.96
-71.88
-67.17
-62.05
-56.77
-51.73
-47.43
-44.27
-42.39
-41.51
-41.04
-40.40
-39.28
-37.87
-36.82
-36.92
-38.71
-42.16
-46.63
-50.98
-53.93
-54.46
-52.20
-47.61
-41.88
-36.63
-33.38
-32.97
-35.21
-38.77
-41.53
-41.24
-36.31
-26.33
-12.34
3.58
19.00
31.97
41.60
48.13
52.41
55.27
56.97
57.15
55.33
51.57
46.74
42.31
39.73
39.64
41.69
44.76
47.64
49.65
50.91
52.04
53.63
55.75
57.80
58.73
57.67
54.30
49.15
43.37
38.29
34.92
33.68
34.34
36.28
38.85
41.59
44.38
47.26
50.33
53.51
56.56
59.12
60.87
61.71
61.77
61.46
61.26
61.61
62.73
64.60
66.91
69.22
71.13
72.44
73.30
74.19
75.73
78.41
82.35
87.23
92.44
97.42
101.99
106.50
111.65
118.12
126.18
135.56
145.46
154.70
161.73
164.61
161.05
148.78
126.30
93.72
53.18
8.48
-35.92
-76.24
-110.26
-137.40
-158.19
-173.51
-184.20
-191.02
-194.97
-197.41
-199.81
-203.25
-208.05
-213.65
-218.98
-222.88
-224.60
-223.89
-220.94
-216.28
-210.59
-204.69
-199.30
-194.83
-191.05
-187.04
-181.29
-172.31
-159.31
-142.64
-123.71
-104.49
-86.67
-71.04
-57.28
-44.39
-31.33
-17.62
-3.52
10.20
22.75
33.62
42.57
49.43
53.99
56.06
55.83
54.04
51.93
50.78
51.46
54.03
57.86
62.04
65.78
68.75
70.91
72.35
73.01
72.78
71.62
69.72
67.46
65.25
63.31
61.57
59.72
57.40
54.25
50.09
44.92
38.89
32.25
25.31
18.35
11.64
5.38
-0.17
-4.76
-8.11
-10.01
-10.44
-9.56
-7.70
-5.23
-2.49
0.32
3.08
5.77
8.32
10.64
12.60
14.07
14.98
15.36
15.33
15.11
14.89
14.79
14.76
14.66
14.28
13.50
12.31
10.87
9.40
8.07
6.93
5.88
4.77
3.45
1.91
0.25
-1.32
-2.68
-3.73
-4.48
-4.96
-5.19
-5.16
-4.88
-4.45
-3.98
-3.59
-3.26
-2.84
-2.04
-0.57
1.82
5.20
9.49
14.50
19.98
25.63
31.23
36.56
41.45
45.74
49.28
51.90
53.54
54.26
54.24
53.62
52.29
49.85
45.70
39.44
31.27
22.10
13.43
6.92
3.90
4.92
9.55
16.38
23.23
27.39
26.23
17.79
1.46
-21.69
-49.16
-77.76
-104.49
-127.23
-144.85
-157.07
-164.13
-166.42
-164.26
-157.80
-146.93
-131.45
-111.32
-86.89
-59.22
-30.00
-1.21
25.40
48.66
68.03
83.36
94.80
102.68
107.51
110.00
111.10
111.83
112.87
114.32
115.72
116.34
115.37
111.78
104.54
93.13
78.27
61.89
46.49
34.03
24.86
17.49
8.98
-3.43
-20.10
-38.04
-52.29
-58.49
-55.00
-43.23
-26.31
-7.85
9.13
22.84
32.05
35.14
29.85
14.23
-12.61
-45.54
-75.05
-93.31
-98.64
-94.35
-85.21
-74.94
-65.42
-57.00
-49.11
-41.67
-35.24
-30.48
-27.37
-25.38
-23.75
-21.93
-19.60
-16.50
-12.95
-9.75
-7.61
-6.63
-6.41
-6.42
-6.28
-5.75
-4.70
-3.29
-1.99
-1.18
-0.91
-1.02
-1.30
-1.65
-2.01
-2.29
-2.43
-2.58
-2.89
-3.39
-4.03
-4.69
-5.22
-5.52
-5.70
-6.24
-7.80
-10.76
-14.64
-18.03
-19.04
-16.11
-8.99
0.79
10.69
17.51
18.85
14.07
4.49
-7.23
-18.27
-26.59
-31.33
-32.54
-30.84
-26.78
-20.77
-13.20
-4.46
4.90
14.49
24.40
35.40
48.36
63.00
76.52
83.53
78.09
57.26
23.92
-12.96
-41.38
-51.64
-40.76
-13.65
19.86
49.83
70.18
79.31
78.08
67.72
49.45
25.68
1.24
-17.35
-24.69
-19.59
-6.11
8.57
18.05
20.23
17.57
14.95
16.44
23.25
33.92
46.01
58.03
68.54
76.80
82.19
83.96
81.52
75.39
67.79
62.27
62.51
70.62
85.93
104.81
121.79
131.57
131.04
120.26
101.93
80.08
58.42
39.51
24.36
12.71
3.47
-4.63
-12.58
-20.52
-27.34
-31.00
-29.27
-21.17
-7.98
6.36
16.34
16.34
2.08
-28.15
-72.73
-126.23
-179.92
-223.28
-247.13
-246.84
-224.57
-188.70
-150.55
-120.05
-102.10
-95.71
-95.78
-96.06
-91.57
-79.62
-59.34
-31.02
4.21
44.38
86.36
127.05
164.41
197.64
226.88
252.70
275.73
296.06
313.17
325.41
330.55
326.19
310.36
282.17
242.60
194.65
142.53
90.31
39.79
-8.69
-55.53
-101.51
-147.20
-191.93
-233.22
-266.99
-288.78
-297.70
-293.80
-277.87
-252.75
-223.91
-197.53
-178.26
-168.14
-166.66
-176.46
-196.03
-218.80
-237.43
-248.24
-251.36
-248.82
-243.02
-235.69
-235.10
-243.09
-252.81
-255.65
-248.51
-234.02
-217.33
-203.94
-198.61
-214.99
-257.99
-319.16
-383.68
-439.05
-477.08
-493.31
-487.36
-399.33
-226.69
-25.96
141.78
255.91
325.51
365.45
386.43
394.73
394.70
380.44
352.45
320.05
293.09
274.61
261.50
249.80
237.92
226.80
211.09
190.72
172.30
162.40
160.97
160.90
153.23
131.90
96.67
48.99
-1.63
-39.82
-52.74
-35.99
3.69
53.79
101.79
139.30
161.04
167.80
164.98
150.77
130.74
109.00
87.64
67.87
51.03
37.33
26.84
19.44
14.49
12.19
11.51
11.67
12.29
12.80
11.90
7.92
-0.36
-12.84
-26.87
-40.08
-50.60
-57.64
-61.68
-64.42
-67.74
-72.84
-79.86
-86.02
-88.18
-83.22
-69.19
-46.49
-18.84
7.38
24.88
28.12
15.72
-9.55
-41.07
-70.52
-90.27
-95.98
-87.45
-68.10
-43.19
-17.70
4.80
22.70
35.73
44.28
48.17
47.07
41.11
31.73
21.65
13.95
11.11
11.64
13.76
14.99
13.46
8.92
2.97
-1.95
-4.05
-3.11
-0.67
1.43
1.74
0.30
-1.46
-1.63
0.86
5.52
10.48
13.43
13.30
10.61
7.48
6.43
8.73
13.40
17.43
17.32
11.01
-0.56
-13.96
-24.94
-30.56
-30.64
-27.49
-24.38
-23.55
-25.18
-27.52
-28.35
-26.29
-21.45
-15.13
-8.81
-3.40
1.18
5.59
10.47
15.73
20.55
23.73
24.41
22.57
19.14
15.45
12.57
10.82
9.65
8.06
5.15
0.63
-5.01
-10.81
-15.73
-19.05
-20.58
-20.73
-20.35
-20.57
-22.47
-26.64
-32.72
-39.17
-43.54
-43.24
-36.62
-23.88
-7.28
9.58
23.06
30.78
32.32
29.09
23.60
18.37
15.34
15.46
18.82
24.81
32.31
39.89
46.15
50.08
51.43
50.89
49.92
50.16
52.74
57.79
64.35
70.76
75.33
76.99
75.46
71.09
64.45
55.97
46.12
35.61
25.64
17.71
13.06
12.03
13.90
17.15
20.17
21.79
21.27
18.00
11.17
-0.18
-16.59
-37.65
-61.58
-85.60
-106.69
-122.49
-131.83
-134.71
-132.10
-125.47
-116.42
-106.32
-96.00
-85.51
-74.18
-60.91
-44.93
-26.23
-5.81
14.63
33.37
49.24
61.85
71.49
78.66
83.65
86.55
87.41
86.51
84.42
81.64
78.19
73.39
65.92
54.46
38.39
18.41
-3.54
-24.81
-42.88
-56.14
-64.19
-67.67
-67.69
-65.23
-60.76
-54.33
-45.68
-34.63
-21.19
-5.63
11.43
29.02
45.75
59.96
70.06
75.06
74.94
70.84
64.64
58.40
53.72
51.43
51.60
53.86
57.75
62.77
68.30
73.48
77.16
78.22
75.95
70.40
62.33
52.81
42.67
32.06
20.56
7.66
-6.61
-21.36
-34.95
-45.76
-52.74
-55.95
-56.33
-55.20
-53.57
-51.86
-49.91
-47.34
-44.00
-40.12
-36.18
-32.64
-29.73
-27.39
-25.44
-23.83
-22.71
-22.37
-22.99
-24.46
-26.40
-28.36
-30.20
-32.20
-34.97
-38.94
-43.82
-48.39
-50.78
-49.21
-42.83
-32.25
-19.28
-6.31
4.71
12.90
18.65
23.12
27.61
32.87
38.83
44.77
49.68
52.72
53.51
52.23
49.49
46.07
42.68
39.71
37.26
35.23
33.45
31.86
30.45
29.26
28.27
27.43
26.72
26.20
26.03
26.43
27.55
29.40
31.85
34.68
37.63
40.53
43.35
46.18
49.21
52.56
56.08
59.15
60.72
59.53
54.54
45.33
32.34
16.75
0.14
-16.03
-30.73
-43.38
-53.77
-61.85
-67.64
-71.21
-72.68
-72.22
-70.06
-66.54
-62.27
-58.14
-55.14
-54.00
-54.85
-57.13
-59.83
-61.89
-62.61
-61.74
-59.31
-55.60
-50.98
-46.07
-41.76
-38.97
-38.16
-38.99
-40.37
-40.87
-39.54
-36.37
-32.41
-29.22
-28.34
-30.62
-36.15
-44.23
-53.64
-62.83
-70.28
-74.80
-75.85
-73.62
-69.02
-63.29
-57.63
-52.51
-47.28
-40.11
-28.59
-10.87
13.17
41.28
69.21
92.10
106.26
110.42
106.05
96.45
85.27
75.22
67.50
62.01
58.04
54.89
52.09
49.34
46.41
43.05
39.04
34.35
29.27
24.38
20.43
18.00
17.27
17.90
19.05
19.75
19.19
17.10
13.74
9.75
5.86
2.53
-0.14
-2.44
-4.79
-7.54
-10.72
-13.97
-16.72
-18.39
-18.61
-17.42
-15.21
-12.55
-10.03
-7.99
-6.55
-5.59
-4.94
-4.44
-4.08
-3.91
-4.01
-4.34
-4.80
-5.20
-5.44
-5.50
-5.52
-5.66
-6.03
-6.60
-7.17
-7.51
-7.41
-6.84
-5.92
-4.83
-3.77
-2.80
-1.89
-0.99
-0.14
0.50
0.69
0.23
-0.91
-2.61
-4.63
-6.74
-8.80
-10.77
-12.66
-14.47
-16.09
-17.40
-18.18
-18.22
-17.36
-15.50
-12.72
-9.20
-5.25
-1.15
2.90
6.82
10.65
14.34
17.76
20.63
22.68
23.74
23.86
23.29
22.37
21.45
20.68
20.03
19.26
18.04
16.06
13.21
9.59
5.56
1.49
-2.25
-5.45
-7.99
-9.84
-10.96
-11.37
-11.12
-10.35
-9.23
-7.95
-6.61
-5.25
-3.91
-2.71
-1.88
-1.70
-2.41
-4.16
-6.93
-10.48
-14.44
-18.33
-21.62
-23.84
-24.64
-23.90
-21.71
-18.38
-14.36
-10.08
-5.85
-1.81
2.01
5.59
8.87
11.63
13.72
15.08
15.83
16.24
16.56
16.89
17.17
17.22
16.95
16.45
15.94
15.68
15.74
15.96
15.96
15.28
13.61
10.90
7.36
3.42
-0.49
-4.08
-7.27
-10.15
-12.79
-15.24
-17.43
-19.31
-20.87
-22.19
-23.38
-24.38
-24.94
-24.63
-23.10
-20.23
-16.21
-11.55
-6.83
-2.52
1.17
4.25
6.89
9.27
11.52
13.70
15.78
17.69
19.28
20.45
21.09
21.19
20.83
20.18
19.40
18.64
17.95
17.31
16.63
15.85
14.94
13.89
12.70
11.31
9.61
7.45
4.69
1.32
-2.54
-6.66
-10.72
-14.38
-17.46
-19.88
-21.72
-23.19
-24.52
-25.92
-27.47
-29.18
-30.87
-32.22
-32.78
-32.11
-29.95
-26.38
-21.82
-16.84
-11.97
-7.43
-3.18
0.92
4.91
8.54
11.41
13.13
13.56
12.90
11.60
10.13
8.84
7.86
7.14
6.60
6.17
5.80
5.49
5.26
5.11
5.04
5.09
5.30
5.78
6.63
7.89
9.45
11.05
12.28
12.83
12.51
11.31
9.43
7.11
4.50
1.62
-1.56
-5.12
-9.04
-13.16
-17.26
-21.10
-24.44
-27.06
-28.78
-29.35
-28.59
-26.37
-22.69
-17.88
-12.45
-7.06
-2.37
1.25
3.76
5.44
6.74
8.10
9.71
11.50
13.21
14.50
15.19
15.33
15.15
15.00
15.12
15.55
16.14
16.66
16.98
17.09
17.13
17.24
17.43
17.47
17.06
15.94
14.07
11.67
9.09
6.61
4.31
2.06
-0.32
-3.01
-6.01
-9.19
-12.42
-15.55
-18.50
-21.15
-23.31
-24.72
-25.13
-24.39
-22.53
-19.75
-16.36
-12.66
-8.92
-5.34
-2.05
0.86
3.42
5.72
7.91
10.10
12.30
14.39
16.16
17.43
18.15
18.48
18.65
18.85
19.14
19.44
19.59
19.49
19.16
18.68
18.10
17.33
16.22
14.63
12.55
10.08
7.39
4.60
1.77
-1.11
-4.06
-7.03
-9.93
-12.66
-15.16
-17.45
-19.57
-21.53
-23.23
-24.49
-25.00
-24.41
-22.46
-19.08
-14.44
-9.02
-3.39
1.89
6.51
10.36
13.47
15.91
17.65
18.71
19.10
18.99
18.63
18.31
18.20
18.36
18.62
18.69
18.29
17.20
15.47
13.32
11.11
9.12
7.42
5.82
3.99
1.60
-1.48
-5.09
-8.87
-12.42
-15.37
-17.58
-19.05
-19.92
-20.38
-20.62
-20.82
-21.09
-21.49
-21.98
-22.40
-22.47
-21.86
-20.28
-17.61
-13.93
-9.54
-4.85
-0.27
3.87
7.38
10.18
12.28
13.72
14.56
14.87
14.68
14.10
13.27
12.36
11.57
11.03
10.75
10.62
10.49
10.21
9.76
9.25
8.81
8.56
8.54
8.65
8.76
8.71
8.35
7.64
6.61
5.35
3.99
2.63
1.27
-0.18
-1.90
-3.98
-6.40
-9.04
-11.67
-14.18
-16.51
-18.65
-20.54
-22.00
-22.76
-22.57
-21.34
-19.17
-16.36
-13.25
-10.13
-7.21
-4.56
-2.18
-0.05
1.83
3.46
4.77
5.69
6.16
6.21
5.93
5.49
5.06
4.80
4.79
5.03
5.49
6.04
6.52
6.76
6.62
6.10
5.34
4.56
3.91
3.44
2.98
2.24
0.93
-1.11
-3.83
-6.99
-10.24
-13.27
-15.87
-17.92
-19.41
-20.36
-20.78
-20.68
-20.04
-18.80
-16.95
-14.46
-11.45
-8.08
-4.56
-1.16
1.94
4.59
6.73
8.32
9.33
9.75
9.64
9.13
8.39
7.60
6.86
6.14
5.36
4.44
3.36
2.28
1.38
0.83
0.67
0.81
1.04
1.24
1.32
1.31
1.24
1.11
0.90
0.59
0.18
-0.25
-0.61
-0.83
-0.92
-0.96
-1.04
-1.28
-1.74
-2.51
-3.60
-4.92
-6.24
-7.21
-7.48
-6.81
-5.23
-2.97
-0.39
2.20
4.62
6.84
8.90
10.86
12.67
14.23
15.38
16.01
16.07
15.59
14.69
13.51
12.25
11.05
10.01
9.21
8.72
8.58
8.78
9.24
9.77
10.14
10.15
9.76
9.02
8.07
7.01
5.85
4.51
2.92
1.07
-0.95
-3.01
-5.02
-6.99
-9.00
-11.08
-13.22
-15.28
-17.11
-18.65
-19.91
-21.03
-22.11
-23.18
-24.10
-24.59
-24.37
-23.24
-21.19
-18.32
-14.86
-11.05
-7.06
-3.07
0.78
4.28
7.16
9.13
9.96
9.60
8.23
6.23
4.03
2.00
0.35
-0.91
-1.85
-2.52
-2.94
-3.08
-2.96
-2.65
-2.30
-2.06
-1.96
-1.93
-1.83
-1.56
-1.15
-0.68
-0.31
-0.12
-0.16
-0.39
-0.79
-1.33
-1.96
-2.63
-3.26
-3.80
-4.23
-4.57
-4.84
-5.02
-5.00
-4.61
-3.69
-2.19
-0.20
2.08
4.35
6.28
7.59
8.13
7.93
7.18
6.15
5.03
3.89
2.67
1.32
-0.11
-1.38
-2.23
-2.50
-2.26
-1.78
-1.34
-1.10
-1.05
-1.07
-1.07
-1.08
-1.17
-1.43
-1.81
-2.26
-2.71
-3.19
-3.76
-4.45
-5.23
-6.01
-6.67
-7.18
-7.59
-7.98
-8.46
-9.05
-9.74
-10.49
-11.22
-11.84
-12.23
-12.26
-11.82
-10.87
-9.42
-7.52
-5.24
-2.60
0.34
3.48
6.63
9.50
11.79
13.31
14.02
14.06
13.68
13.07
12.35
11.50
10.47
9.22
7.81
6.36
5.06
4.02
3.28
2.80
2.48
2.20
1.90
1.57
1.22
0.85
0.42
-0.17
-0.97
-1.98
-3.10
-4.17
-4.99
-5.50
-5.77
-6.03
-6.53
-7.47
-8.90
-10.68
-12.54
-14.13
-15.14
-15.34
-14.58
-12.84
-10.17
-6.70
-2.64
1.79
6.34
10.83
15.16
19.29
23.20
26.74
29.61
31.35
31.57
30.07
27.03
22.96
18.55
14.39
10.81
7.86
5.32
2.93
0.47
-2.12
-4.80
-7.45
-9.91
-12.05
-13.77
-15.02
-15.84
-16.37
-16.77
-17.17
-17.56
-17.82
-17.79
-17.41
-16.79
-16.19
-15.95
-16.27
-17.12
-18.23
-19.20
-19.65
-19.34
-18.13
-16.02
-12.98
-9.09
-4.50
0.47
5.42
9.95
13.74
16.65
18.71
20.04
20.81
21.16
21.20
21.04
20.76
20.42
20.05
19.64
19.13
18.46
17.56
16.40
15.00
13.42
11.82
10.32
9.07
8.12
7.45
6.92
6.31
5.44
4.21
2.71
1.16
-0.20
-1.25
-2.04
-2.78
-3.71
-4.92
-6.37
-7.90
-9.35
-10.71
-12.02
-13.32
-14.53
-15.44
-15.83
-15.59
-14.75
-13.48
-11.89
-10.08
-8.08
-5.90
-3.68
-1.61
0.11
1.35
2.17
2.69
3.06
3.38
3.71
4.10
4.58
5.16
5.80
6.41
6.86
7.10
7.14
7.10
7.10
7.22
7.43
7.64
7.75
7.72
7.56
7.26
6.80
6.12
5.26
4.38
3.68
3.29
3.11
2.78
1.86
0.03
-2.65
-5.75
-8.65
-10.87
-12.20
-12.77
-12.84
-12.55
-11.85
-10.57
-8.60
-6.09
-3.38
-0.88
1.10
2.46
3.34
3.94
4.45
4.94
5.39
5.71
5.84
5.71
5.34
4.77
4.09
3.41
2.79
2.21
1.65
1.05
0.38
-0.30
-0.93
-1.43
-1.78
-2.02
-2.24
-2.47
-2.73
-2.96
-3.09
-3.07
-2.96
-2.87
-2.97
-3.44
-4.33
-5.60
-7.06
-8.39
-9.25
-9.35
-8.56
-6.91
-4.59
-1.87
0.95
3.62
5.98
7.96
9.58
10.91
12.04
13.05
13.95
14.65
15.01
14.90
14.27
13.23
11.98
10.75
9.71
8.91
8.27
7.71
7.21
6.79
6.50
6.31
6.07
5.67
5.06
4.32
3.62
3.02
2.42
1.55
0.15
-1.88
-4.39
-7.09
-9.75
-12.28
-14.79
-17.42
-20.21
-22.99
-25.45
-27.26
-28.12
-27.88
-26.49
-24.01
-20.65
-16.67
-12.46
-8.35
-4.60
-1.36
1.32
3.43
4.97
5.96
6.44
6.47
6.17
5.67
5.11
4.60
4.26
4.13
4.25
4.60
5.11
5.72
6.29
6.70
6.85
6.71
6.33
5.87
5.49
5.28
5.16
4.99
4.62
4.02
3.30
2.62
2.05
1.60
1.13
0.52
-0.32
-1.39
-2.62
-3.91
-5.17
-6.23
-6.93
-7.12
-6.75
-5.87
-4.58
-2.97
-1.05
1.20
3.80
6.65
9.53
12.19
14.32
15.64
15.94
15.06
13.03
10.05
6.55
3.05
-0.01
-2.34
-3.90
-4.80
-5.23
-5.33
-5.23
-5.02
-4.79
-4.59
-4.45
-4.32
-4.12
-3.82
-3.48
-3.24
-3.25
-3.63
-4.35
-5.27
-6.22
-7.05
-7.73
-8.31
-8.89
-9.58
-10.44
-11.42
-12.45
-13.43
-14.29
-14.93
-15.21
-14.98
-14.04
-12.31
-9.84
-6.85
-3.67
-0.69
1.84
3.81
5.27
6.35
7.12
7.61
7.76
7.55
7.01
6.29
5.59
5.02
4.64
4.35
4.04
3.59
2.95
2.17
1.32
0.50
-0.20
-0.73
-1.10
-1.32
-1.47
-1.66
-1.97
-2.46
-3.14
-3.97
-4.85
-5.66
-6.35
-6.89
-7.35
-7.82
-8.44
-9.25
-10.20
-11.07
-11.56
-11.31
-10.12
-7.94
-4.98
-1.61
1.75
4.77
7.30
9.35
11.05
12.53
13.80
14.86
15.59
15.93
15.88
15.47
14.77
13.88
12.85
11.80
10.83
10.08
9.67
9.60
9.76
9.95
9.93
9.54
8.73
7.55
6.11
4.56
3.01
1.53
0.17
-1.08
-2.28
-3.50
-4.83
-6.32
-7.99
-9.78
-11.56
-13.17
-14.44
-15.21
-15.39
-14.95
-13.94
-12.47
-10.59
-8.34
-5.70
-2.68
0.59
3.83
6.71
8.95
10.42
11.18
11.47
11.52
11.49
11.39
11.14
10.65
9.99
9.30
8.78
8.48
8.35
8.20
7.81
7.08
6.02
4.76
3.40
2.01
0.55
-1.03
-2.75
-4.53
-6.26
-7.85
-9.24
-10.44
-11.51
-12.50
-13.45
-14.37
-15.23
-15.96
-16.41
-16.38
-15.67
-14.12
-11.74
-8.67
-5.23
-1.76
1.46
4.26
6.63
8.66
10.47
12.08
13.44
14.40
14.82
14.68
14.07
13.22
12.33
11.53
10.82
10.15
9.40
8.53
7.58
6.63
5.79
5.10
4.57
4.10
3.63
3.09
2.56
2.12
1.88
1.84
1.92
1.98
1.87
1.53
0.98
0.35
-0.25
-0.73
-1.10
-1.39
-1.66
-1.91
-2.05
-1.92
-1.34
-0.16
1.63
3.94
6.50
9.03
11.30
13.16
14.58
15.60
16.23
16.45
16.23
15.59
14.61
13.46
12.31
11.28
10.41
9.60
8.73
7.69
6.51
5.26
4.10
3.13
2.36
1.71
1.04
0.26
-0.68
-1.71
-2.71
-3.62
-4.41
-5.11
-5.77
-6.39
-6.96
-7.45
-7.91
-8.45
-9.26
-10.47
-12.10
-13.95
-15.66
-16.78
-16.92
-15.88
-13.73
-10.79
-7.51
-4.34
-1.59
0.58
2.19
3.30
3.92
4.03
3.60
2.65
1.35
-0.02
-1.18
-1.86
-1.99
-1.64
-1.03
-0.42
0.03
0.28
0.44
0.62
0.82
0.95
0.82
0.30
-0.61
-1.78
-2.99
-4.09
-5.01
-5.84
-6.71
-7.71
-8.83
-9.98
-11.04
-11.92
-12.59
-13.07
-13.40
-13.57
-13.49
-13.01
-11.95
-10.18
-7.76
-4.86
-1.78
1.15
3.66
5.57
6.89
7.69
8.10
8.23
8.13
7.86
7.48
7.01
6.49
5.95
5.35
4.72
4.09
3.51
3.02
2.64
2.32
2.01
1.68
1.32
0.99
0.72
0.54
0.44
0.44
0.52
0.68
0.89
1.01
0.92
0.52
-0.21
-1.20
-2.32
-3.42
-4.34
-4.96
-5.15
-4.84
-3.99
-2.69
-1.09
0.65
2.39
4.10
5.79
7.45
9.00
10.31
11.22
11.64
11.53
10.96
10.03
8.88
7.66
6.51
5.54
4.81
4.26
3.81
3.32
2.75
2.15
1.65
1.36
1.30
1.34
1.27
0.87
0.05
-1.14
-2.51
-3.90
-5.22
-6.50
-7.87
-9.48
-11.44
-13.76
-16.31
-18.87
-21.15
-22.82
-23.67
-23.59
-22.69
-21.18
-19.32
-17.32
-15.31
-13.37
-11.53
-9.87
-8.44
-7.30
-6.44
-5.82
-5.36
-5.03
-4.77
-4.55
-4.31
-4.00
-3.59
-3.08
-2.51
-1.94
-1.43
-1.03
-0.78
-0.68
-0.71
-0.84
-1.03
-1.27
-1.58
-2.02
-2.61
-3.37
-4.27
-5.26
-6.35
-7.57
-8.99
-10.68
-12.56
-14.42
-15.89
-16.59
-16.25
-14.80
-12.46
-9.66
-6.82
-4.23
-1.98
0.03
1.95
3.80
5.49
6.82
7.63
7.91
7.77
7.40
6.97
6.50
5.95
5.22
4.33
3.37
2.51
1.91
1.59
1.52
1.55
1.53
1.42
1.27
1.16
1.20
1.40
1.68
1.91
1.92
1.62
0.93
-0.12
-1.45
-2.94
-4.39
-5.59
-6.30
-6.28
-5.41
-3.74
-1.46
1.07
3.47
5.47
6.98
8.09
9.00
9.84
10.67
11.39
11.84
11.92
11.61
11.04
10.37
9.79
9.43
9.35
9.53
9.91
10.42
10.99
11.51
11.90
12.07
11.96
11.53
10.79
9.79
8.55
7.10
5.46
3.69
1.85
0.04
-1.70
-3.45
-5.33
-7.47
-9.89
-12.44
-14.79
-16.56
-17.39
-17.07
-15.60
-13.12
-9.89
-6.20
-2.40
1.22
4.40
6.98
8.87
10.13
10.92
11.47
12.02
12.71
13.57
14.46
15.18
15.53
15.37
14.70
13.56
12.08
10.38
8.57
6.75
4.96
3.21
1.48
-0.30
-2.18
-4.13
-6.04
-7.76
-9.16
-10.20
-10.94
-11.53
-12.17
-13.04
-14.19
-15.59
-17.07
-18.38
-19.22
-19.29
-18.41
-16.52
-13.75
-10.31
-6.49
-2.53
1.37
5.05
8.36
11.18
13.37
14.89
15.79
16.19
16.31
16.34
16.44
16.68
17.03
17.44
17.79
18.01
18.00
17.65
16.89
15.64
13.91
11.78
9.38
6.90
4.49
2.26
0.28
-1.41
-2.79
-3.84
-4.55
-4.94
-5.07
-5.02
-4.87
-4.74
-4.66
-4.62
-4.46
-3.98
-3.00
-1.46
0.52
2.70
4.74
6.43
7.70
8.60
9.21
9.55
9.49
8.83
7.39
5.19
2.41
-0.59
-3.40
-5.74
-7.48
-8.67
-9.42
-9.86
-10.06
-10.01
-9.74
-9.31
-8.80
-8.32
-7.89
-7.49
-7.01
-6.39
-5.62
-4.79
-4.00
-3.40
-3.01
-2.83
-2.79
-2.85
-2.97
-3.20
-3.54
-4.00
-4.52
-4.95
-5.16
-5.00
-4.39
-3.30
-1.78
0.08
2.17
4.37
6.60
8.75
10.72
12.37
13.57
14.18
14.16
13.56
12.51
11.20
9.76
8.30
6.86
5.44
4.02
2.59
1.15
-0.24
-1.50
-2.57
-3.47
-4.25
-5.05
-5.94
-6.92
-7.85
-8.56
-8.94
-9.04
-9.05
-9.19
-9.58
-10.19
-10.83
-11.32
-11.54
-11.44
-11.07
-10.38
-9.28
-7.65
-5.44
-2.75
0.18
3.06
5.71
8.10
10.37
12.70
15.18
17.70
20.00
21.74
22.70
22.80
22.18
21.08
19.81
18.60
17.58
16.77
16.07
15.35
14.49
13.43
12.21
10.83
9.32
7.67
5.86
3.91
1.94
0.09
-1.53
-2.82
-3.81
-4.57
-5.16
-5.69
-6.25
-6.94
-7.82
-8.85
-9.89
-10.71
-11.12
-10.97
-10.28
-9.13
-7.62
-5.82
-3.80
-1.61
0.63
2.78
4.68
6.23
7.36
8.03
8.25
7.99
7.24
6.03
4.45
2.63
0.76
-1.01
-2.57
-3.92
-5.11
-6.22
-7.34
-8.46
-9.52
-10.45
-11.14
-11.57
-11.74
-11.71
-11.56
-11.40
-11.30
-11.32
-11.48
-11.77
-12.17
-12.64
-13.12
-13.55
-13.86
-13.92
-13.63
-12.92
-11.77
-10.24
-8.49
-6.64
-4.86
-3.25
-1.86
-0.74
0.09
0.60
0.72
0.45
-0.22
-1.19
-2.33
-3.44
-4.38
-5.04
-5.46
-5.75
-6.06
-6.46
-6.90
-7.26
-7.38
-7.18
-6.77
-6.40
-6.35
-6.81
-7.78
-9.03
-10.25
-11.17
-11.64
-11.71
-11.57
-11.45
-11.50
-11.77
-12.24
-12.81
-13.36
-13.74
-13.80
-13.39
-12.41
-10.84
-8.75
-6.30
-3.65
-0.94
1.72
4.24
6.52
8.45
9.91
10.80
11.08
10.76
9.92
8.68
7.20
5.58
3.91
2.20
0.44
-1.33
-3.04
-4.52
-5.61
-6.16
-6.19
-5.84
-5.38
-5.11
-5.22
-5.65
-6.11
-6.11
-5.22
-3.30
-0.61
2.22
4.47
5.58
5.33
3.88
1.61
-1.00
-3.47
-5.43
-6.55
-6.62
-5.63
-3.73
-1.27
1.37
3.85
6.00
7.77
9.22
10.41
11.40
12.22
12.87
13.27
13.31
12.89
11.97
10.64
9.07
7.44
5.88
4.42
2.99
1.52
-0.00
-1.58
-3.10
-4.48
-5.63
-6.54
-7.25
-7.90
-8.61
-9.50
-10.60
-11.84
-13.16
-14.47
-15.75
-17.03
-18.38
-19.77
-21.05
-21.96
-22.16
-21.42
-19.67
-17.02
-13.77
-10.26
-6.80
-3.52
-0.43
2.56
5.46
8.17
10.47
12.11
12.92
12.95
12.42
11.66
11.00
10.64
10.61
10.84
11.21
11.61
11.95
12.17
12.20
12.01
11.56
10.88
10.00
9.00
7.93
6.83
5.73
4.66
3.64
2.67
1.73
0.74
-0.42
-1.85
-3.60
-5.61
-7.66
-9.46
-10.71
-11.18
-10.76
-9.50
-7.52
-5.00
-2.15
0.84
3.80
6.59
9.14
11.43
13.46
15.26
16.75
17.83
18.37
18.29
17.65
16.65
15.55
14.56
13.74
13.02
12.24
11.30
10.20
9.08
8.10
7.37
6.85
6.44
6.00
5.44
4.76
3.99
3.18
2.33
1.42
0.46
-0.52
-1.50
-2.44
-3.37
-4.35
-5.43
-6.61
-7.84
-9.00
-9.91
-10.34
-10.11
-9.04
-7.09
-4.31
-0.86
3.02
7.07
11.07
14.82
18.18
21.05
23.39
25.18
26.40
27.08
27.22
26.87
26.15
25.20
24.16
23.15
22.18
21.19
20.12
18.94
17.67
16.39
15.11
13.85
12.60
11.33
10.09
8.91
7.82
6.79
5.74
4.57
3.23
1.72
0.10
-1.56
-3.15
-4.59
-5.82
-6.81
-7.58
-8.28
-9.06
-10.07
-11.31
-12.61
-13.63
-14.01
-13.47
-11.94
-9.56
-6.66
-3.56
-0.57
2.14
4.48
6.38
7.79
8.63
8.84
8.42
7.43
6.04
4.43
2.77
1.15
-0.33
-1.64
-2.72
-3.49
-3.86
-3.82
-3.43
-2.85
-2.30
-1.93
-1.81
-1.89
-2.08
-2.34
-2.73
-3.40
-4.50
-6.08
-8.05
-10.18
-12.28
-14.24
-16.06
-17.85
-19.68
-21.58
-23.48
-25.35
-27.12
-28.77
-30.24
-31.38
-32.01
-31.88
-30.85
-28.82
-25.88
-22.20
-18.03
-13.61
-9.16
-4.85
-0.82
2.82
5.95
8.52
10.48
11.86
12.71
13.11
13.09
12.72
12.04
11.16
10.23
9.36
8.61
7.94
7.27
6.52
5.72
4.91
4.16
3.44
2.66
1.74
0.64
-0.61
-1.89
-3.12
-4.28
-5.32
-6.22
-6.94
-7.46
-7.86
-8.28
-8.91
-9.85
-11.08
-12.44
-13.66
-14.53
-14.84
-14.48
-13.42
-11.69
-9.35
-6.56
-3.50
-0.39
2.59
5.33
7.79
9.96
11.80
13.22
14.11
14.37
13.99
13.04
11.72
10.20
8.66
7.25
6.06
5.18
4.67
4.51
4.61
4.78
4.83
4.63
4.20
3.65
3.14
2.78
2.57
2.48
2.42
2.40
2.45
2.64
2.98
3.39
3.73
3.82
3.58
3.01
2.28
1.61
1.18
1.10
1.33
1.74
2.18
2.59
2.99
3.53
4.35
5.55
7.12
8.95
10.87
12.66
14.12
15.07
15.41
15.11
14.24
12.92
11.30
9.51
7.67
5.85
4.10
2.42
0.84
-0.62
-1.92
-3.01
-3.89
-4.56
-5.07
-5.46
-5.71
-5.79
-5.63
-5.18
-4.51
-3.77
-3.18
-2.93
-3.06
-3.45
-3.91
-4.20
-4.22
-4.01
-3.73
-3.60
-3.71
-4.00
-4.24
-4.16
-3.53
-2.33
-0.67
1.27
3.34
5.46
7.55
9.52
11.24
12.52
13.21
13.27
12.83
12.08
11.24
10.46
9.79
9.19
8.60
7.91
7.10
6.16
5.18
4.27
3.50
2.89
2.40
1.96
1.52
1.09
0.72
0.44
0.24
0.02
-0.33
-0.87
-1.53
-2.22
-2.88
-3.60
-4.65
-6.41
-9.12
-12.79
-17.08
-21.42
-25.18
-27.89
-29.30
-29.44
-28.49
-26.68
-24.25
-21.37
-18.21
-14.92
-11.60
-8.34
-5.20
-2.24
0.48
2.80
4.54
5.47
5.44
4.37
2.34
-0.44
-3.66
-6.95
-9.93
-12.34
-14.04
-15.06
-15.54
-15.69
-15.67
-15.59
-15.50
-15.40
-15.30
-15.20
-15.13
-15.05
-14.90
-14.62
-14.21
-13.74
-13.37
-13.28
-13.51
-13.99
-14.49
-14.71
-14.37
-13.30
-11.51
-9.11
-6.36
-3.52
-0.86
1.49
3.50
5.26
6.86
8.34
9.61
10.46
10.71
10.24
9.16
7.75
6.35
5.22
4.41
3.78
3.09
2.21
1.16
0.13
-0.65
-1.06
-1.11
-0.97
-0.82
-0.81
-1.00
-1.36
-1.87
-2.48
-3.16
-3.84
-4.43
-4.89
-5.31
-5.85
-6.69
-7.90
-9.35
-10.73
-11.66
-11.81
-11.03
-9.42
-7.18
-4.60
-1.88
0.89
3.73
6.67
9.69
12.66
15.34
17.47
18.86
19.50
19.53
19.16
18.60
17.97
17.27
16.48
15.58
14.56
13.46
12.31
11.19
10.16
9.30
8.64
8.18
7.87
7.59
7.25
6.83
6.40
6.13
6.11
6.30
6.49
6.27
5.22
3.03
-0.38
-4.79
-9.77
-14.76
-19.24
-22.73
-24.96
-25.78
-25.19
-23.35
-20.46
-16.80
-12.66
-8.34
-4.11
-0.17
3.32
6.31
8.75
10.60
11.82
12.33
12.15
11.37
10.21
8.91
7.66
6.51
5.39
4.21
2.97
1.78
0.84
0.28
0.10
0.10
0.03
-0.29
-0.88
-1.55
-2.08
-2.27
-2.09
-1.66
-1.19
-0.90
-0.96
-1.47
-2.41
-3.74
-5.28
-6.77
-7.88
-8.24
-7.58
-5.80
-3.05
0.31
3.80
7.01
9.68
11.79
13.49
14.95
16.24
17.26
17.86
17.93
17.54
16.87
16.12
15.34
14.44
13.23
11.57
9.50
7.23
5.06
3.18
1.66
0.41
-0.72
-1.88
-3.14
-4.54
-6.07
-7.64
-9.12
-10.36
-11.29
-12.00
-12.71
-13.72
-15.21
-17.16
-19.27
-21.08
-22.14
-22.13
-20.97
-18.72
-15.59
-11.80
-7.54
-2.98
1.73
6.42
10.89
14.88
18.09
20.26
21.26
21.10
19.98
18.19
16.04
13.77
11.59
9.58
7.78
6.19
4.73
3.32
1.95
0.66
-0.44
-1.26
-1.81
-2.23
-2.71
-3.42
-4.39
-5.53
-6.66
-7.62
-8.37
-8.93
-9.40
-9.88
-10.44
-11.09
-11.83
-12.54
-13.05
-13.08
-12.38
-10.79
-8.29
-5.03
-1.21
2.95
7.29
11.61
15.70
19.29
22.06
23.83
24.56
24.37
23.48
22.10
20.43
18.61
16.80
15.18
13.90
13.07
12.68
12.61
12.64
12.53
12.11
11.31
10.18
8.88
7.55
6.28
5.10
3.96
2.79
1.55
0.25
-1.07
-2.31
-3.35
-4.08
-4.44
-4.45
-4.22
-3.87
-3.47
-2.99
-2.31
-1.27
0.21
2.11
4.31
6.63
8.94
11.14
13.19
15.01
16.48
17.43
17.71
17.27
16.16
14.61
12.87
11.15
9.56
8.04
6.53
4.96
3.42
2.11
1.23
0.91
1.07
1.52
2.00
2.38
2.64
2.87
3.23
3.83
4.66
5.61
6.51
7.20
7.55
7.48
6.99
6.11
4.85
3.23
1.26
-0.99
-3.39
-5.70
-7.64
-8.92
-9.33
-8.74
-7.13
-4.62
-1.39
2.28
6.12
9.82
13.12
15.76
17.59
18.55
18.67
18.04
16.77
14.98
12.76
10.19
7.31
4.13
0.74
-2.76
-6.18
-9.32
-11.97
-13.99
-15.38
-16.24
-16.72
-16.98
-17.12
-17.20
-17.21
-17.19
-17.18
-17.25
-17.46
-17.82
-18.23
-18.59
-18.77
-18.76
-18.61
-18.49
-18.48
-18.57
-18.59
-18.28
-17.38
-15.76
-13.48
-10.73
-7.73
-4.69
-1.68
1.23
3.95
6.34
8.21
9.39
9.83
9.63
9.03
8.32
7.68
7.19
6.71
6.07
5.14
3.94
2.63
1.45
0.58
0.07
-0.13
-0.17
-0.19
-0.25
-0.35
-0.45
-0.52
-0.59
-0.69
-0.90
-1.22
-1.61
-2.01
-2.38
-2.73
-3.14
-3.75
-4.67
-5.87
-7.18
-8.27
-8.76
-8.37
-6.99
-4.80
-2.11
0.66
3.19
5.28
6.93
8.22
9.24
10.05
10.63
10.95
10.99
10.80
10.43
9.95
9.36
8.65
7.81
6.94
6.17
5.63
5.38
5.32
5.24
4.90
4.12
2.90
1.42
-0.06
-1.34
-2.35
-3.16
-3.96
-4.91
-6.08
-7.39
-8.71
-9.87
-10.81
-11.57
-12.28
-13.00
-13.70
-14.18
-14.20
-13.53
-12.09
-9.95
-7.36
-4.57
-1.78
0.89
3.37
5.63
7.56
9.06
10.03
10.45
10.37
9.88
9.05
7.87
6.26
4.16
1.60
-1.23
-4.05
-6.49
-8.29
-9.35
-9.73
-9.63
-9.25
-8.73
-8.17
-7.57
-6.98
-6.46
-6.10
-5.95
-6.03
-6.31
-6.78
-7.41
-8.21
-9.20
-10.43
-11.92
-13.68
-15.64
-17.59
-19.17
-20.02
-19.83
-18.53
-16.31
-13.55
-10.65
-7.91
-5.45
-3.26
-1.30
0.43
1.81
2.74
3.16
3.13
2.82
2.41
1.99
1.57
1.09
0.46
-0.31
-1.14
-1.87
-2.37
-2.58
-2.51
-2.26
-1.96
-1.72
-1.68
-1.88
-2.30
-2.81
-3.16
-3.13
-2.56
-1.47
-0.09
1.25
2.24
2.58
2.16
0.95
-0.96
-3.33
-5.77
-7.83
-9.00
-8.94
-7.54
-5.02
-1.80
1.60
4.76
7.49
9.78
11.74
13.48
14.98
16.15
16.84
17.00
16.64
15.89
14.90
13.74
12.35
10.65
8.58
6.24
3.87
1.71
-0.10
-1.61
-3.02
-4.54
-6.23
-7.97
-9.51
-10.57
-11.08
-11.16
-11.10
-11.20
-11.63
-12.39
-13.35
-14.38
-15.37
-16.30
-17.15
-17.85
-18.24
-18.06
-17.09
-15.18
-12.36
-8.87
-5.05
-1.27
2.18
5.13
7.58
9.62
11.35
12.84
14.05
14.85
15.13
14.86
14.15
13.21
12.29
11.58
11.13
10.89
10.74
10.54
10.20
9.71
9.12
8.46
7.72
6.87
5.84
4.58
3.12
1.56
0.05
-1.30
-2.40
-3.27
-4.03
-4.82
-5.77
-6.97
-8.38
-9.87
-11.22
-12.13
-12.30
-11.51
-9.71
-7.04
-3.79
-0.33
3.02
6.05
8.72
11.06
13.11
14.82
16.03
16.53
16.22
15.12
13.50
11.70
10.06
8.77
7.87
7.24
6.72
6.23
5.78
5.44
5.32
5.45
5.74
6.04
6.15
5.94
5.39
4.62
3.79
3.02
2.41
1.94
1.54
1.15
0.70
0.14
-0.63
-1.71
-3.14
-4.83
-6.56
-8.02
-8.91
-8.99
-8.18
-6.51
-4.09
-1.12
2.12
5.36
8.29
10.70
12.50
13.73
14.49
14.86
14.83
14.37
13.47
12.24
10.90
9.69
8.78
8.20
7.84
7.52
7.10
6.53
5.86
5.21
4.67
4.29
4.02
3.72
3.23
2.37
1.05
-0.68
-2.69
-4.74
-6.62
-8.20
-9.51
-10.69
-11.88
-13.15
-14.41
-15.50
-16.21
-16.41
-16.08
-15.27
-14.07
-12.51
-10.60
-8.30
-5.62
-2.67
0.34
3.17
5.56
7.28
8.21
8.29
7.59
6.29
4.65
2.98
1.57
0.65
0.28
0.39
0.78
1.22
1.52
1.57
1.38
1.08
0.82
0.77
0.97
1.37
1.80
2.04
1.94
1.47
0.66
-0.35
-1.49
-2.70
-3.97
-5.29
-6.58
-7.74
-8.71
-9.50
-10.17
-10.77
-11.23
-11.34
-10.84
-9.56
-7.51
-4.92
-2.12
0.56
2.93
4.92
6.56
7.86
8.82
9.43
9.71
9.73
9.62
9.45
9.27
9.04
8.73
8.33
7.83
7.28
6.68
6.02
5.26
4.38
3.37
2.24
1.02
-0.26
-1.56
-2.80
-3.92
-4.92
-5.84
-6.78
-7.88
-9.22
-10.77
-12.39
-13.87
-15.04
-15.83
-16.32
-16.64
-16.88
-17.03
-16.94
-16.41
-15.26
-13.44
-11.08
-8.44
-5.79
-3.34
-1.16
0.78
2.53
4.12
5.50
6.55
7.18
7.37
7.20
6.84
6.44
6.12
5.87
5.67
5.48
5.29
5.13
5.03
5.00
5.03
5.11
5.26
5.48
5.70
5.84
5.73
5.29
4.52
3.56
2.58
1.70
0.96
0.28
-0.43
-1.20
-2.00
-2.75
-3.39
-3.85
-4.07
-3.95
-3.34
-2.15
-0.38
1.79
4.08
6.20
7.96
9.27
10.13
10.59
10.69
10.48
9.99
9.25
8.28
7.10
5.77
4.36
2.97
1.66
0.47
-0.64
-1.71
-2.73
-3.66
-4.40
-4.87
-5.12
-5.25
-5.43
-5.80
-6.41
-7.23
-8.14
-8.99
-9.68
-10.17
-10.49
-10.74
-11.02
-11.44
-12.04
-12.77
-13.46
-13.94
-14.01
-13.54
-12.44
-10.73
-8.49
-5.88
-3.16
-0.58
1.60
3.25
4.35
4.98
5.24
5.18
4.75
3.91
2.67
1.16
-0.39
-1.75
-2.80
-3.63
-4.41
-5.33
-6.40
-7.54
-8.50
-9.13
-9.36
-9.28
-9.07
-8.90
-8.90
-9.11
-9.52
-10.07
-10.70
-11.33
-11.89
-12.38
-12.86
-13.47
-14.34
-15.49
-16.76
-17.80
-18.23
-17.72
-16.20
-13.83
-10.96
-7.95
-5.03
-2.30
0.26
2.62
4.67
6.19
7.05
7.22
6.88
6.30
5.75
5.37
5.13
4.92
4.62
4.19
3.70
3.26
2.93
2.74
2.61
2.47
2.23
1.89
1.48
1.01
0.47
-0.25
-1.29
-2.75
-4.59
-6.63
-8.57
-10.12
-11.10
-11.48
-11.35
-10.81
-9.94
-8.78
-7.30
-5.51
-3.47
-1.30
0.86
2.85
4.60
6.14
7.58
9.01
10.50
11.98
13.26
14.09
14.25
13.62
12.31
10.56
8.77
7.29
6.38
6.10
6.27
6.59
6.74
6.54
5.96
5.18
4.44
3.92
3.69
3.71
3.85
4.01
4.09
4.03
3.81
3.41
2.79
1.96
0.89
-0.38
-1.86
-3.51
-5.30
-7.13
-8.82
-10.13
-10.74
-10.45
-9.19
-7.09
-4.49
-1.76
0.83
3.18
5.35
7.47
9.58
11.59
13.33
14.58
15.22
15.20
14.60
13.53
12.14
10.56
8.91
7.32
5.86
4.56
3.43
2.46
1.61
0.84
0.10
-0.69
-1.53
-2.36
-3.07
-3.55
-3.75
-3.70
-3.52
-3.38
-3.36
-3.46
-3.59
-3.67
-3.65
-3.58
-3.57
-3.67
-3.77
-3.62
-2.88
-1.30
1.18
4.37
7.89
11.36
14.50
17.16
19.29
20.83
21.66
21.58
20.43
18.19
15.05
11.39
7.72
4.51
2.10
0.58
-0.17
-0.40
-0.37
-0.24
-0.04
0.28
0.78
1.44
2.13
2.67
2.92
2.85
2.53
2.10
1.63
1.07
0.33
-0.73
-2.11
-3.65
-5.08
-6.21
-7.00
-7.61
-8.27
-9.13
-10.01
-10.51
-10.12
-8.48
-5.57
-1.76
2.42
6.40
9.82
12.50
14.39
15.47
15.70
14.99
13.34
10.85
7.75
4.42
1.31
-1.22
-2.94
-3.84
-4.09
-3.96
-3.67
-3.30
-2.82
-2.11
-1.18
-0.13
0.82
1.45
1.62
1.34
0.72
-0.05
-0.83
-1.57
-2.26
-2.96
-3.75
-4.71
-5.88
-7.27
-8.87
-10.58
-12.23
-13.53
-14.15
-13.78
-12.23
-9.55
-6.03
-2.13
1.70
5.14
8.08
10.60
12.82
14.80
16.44
17.55
17.97
17.64
16.68
15.27
13.64
11.93
10.26
8.69
7.30
6.16
5.33
4.80
4.48
4.25
4.02
3.79
3.58
3.45
3.42
3.44
3.40
3.19
2.71
1.85
0.49
-1.43
-3.92
-6.90
-10.14
-13.33
-16.18
-18.45
-20.02
-20.87
-20.98
-20.34
-18.90
-16.68
-13.80
-10.50
-7.07
-3.80
-0.88
1.57
3.48
4.82
5.57
5.73
5.38
4.64
3.70
2.73
1.86
1.13
0.54
0.04
-0.38
-0.71
-0.91
-0.94
-0.75
-0.38
0.12
0.64
1.07
1.32
1.38
1.26
1.03
0.72
0.31
-0.26
-1.09
-2.24
-3.70
-5.42
-7.27
-9.14
-10.91
-12.48
-13.70
-14.37
-14.28
-13.29
-11.38
-8.69
-5.49
-2.12
1.18
4.24
7.03
9.54
11.74
13.53
14.70
15.08
14.58
13.28
11.41
9.24
7.07
5.09
3.39
1.96
0.79
-0.20
-1.03
-1.73
-2.28
-2.66
-2.85
-2.90
-2.90
-2.98
-3.22
-3.63
-4.13
-4.60
-4.93
-5.10
-5.18
-5.28
-5.53
-5.99
-6.65
-7.43
-8.26
-9.09
-9.87
-10.53
-10.92
-10.85
-10.16
-8.75
-6.70
-4.21
-1.54
1.03
3.35
5.31
6.88
8.02
8.71
8.93
8.70
8.10
7.24
6.26
5.26
4.29
3.36
2.46
1.58
0.75
0.02
-0.52
-0.79
-0.77
-0.51
-0.13
0.17
0.23
-0.03
-0.58
-1.28
-1.96
-2.48
-2.78
-2.92
-3.01
-3.19
-3.57
-4.20
-5.10
-6.26
-7.61
-9.05
-10.37
-11.34
-11.71
-11.29
-9.97
-7.82
-5.04
-1.92
1.22
4.12
6.59
8.56
10.05
11.06
11.60
11.64
11.18
10.27
9.05
7.71
6.43
5.34
4.50
3.90
3.55
3.46
3.66
4.11
4.77
5.50
6.14
6.57
6.75
6.74
6.62
6.48
6.28
5.88
5.00
3.39
0.89
-2.43
-6.24
-10.06
-13.36
-15.79
-17.27
-17.93
-18.00
-17.65
-16.88
-15.52
-13.38
-10.37
-6.69
-2.73
0.98
3.99
5.98
6.86
6.73
5.79
4.29
2.51
0.72
-0.83
-1.92
-2.36
-2.10
-1.16
0.36
2.33
4.60
7.00
9.29
11.16
12.34
12.60
11.93
10.49
8.53
6.25
3.72
0.89
-2.26
-5.55
-8.56
-10.73
-11.63
-11.14
-9.59
-7.51
-5.45
-3.69
-2.26
-1.06
-0.08
0.53
0.54
-0.17
-1.48
-2.99
-4.26
-5.03
-5.34
-5.37
-5.26
-4.89
-3.95
-2.15
0.53
3.72
6.85
9.41
11.19
12.27
12.79
12.82
12.21
10.73
8.27
5.08
1.69
-1.28
-3.33
-4.36
-4.55
-4.30
-4.02
-3.94
-4.11
-4.41
-4.69
-4.80
-4.74
-4.58
-4.45
-4.48
-4.68
-5.01
-5.38
-5.77
-6.21
-6.80
-7.61
-8.59
-9.54
-10.16
-10.14
-9.28
-7.56
-5.12
-2.28
0.67
3.50
6.07
8.35
10.32
11.98
13.25
14.00
14.14
13.65
12.62
11.26
9.89
8.76
8.05
7.80
7.86
7.99
7.93
7.55
6.90
6.16
5.56
5.27
5.29
5.46
5.55
5.39
4.94
4.28
3.52
2.67
1.69
0.47
-1.05
-2.95
-5.35
-8.47
-12.59
-17.85
-24.03
-30.46
-36.14
-40.02
-41.41
-40.14
-36.54
-31.24
-24.81
-17.69
-10.14
-2.42
5.11
11.93
17.52
21.50
23.78
24.57
24.30
23.40
22.19
20.76
19.05
16.97
14.50
11.79
9.11
6.75
4.96
3.79
3.15
2.88
2.85
2.98
3.29
3.81
4.51
5.31
6.05
6.61
6.92
7.00
6.90
6.69
6.38
5.94
5.35
4.60
3.71
2.71
1.66
0.61
-0.32
-0.98
-1.18
-0.76
0.34
2.01
3.99
5.95
7.61
8.83
9.64
10.14
10.43
10.51
10.32
9.74
8.72
7.28
5.51
3.54
1.55
-0.27
-1.68
-2.45
-2.41
-1.60
-0.26
1.23
2.46
3.20
3.48
3.52
3.60
3.89
4.32
4.71
4.85
4.70
4.38
4.11
4.01
4.05
3.97
3.46
2.34
0.67
-1.22
-2.88
-3.85
-3.79
-2.57
-0.26
2.88
6.47
10.00
12.99
15.01
15.85
15.60
14.63
13.51
12.82
12.89
13.62
14.43
14.46
12.97
9.65
4.88
-0.41
-5.17
-8.61
-10.58
-11.44
-11.84
-12.41
-13.46
-15.04
-16.94
-18.94
-20.82
-22.44
-23.68
-24.51
-24.99
-25.29
-25.59
-26.06
-26.82
-28.01
-29.73
-32.06
-34.92
-38.03
-40.94
-43.15
-44.29
-44.21
-42.99
-40.80
-37.77
-33.92
-29.24
-23.72
-17.48
-10.81
-4.09
2.30
8.02
12.82
16.56
19.24
20.97
21.99
22.66
23.31
24.28
25.76
27.73
30.02
32.29
34.14
35.23
35.42
34.77
33.55
32.05
30.52
29.03
27.45
25.54
23.03
19.77
15.77
11.23
6.42
1.62
-2.99
-7.43
-11.88
-16.49
-21.25
-25.88
-29.92
-32.85
-34.39
-34.55
-33.65
-32.18
-30.51
-28.79
-26.89
-24.48
-21.25
-17.02
-11.85
-6.01
0.09
5.94
11.00
14.85
17.24
18.12
17.70
16.32
14.40
12.32
10.42
8.94
7.99
7.53
7.36
7.13
6.46
5.13
3.19
0.94
-1.16
-2.79
-3.87
-4.61
-5.38
-6.50
-8.15
-10.34
-12.97
-15.95
-19.19
-22.64
-26.15
-29.42
-32.05
-33.59
-33.70
-32.25
-29.47
-25.79
-21.74
-17.73
-13.91
-10.20
-6.41
-2.41
1.75
5.78
9.28
11.90
13.46
13.99
13.76
13.11
12.39
11.88
11.74
11.98
12.48
13.01
13.34
13.27
12.74
11.86
10.88
10.12
9.79
9.88
10.08
9.95
9.06
7.28
4.88
2.49
0.86
0.54
1.64
3.77
6.20
8.11
8.87
8.22
6.32
3.67
1.01
-0.82
-1.04
0.84
4.93
10.82
17.74
24.77
31.07
36.06
39.41
41.00
40.82
38.94
35.63
31.31
26.57
21.94
17.76
14.10
10.82
7.84
5.21
3.25
2.40
2.99
5.13
8.56
12.62
16.19
17.94
16.58
11.38
2.53
-8.77
-20.69
-31.43
-39.85
-45.77
-49.75
-52.59
-54.79
-56.30
-56.76
-55.94
-53.99
-51.47
-49.03
-46.96
-45.10
-42.89
-39.74
-35.34
-29.87
-23.82
-17.84
-12.44
-7.88
-4.10
-0.90
1.96
4.57
6.86
8.70
9.96
10.62
10.86
10.93
11.08
11.42
11.94
12.53
13.14
13.66
13.89
13.41
11.63
8.14
3.00
-3.02
-8.66
-12.64
-14.27
-13.73
-11.96
-10.06
-8.68
-7.83
-6.95
-5.44
-3.05
-0.02
3.19
6.29
9.29
12.57
16.55
21.60
28.31
37.58
50.51
67.78
88.88
111.56
132.11
146.15
150.27
143.32
126.79
103.93
78.36
53.09
30.22
11.22
-3.11
-12.47
-17.00
-17.25
-14.21
-9.08
-2.72
4.59
12.82
21.14
27.72
30.19
26.54
15.62
-2.73
-27.81
-57.70
-87.39
-110.51
-123.05
-125.30
-120.30
-111.24
-100.08
-87.55
-73.42
-57.82
-41.92
-27.72
-17.16
-11.40
-10.76
-14.36
-19.64
-22.88
-19.28
-5.18
20.46
55.56
95.25
133.02
162.59
179.54
182.17
170.07
143.59
103.34
51.37
-8.16
-68.99
-123.62
-164.93
-181.89
-169.09
-128.16
-68.18
-2.52
54.29
89.81
97.14
77.37
39.54
-3.28
-37.91
-56.10
-54.93
-38.01
-14.70
3.64
8.14
-4.82
-34.42
-76.33
-125.00
-171.81
-206.66
-220.71
-208.23
-167.93
-104.25
-28.41
49.32
106.13
