1.593534070000000000e+09
-2.999999999999999889e-02
5.059999999999999609e+00
1.791000000000000014e+01
7.934999999999999432e+01
2.276800000000000068e+02
-4.887900000000000205e+02
-1.662999999999999901e+01
1.310999999999999943e+02
1.033599999999999994e+02
1.919999999999999929e+01
-4.589999999999999858e+00
-7.709999999999999964e+00
-1.700000000000000122e-01
1.419999999999999929e+00
6.790000000000000036e+00
-8.470000000000000639e+00
-3.819999999999999840e+00
-6.629999999999999893e+00
-4.410000000000000142e+00
2.057000000000000028e+01
4.600000000000000200e-01
-1.105000000000000071e+01
-1.046000000000000085e+01
1.066999999999999993e+01
1.030000000000000027e+00
-1.489999999999999991e+00
-5.490000000000000213e+00
-5.469999999999999751e+00
1.500000000000000000e+00
1.101999999999999957e+01
1.669999999999999929e+01
-7.099999999999999645e-01
2.110999999999999943e+01
-3.581000000000000227e+01
6.970999999999999375e+01
2.000000000000000111e-01
-9.637000000000000455e+01
2.701999999999999957e+01
-1.317100000000000080e+02
-6.830000000000000071e+00
9.023000000000000398e+01
2.830000000000000071e+00
-4.715999999999999659e+01
-1.150999999999999979e+01
2.407000000000000028e+01
-1.260000000000000009e+00
5.625000000000000000e+01
3.669999999999999929e+00
-3.467000000000000171e+01
2.710999999999999943e+01
-1.720500000000000114e+02
-2.276000000000000156e+01
9.359000000000000341e+01
3.370000000000000284e+01
2.382999999999999829e+01
3.878000000000000114e+01
6.679999999999999716e+00
4.830000000000000071e+00
1.225999999999999979e+01
4.095000000000000284e+01
1.010999999999999943e+02
-2.702300000000000182e+02
-5.463000000000000256e+01
3.486999999999999744e+01
4.535000000000000142e+01
-1.033000000000000007e+01
4.799999999999999822e-01
-1.769000000000000128e+01
-2.919999999999999929e+00
2.126999999999999957e+01
3.830000000000000071e+00
-1.700000000000000000e+01
6.480000000000000426e+00
-1.000000000000000000e+00
-7.190000000000000391e+00
5.750000000000000000e+00
-3.009999999999999787e+00
3.540000000000000036e+00
5.059999999999999609e+00
-9.560000000000000497e+00
1.216000000000000014e+01
1.300000000000000044e-01
-7.839999999999999858e+00
-6.099999999999999645e+00
1.509999999999999964e+01
-1.923000000000000043e+01
1.919999999999999929e+00
5.610000000000000320e+00
8.470000000000000639e+00
7.750000000000000000e+00
-2.910000000000000142e+00
5.200000000000000178e+00
1.860000000000000098e+00
-1.742999999999999972e+01
-3.740000000000000213e+00
1.280000000000000027e+00
-3.060000000000000053e+00
-2.250000000000000000e+00
0.000000000000000000e+00
-3.189999999999999947e+00
1.466000000000000014e+01
9.869999999999999218e+00
-5.370000000000000107e+00
9.199999999999999289e+00
3.879999999999999893e+00
9.060000000000000497e+00
-1.476999999999999957e+01
-5.580000000000000071e+00
-1.870000000000000107e+00
-3.504999999999999716e+01
-3.886999999999999744e+01
2.505999999999999872e+01
3.717999999999999972e+01
-2.026999999999999957e+01
-4.799999999999999822e-01
2.359999999999999876e+00
-2.689999999999999947e+00
-1.090000000000000080e+00
2.423999999999999844e+01
-8.669999999999999929e+00
-9.560000000000000497e+00
-1.052999999999999936e+01
1.556000000000000050e+01
1.143100000000000023e+02
-4.725999999999999801e+01
-1.076999999999999957e+01
-3.800000000000000044e-01
1.323000000000000043e+01
-4.980000000000000426e+00
-8.699999999999999289e+00
9.070000000000000284e+00
-5.459999999999999964e+00
1.566999999999999993e+01
-6.570000000000000284e+00
-1.066000000000000014e+01
1.971999999999999886e+01
7.570000000000000284e+00
-1.601999999999999957e+01
1.342999999999999972e+01
7.070000000000000284e+00
-1.569999999999999929e+01
1.103999999999999915e+01
2.229999999999999982e+00
-1.807999999999999829e+01
2.071999999999999886e+01
-3.400000000000000244e-01
-2.716000000000000014e+01
1.435999999999999943e+01
6.099999999999999645e+00
-8.089999999999999858e+00
8.390000000000000568e+00
-8.550000000000000711e+00
-1.428999999999999915e+01
1.428999999999999915e+01
8.399999999999999689e-01
-1.782000000000000028e+01
1.268999999999999950e+01
1.520000000000000018e+00
-1.610000000000000142e+01
1.248000000000000043e+01
8.880000000000000782e+00
-2.525000000000000000e+01
1.193999999999999950e+01
9.570000000000000284e+00
-2.414999999999999858e+01
1.291000000000000014e+01
1.094999999999999929e+01
-2.253000000000000114e+01
1.281000000000000050e+01
5.139999999999999680e+00
-2.041000000000000014e+01
2.010999999999999943e+01
1.323000000000000043e+01
-1.919000000000000128e+01
1.058000000000000007e+01
1.650000000000000000e+01
-6.349999999999999645e+00
6.009999999999999787e+00
1.258000000000000007e+01
2.470000000000000195e+00
4.129999999999999893e+00
-1.439999999999999947e+00
-1.607000000000000028e+01
1.725000000000000000e+01
-3.370000000000000107e+00
-2.235000000000000142e+01
8.390000000000000568e+00
-3.459999999999999964e+00
-1.258000000000000007e+01
1.330000000000000071e+01
-3.900000000000000133e-01
-1.301999999999999957e+01
7.780000000000000249e+00
3.580000000000000071e+00
-1.987000000000000099e+01
1.313000000000000078e+01
2.569999999999999840e+00
-1.657999999999999829e+01
8.380000000000000782e+00
-7.399999999999999911e-01
-1.458000000000000007e+01
1.457000000000000028e+01
1.969999999999999973e+00
-1.866000000000000014e+01
8.869999999999999218e+00
5.400000000000000355e-01
-1.526999999999999957e+01
9.400000000000000355e+00
5.780000000000000249e+00
-1.088000000000000078e+01
9.339999999999999858e+00
3.850000000000000089e+00
-1.178999999999999915e+01
8.800000000000000711e+00
2.979999999999999982e+00
-1.434999999999999964e+01
6.339999999999999858e+00
5.040000000000000036e+00
-1.619999999999999929e+01
3.740000000000000213e+00
1.114000000000000057e+01
-1.778000000000000114e+01
1.593999999999999950e+01
7.429999999999999716e+00
-1.944999999999999929e+01
3.023000000000000043e+01
1.558000000000000007e+01
-1.535999999999999943e+01
9.769999999999999574e+00
1.083000000000000007e+01
-1.346000000000000085e+01
1.307000000000000028e+01
2.109999999999999876e+00
-2.592000000000000171e+01
1.110999999999999943e+01
1.935000000000000142e+01
-1.698999999999999844e+01
1.122000000000000064e+01
1.272000000000000064e+01
-2.509999999999999787e+00
-1.310000000000000053e+00
1.851000000000000156e+01
-4.509999999999999787e+00
5.219999999999999751e+00
1.301999999999999957e+01
-1.896999999999999886e+01
7.650000000000000355e+00
-1.242999999999999972e+01
-2.342000000000000171e+01
1.109999999999999964e+01
1.058999999999999986e+01
-2.071999999999999886e+01
1.375000000000000000e+01
3.359999999999999876e+00
-2.046999999999999886e+01
1.364000000000000057e+01
1.525000000000000000e+01
-1.092999999999999972e+01
1.705000000000000071e+01
1.649999999999999911e+00
-1.714999999999999858e+01
5.469999999999999751e+00
9.000000000000000222e-01
-7.919999999999999929e+00
1.316000000000000014e+01
8.029999999999999361e+00
-6.500000000000000000e+00
-6.799999999999999822e+00
5.320000000000000284e+00
-5.509999999999999787e+00
-1.092999999999999972e+01
2.359999999999999876e+00
-6.410000000000000142e+00
-7.290000000000000036e+00
1.466999999999999993e+01
-2.319999999999999840e+00
-1.196000000000000085e+01
1.426999999999999957e+01
2.080000000000000071e+00
-1.985999999999999943e+01
9.789999999999999147e+00
-9.640000000000000568e+00
-2.410999999999999943e+01
1.502999999999999936e+01
3.689999999999999947e+00
-2.598999999999999844e+01
1.644999999999999929e+01
5.370000000000000107e+00
-2.358999999999999986e+01
1.883999999999999986e+01
1.860000000000000098e+00
-2.696999999999999886e+01
1.950000000000000000e+01
4.879999999999999893e+00
-2.332000000000000028e+01
1.919000000000000128e+01
8.160000000000000142e+00
-2.510000000000000142e+01
2.251999999999999957e+01
9.710000000000000853e+00
-1.671000000000000085e+01
1.476999999999999957e+01
1.175999999999999979e+01
-8.810000000000000497e+00
9.499999999999999556e-01
1.251999999999999957e+01
-8.820000000000000284e+00
-2.921000000000000085e+01
2.305999999999999872e+01
-1.100000000000000006e-01
-2.189000000000000057e+01
1.417999999999999972e+01
9.990000000000000213e+00
-1.247000000000000064e+01
8.330000000000000071e+00
2.390000000000000124e+00
-1.042999999999999972e+01
3.229999999999999982e+00
8.849999999999999645e+00
-6.190000000000000391e+00
-6.889999999999999680e+00
8.980000000000000426e+00
-6.509999999999999787e+00
-1.751999999999999957e+01
1.057000000000000028e+01
-5.999999999999999778e-01
-1.783999999999999986e+01
1.360999999999999943e+01
4.330000000000000071e+00
-1.771999999999999886e+01
1.430000000000000071e+01
1.025999999999999979e+01
-1.186999999999999922e+01
6.009999999999999787e+00
6.349999999999999645e+00
-7.679999999999999716e+00
4.000000000000000083e-02
6.990000000000000213e+00
-2.419999999999999929e+00
-9.650000000000000355e+00
1.232000000000000028e+01
-6.790000000000000036e+00
-2.714999999999999858e+01
9.160000000000000142e+00
5.469999999999999751e+00
-1.994999999999999929e+01
1.532000000000000028e+01
1.750000000000000000e+00
-2.733999999999999986e+01
1.932000000000000028e+01
5.889999999999999680e+00
-1.866000000000000014e+01
8.460000000000000853e+00
1.222000000000000064e+01
-1.202999999999999936e+01
1.300999999999999979e+01
1.358999999999999986e+01
-1.746999999999999886e+01
1.173000000000000043e+01
1.441999999999999993e+01
-1.687000000000000099e+01
8.820000000000000284e+00
9.869999999999999218e+00
-2.273000000000000043e+01
1.342999999999999972e+01
1.578999999999999915e+01
-3.299999999999999822e+00
4.280000000000000249e+00
2.071000000000000085e+01
-1.310000000000000053e+00
-1.501999999999999957e+01
6.530000000000000249e+00
-6.580000000000000071e+00
-1.513000000000000078e+01
1.601999999999999957e+01
-3.200000000000000178e+00
-2.528000000000000114e+01
9.980000000000000426e+00
-2.040000000000000036e+00
-1.359999999999999964e+01
8.759999999999999787e+00
-1.760000000000000009e+00
-1.985000000000000142e+01
1.014000000000000057e+01
-2.790000000000000036e+00
-1.527999999999999936e+01
8.789999999999999147e+00
-6.099999999999999645e+00
-2.379999999999999893e+00
7.690000000000000391e+00
-8.320000000000000284e+00
-2.709999999999999964e+00
9.769999999999999574e+00
-7.780000000000000249e+00
-5.660000000000000142e+00
6.969999999999999751e+00
9.300000000000000488e-01
-7.240000000000000213e+00
1.491999999999999993e+01
-7.610000000000000320e+00
-6.099999999999999645e+00
1.600000000000000000e+01
6.040000000000000036e+00
-1.200000000000000000e+01
-1.100000000000000006e-01
-1.629999999999999893e+00
-1.694000000000000128e+01
1.072000000000000064e+01
1.236999999999999922e+01
-1.400000000000000000e+01
1.005000000000000071e+01
1.879999999999999893e+00
-9.039999999999999147e+00
5.559999999999999609e+00
2.479999999999999982e+00
-8.279999999999999361e+00
1.475000000000000000e+01
4.799999999999999822e+00
-1.771999999999999886e+01
5.589999999999999858e+00
1.270000000000000018e+00
-1.451999999999999957e+01
1.201999999999999957e+01
3.970000000000000195e+00
-3.057000000000000028e+01
1.160999999999999943e+01
7.419999999999999929e+00
-2.737000000000000099e+01
2.462000000000000099e+01
1.266999999999999993e+01
-2.092999999999999972e+01
1.481000000000000050e+01
2.319999999999999840e+00
-1.528999999999999915e+01
1.284999999999999964e+01
-3.109999999999999876e+00
-1.830999999999999872e+01
1.488000000000000078e+01
1.520000000000000018e+00
-2.001000000000000156e+01
1.085999999999999943e+01
-2.370000000000000107e+00
-1.935999999999999943e+01
1.444999999999999929e+01
2.740000000000000213e+00
-2.626999999999999957e+01
1.467999999999999972e+01
1.143999999999999950e+01
-2.217999999999999972e+01
6.040000000000000036e+00
8.130000000000000782e+00
-1.644000000000000128e+01
1.118999999999999950e+01
-2.589999999999999858e+00
-7.700000000000000178e-01
9.359999999999999432e+01
-1.474600000000000080e+02
4.729999999999999716e+01
-4.060999999999999943e+01
-3.075000000000000000e+01
2.183999999999999986e+01
3.800000000000000000e+01
-1.708999999999999986e+01
1.060000000000000053e+00
2.060999999999999943e+01
6.479999999999999716e+01
7.750000000000000000e+00
1.003999999999999915e+01
-7.295999999999999375e+01
-1.844199999999999875e+02
1.544300000000000068e+02
6.621999999999999886e+01
-1.910999999999999943e+01
-2.051000000000000156e+01
-4.725999999999999801e+01
-2.669999999999999929e+00
-8.109999999999999432e+00
6.764000000000000057e+01
1.030400000000000063e+02
-1.433000000000000114e+02
-1.032999999999999972e+02
-3.012999999999999901e+01
8.099999999999999645e+00
-1.648000000000000043e+01
1.778999999999999915e+01
9.769999999999999574e+00
-1.694000000000000128e+01
2.805999999999999872e+01
1.249000000000000021e+01
-2.741000000000000014e+01
3.008999999999999986e+01
2.082999999999999829e+01
-2.082999999999999829e+01
1.197000000000000064e+01
-2.628000000000000114e+01
2.508999999999999986e+01
6.190000000000000391e+00
-5.068999999999999773e+01
2.014099999999999966e+02
-1.196200000000000045e+02
-9.929000000000000625e+01
1.796000000000000085e+01
-3.200000000000000067e-01
-1.484999999999999964e+01
2.212000000000000099e+01
-1.018999999999999950e+01
8.019999999999999574e+00
1.447000000000000064e+01
-2.051000000000000156e+01
2.473999999999999844e+01
1.466999999999999993e+01
-2.100000000000000000e+01
2.525000000000000000e+01
1.181000000000000050e+01
-1.853000000000000114e+01
1.575999999999999979e+01
1.123000000000000043e+01
-1.716000000000000014e+01
1.050999999999999979e+01
1.169999999999999929e+01
-1.335999999999999943e+01
3.129999999999999893e+00
9.960000000000000853e+00
-1.243999999999999950e+01
-1.147000000000000064e+01
6.500000000000000000e+00
-9.160000000000000142e+00
-1.184999999999999964e+01
7.209999999999999964e+00
-7.389999999999999680e+00
-1.842999999999999972e+01
8.939999999999999503e+00
-5.370000000000000107e+00
-2.525000000000000000e+01
8.939999999999999503e+00
-1.100000000000000006e-01
-1.921000000000000085e+01
1.680000000000000071e+01
2.149999999999999911e+00
-2.405000000000000071e+01
2.253000000000000114e+01
8.130000000000000782e+00
-2.019999999999999929e+01
1.514000000000000057e+01
-5.269999999999999574e+00
-2.632000000000000028e+01
2.278000000000000114e+01
6.589999999999999858e+00
-1.658999999999999986e+01
1.526999999999999957e+01
3.509999999999999787e+00
-1.810999999999999943e+01
1.234999999999999964e+01
-8.000000000000000167e-02
-2.083999999999999986e+01
1.223000000000000043e+01
-2.990000000000000213e+00
-2.432999999999999829e+01
7.599999999999999645e+00
2.000000000000000042e-02
-1.507000000000000028e+01
1.625000000000000000e+01
1.659999999999999920e+00
-2.526000000000000156e+01
1.973000000000000043e+01
7.950000000000000178e+00
-2.153000000000000114e+01
2.151000000000000156e+01
7.639999999999999680e+00
-2.096999999999999886e+01
1.481000000000000050e+01
7.339999999999999858e+00
-1.457000000000000028e+01
2.442000000000000171e+01
1.206000000000000050e+01
-2.094999999999999929e+01
1.789999999999999858e+01
2.640000000000000124e+00
-2.121000000000000085e+01
1.407000000000000028e+01
-1.030000000000000027e+00
-2.208999999999999986e+01
1.687999999999999901e+01
3.529999999999999805e+00
-2.280000000000000071e+01
1.463000000000000078e+01
3.790000000000000036e+00
-2.546000000000000085e+01
7.251000000000000512e+01
-3.324000000000000199e+01
6.571999999999999886e+01
-9.167000000000000171e+01
-3.417999999999999972e+01
1.576999999999999957e+01
4.332000000000000028e+01
1.115000000000000036e+01
-4.743999999999999773e+01
7.589999999999999858e+00
9.189999999999999503e+00
-2.196999999999999886e+01
1.208000000000000007e+01
-1.511999999999999922e+01
-1.188000000000000078e+01
1.547000000000000064e+01
1.907999999999999829e+01
-8.960000000000000853e+00
2.428999999999999915e+01
9.609999999999999432e+00
-1.552999999999999936e+01
1.228999999999999915e+01
1.052999999999999936e+01
-1.491000000000000014e+01
1.398000000000000043e+01
8.220000000000000639e+00
-2.126999999999999957e+01
1.550000000000000000e+01
1.191000000000000014e+01
-1.591999999999999993e+01
1.324000000000000021e+01
2.069000000000000128e+01
-1.169999999999999929e+01
1.157000000000000028e+01
1.907999999999999829e+01
-8.060000000000000497e+00
1.100000000000000089e+00
1.837999999999999901e+01
-6.469999999999999751e+00
6.199999999999999956e-01
1.282000000000000028e+01
-8.580000000000000071e+00
-4.860000000000000320e+00
1.490000000000000036e+01
-8.419999999999999929e+00
-5.929999999999999716e+00
1.000000000000000000e+01
-7.559999999999999609e+00
-3.900000000000000133e-01
6.929999999999999716e+00
-1.193999999999999950e+01
4.299999999999999822e+00
6.379999999999999893e+00
-9.970000000000000639e+00
1.024000000000000021e+01
6.419999999999999929e+00
-1.118999999999999950e+01
1.177999999999999936e+01
7.000000000000000000e+00
-1.142999999999999972e+01
1.056000000000000050e+01
8.160000000000000142e+00
-1.152999999999999936e+01
6.950000000000000178e+00
7.219999999999999751e+00
-9.289999999999999147e+00
-5.179999999999999716e+00
7.679999999999999716e+00
-7.099999999999999645e+00
-1.134999999999999964e+01
6.709999999999999964e+00
-1.399999999999999911e+00
-1.642999999999999972e+01
1.018999999999999950e+01
-9.500000000000000000e+00
-2.639999999999999858e+01
1.751999999999999957e+01
2.479999999999999982e+00
-2.035999999999999943e+01
1.676999999999999957e+01
1.290000000000000036e+00
-2.289000000000000057e+01
1.717000000000000171e+01
4.650000000000000355e+00
-2.071000000000000085e+01
1.766000000000000014e+01
1.600000000000000089e+00
-1.892000000000000171e+01
1.617000000000000171e+01
1.090000000000000080e+00
-1.992999999999999972e+01
1.244999999999999929e+01
1.129999999999999893e+00
-1.814000000000000057e+01
1.175000000000000000e+01
4.600000000000000200e-01
-2.476000000000000156e+01
1.603999999999999915e+01
3.810000000000000053e+00
-2.410000000000000142e+01
1.878999999999999915e+01
5.339999999999999858e+00
-1.218999999999999950e+01
1.441999999999999993e+01
1.080000000000000071e+00
-1.276999999999999957e+01
1.275000000000000000e+01
-4.830000000000000071e+00
-1.350999999999999979e+01
4.900000000000000355e+00
-5.400000000000000355e+00
-2.041000000000000014e+01
6.940000000000000391e+00
-4.631000000000000227e+01
-2.617000000000000171e+01
-7.099999999999999645e-01
-6.099999999999999645e+00
2.080000000000000071e+00
-5.299999999999999822e+00
-4.527000000000000313e+01
-1.456999999999999886e+02
1.051400000000000006e+02
-6.780000000000000249e+00
1.407800000000000011e+02
6.956999999999999318e+01
-1.889399999999999977e+02
3.085000000000000142e+01
-6.065999999999999659e+01
1.712999999999999901e+01
3.910000000000000142e+01
-8.359999999999999432e+00
-4.060999999999999943e+01
5.535000000000000142e+01
-1.757999999999999829e+01
-1.835999999999999943e+01
5.296999999999999886e+01
5.606000000000000227e+01
-2.153999999999999915e+01
-3.582000000000000028e+01
-7.139999999999999680e+00
-1.389000000000000057e+01
-1.739999999999999991e+00
-1.535999999999999943e+01
-3.764999999999999858e+01
-7.493000000000000682e+01
2.269000000000000128e+01
-7.259999999999999787e+00
1.351999999999999957e+01
1.497000000000000064e+01
-3.861999999999999744e+01
5.290000000000000036e+00
-7.929999999999999716e+00
-7.567000000000000171e+01
-5.560000000000000142e+01
7.156000000000000227e+01
3.456000000000000227e+01
1.578999999999999915e+01
-7.080000000000000071e+00
1.879999999999999893e+00
7.540000000000000036e+00
-5.299999999999999822e+00
-4.080000000000000071e+00
9.429999999999999716e+00
-1.064000000000000057e+01
3.350000000000000089e+00
1.167999999999999972e+01
-8.599999999999999645e+00
4.190000000000000391e+00
1.067999999999999972e+01
-7.559999999999999609e+00
8.320000000000000284e+00
3.049999999999999822e+00
-1.428999999999999915e+01
1.451999999999999957e+01
3.040000000000000036e+00
-1.400000000000000000e+01
1.525999999999999979e+01
4.459999999999999964e+00
-1.494999999999999929e+01
7.950000000000000178e+00
-2.439999999999999947e+00
-1.880000000000000071e+01
7.580000000000000071e+00
-4.780000000000000249e+00
-1.710999999999999943e+01
1.147000000000000064e+01
-1.083999999999999986e+01
1.040000000000000036e+00
1.059999999999999964e+01
-2.639000000000000057e+01
3.247999999999999687e+01
3.657999999999999829e+01
-1.361999999999999922e+01
3.396000000000000085e+01
3.089999999999999858e+01
-1.916000000000000014e+01
2.464999999999999858e+01
1.692000000000000171e+01
-8.990000000000000213e+00
1.177999999999999936e+01
3.049999999999999822e+00
-1.218999999999999950e+01
1.256000000000000050e+01
6.190000000000000391e+00
-1.338000000000000078e+01
8.679999999999999716e+00
1.900000000000000022e-01
-1.719999999999999929e+01
1.217999999999999972e+01
4.400000000000000355e+00
-2.178000000000000114e+01
1.428999999999999915e+01
4.379999999999999893e+00
-2.287000000000000099e+01
1.821000000000000085e+01
1.358999999999999986e+01
-2.308999999999999986e+01
2.187999999999999901e+01
4.969999999999999751e+00
-3.200999999999999801e+01
1.939999999999999858e+01
1.069999999999999929e+01
-1.944999999999999929e+01
2.462000000000000099e+01
1.022000000000000064e+01
-1.851000000000000156e+01
1.340000000000000036e+01
5.009999999999999787e+00
-1.901999999999999957e+01
1.416000000000000014e+01
3.720000000000000195e+00
-1.646999999999999886e+01
1.189000000000000057e+01
1.840000000000000080e+00
-1.964999999999999858e+01
1.285999999999999943e+01
1.919999999999999929e+00
-2.317999999999999972e+01
1.428999999999999915e+01
3.549999999999999822e+00
-2.226000000000000156e+01
1.608999999999999986e+01
-4.600000000000000200e-01
-1.653000000000000114e+01
7.600000000000000089e-01
-8.369999999999999218e+00
-2.269000000000000128e+01
1.092999999999999972e+01
2.770000000000000018e+00
-1.041999999999999993e+01
1.619999999999999929e+01
5.389999999999999680e+00
-1.623000000000000043e+01
1.258000000000000007e+01
2.330000000000000071e+00
-1.183000000000000007e+01
1.478999999999999915e+01
5.599999999999999645e+00
-1.340000000000000036e+01
7.169999999999999929e+00
-4.290000000000000036e+00
-1.810000000000000142e+01
1.083000000000000007e+01
-8.999999999999999667e-02
-1.778999999999999915e+01
1.232000000000000028e+01
2.720000000000000195e+00
-1.644999999999999929e+01
1.261999999999999922e+01
1.979999999999999982e+00
-1.582000000000000028e+01
7.879999999999999893e+00
-2.580000000000000071e+00
-2.129999999999999893e+00
7.280000000000000249e+00
-4.519999999999999574e+00
3.490000000000000213e+00
2.310000000000000053e+00
-9.359999999999999432e+00
9.369999999999999218e+00
1.350000000000000089e+00
-1.494999999999999929e+01
1.002999999999999936e+01
-5.899999999999999689e-01
-1.862999999999999901e+01
7.400000000000000355e+00
-7.959999999999999964e+00
-3.870000000000000107e+00
1.267999999999999972e+01
-6.910000000000000142e+00
1.028999999999999915e+01
1.107000000000000028e+01
-1.143999999999999950e+01
1.167999999999999972e+01
4.957000000000000028e+01
-9.601000000000000512e+01
-8.721999999999999886e+01
-1.130799999999999983e+02
1.895399999999999920e+02
4.395000000000000284e+01
-3.832000000000000028e+01
-4.821000000000000085e+01
9.826000000000000512e+01
2.976000000000000156e+01
-4.220000000000000284e+01
-5.172999999999999687e+01
-5.446000000000000085e+01
3.196999999999999886e+01
4.964999999999999858e+01
3.885000000000000142e+01
6.690999999999999659e+01
1.261800000000000068e+02
-1.581899999999999977e+02
-2.105900000000000034e+02
-3.132999999999999829e+01
5.785999999999999943e+01
5.425000000000000000e+01
-5.230000000000000426e+00
1.466000000000000014e+01
-4.480000000000000426e+00
1.998000000000000043e+01
3.126999999999999957e+01
-1.044899999999999949e+02
4.865999999999999659e+01
9.312999999999999545e+01
-7.849999999999999645e+00
-5.700000000000000000e+01
-6.419999999999999929e+00
-3.390000000000000124e+00
1.751000000000000156e+01
2.439999999999999858e+01
7.018000000000000682e+01
1.644000000000000128e+01
1.048100000000000023e+02
-3.100000000000000000e+01
-1.886999999999999886e+02
1.976399999999999864e+02
-8.689999999999999503e+00
-1.666599999999999966e+02
-2.173300000000000125e+02
3.255099999999999909e+02
1.723000000000000114e+02
1.610399999999999920e+02
1.228999999999999915e+01
-8.818000000000000682e+01
-4.318999999999999773e+01
1.346000000000000085e+01
1.330000000000000071e+01
-2.355000000000000071e+01
2.257000000000000028e+01
-2.057000000000000028e+01
1.837000000000000099e+01
7.076000000000000512e+01
2.178999999999999915e+01
-1.063199999999999932e+02
8.740999999999999659e+01
-6.768999999999999773e+01
6.464000000000000057e+01
4.267000000000000171e+01
-4.400000000000000000e+01
-3.496999999999999886e+01
3.882999999999999829e+01
2.826999999999999957e+01
5.607999999999999829e+01
-7.268000000000000682e+01
-5.097999999999999687e+01
-5.364000000000000057e+01
6.920999999999999375e+01
3.903999999999999915e+01
-1.400000000000000133e-01
-4.940000000000000391e+00
-7.410000000000000142e+00
-8.800000000000000711e+00
1.065000000000000036e+01
9.589999999999999858e+00
-2.709999999999999964e+00
-1.008000000000000007e+01
1.644999999999999929e+01
-1.524000000000000021e+01
4.250000000000000000e+00
1.730999999999999872e+01
-1.987999999999999901e+01
-7.429999999999999716e+00
5.799999999999999822e+00
9.429999999999999716e+00
-2.269000000000000128e+01
1.515000000000000036e+01
9.089999999999999858e+00
-2.253000000000000114e+01
1.814999999999999858e+01
7.389999999999999680e+00
-2.246000000000000085e+01
1.819999999999999929e+01
-8.869999999999999218e+00
-1.760999999999999943e+01
1.157000000000000028e+01
6.610000000000000320e+00
-2.276000000000000156e+01
6.209999999999999964e+00
3.439999999999999947e+00
-1.880000000000000071e+01
7.599999999999999645e+00
1.110000000000000098e+00
-7.209999999999999964e+00
1.558999999999999986e+01
8.070000000000000284e+00
-1.991000000000000014e+01
7.160000000000000142e+00
-2.299999999999999822e+00
-3.259999999999999787e+00
7.929999999999999716e+00
-1.070000000000000062e+00
-7.980000000000000426e+00
3.479999999999999982e+00
4.019999999999999574e+00
-5.500000000000000000e+00
1.790000000000000036e+00
7.860000000000000320e+00
-1.782000000000000028e+01
-4.500000000000000000e+00
1.912999999999999901e+01
1.159999999999999920e+00
-1.558999999999999986e+01
4.099999999999999645e+00
7.259999999999999787e+00
-1.276999999999999957e+01
5.709999999999999964e+00
-2.020000000000000018e+00
-9.349999999999999645e+00
1.490000000000000036e+01
4.320000000000000284e+00
-2.726000000000000156e+01
6.469999999999999751e+00
5.870000000000000107e+00
-3.910000000000000142e+00
1.564000000000000057e+01
-4.589999999999999858e+00
-9.580000000000000071e+00
3.810000000000000053e+00
2.169999999999999929e+00
-6.889999999999999680e+00
9.349999999999999645e+00
9.599999999999999645e+00
-6.320000000000000284e+00
3.830000000000000071e+00
8.199999999999999289e+00
-1.250000000000000000e+01
8.660000000000000142e+00
6.629999999999999893e+00
3.499999999999999778e-01
1.316000000000000014e+01
5.259999999999999787e+00
-7.450000000000000178e+00
5.799999999999999600e-01
2.800000000000000266e-01
-9.980000000000000426e+00
5.570000000000000284e+00
2.640000000000000124e+00
-2.099999999999999922e-01
9.000000000000000000e+00
2.149999999999999911e+00
-1.375999999999999979e+01
-7.299999999999999822e+00
-6.800000000000000488e-01
-1.441999999999999993e+01
7.910000000000000142e+00
1.270000000000000018e+00
-5.410000000000000142e+00
1.036999999999999922e+01
7.099999999999999645e+00
-1.311999999999999922e+01
1.552999999999999936e+01
-9.160000000000000142e+00
-6.490000000000000213e+00
1.778999999999999915e+01
-4.549999999999999822e+00
7.700000000000000178e+00
-1.006000000000000050e+01
-2.790000000000000036e+00
6.599999999999999645e+00
1.149999999999999911e+00
-1.018999999999999950e+01
1.269999999999999929e+01
1.342999999999999972e+01
-6.940000000000000391e+00
6.230000000000000426e+00
-8.460000000000000853e+00
-1.355000000000000071e+01
4.500000000000000111e-01
-6.400000000000000355e+00
-1.374000000000000021e+01
1.075999999999999979e+01
-5.110000000000000320e+00
-5.429999999999999716e+00
1.331000000000000050e+01
-7.250000000000000000e+00
-1.967000000000000171e+01
1.100000000000000000e+01
5.730000000000000426e+00
-7.519999999999999574e+00
1.555000000000000071e+01
3.180000000000000160e+00
-9.039999999999999147e+00
2.614999999999999858e+01
7.820000000000000284e+00
-1.131000000000000050e+01
8.419999999999999929e+00
-1.810000000000000053e+00
-2.348000000000000043e+01
-8.199999999999999512e-01
7.269999999999999574e+00
-7.459999999999999964e+00
-3.900000000000000133e-01
5.179999999999999716e+00
2.640000000000000124e+00
3.529999999999999805e+00
5.849999999999999645e+00
-3.770000000000000018e+00
-2.330000000000000071e+00
9.189999999999999503e+00
2.000000000000000042e-02
-2.944000000000000128e+01
4.370000000000000107e+00
-1.519999999999999929e+01
-9.109999999999999432e+00
5.219999999999999751e+00
-2.479999999999999982e+00
-4.599999999999999645e+00
1.648000000000000043e+01
6.110000000000000320e+00
-2.046000000000000085e+01
7.660000000000000142e+00
-2.089999999999999858e+00
3.799999999999999822e+00
1.157000000000000028e+01
-1.200000000000000000e+01
6.419999999999999929e+00
3.319999999999999840e+00
-9.880000000000000782e+00
1.928999999999999915e+01
1.252999999999999936e+01
-4.440000000000000391e+00
1.648000000000000043e+01
1.070000000000000062e+00
4.849999999999999645e+00
1.311999999999999922e+01
-1.197000000000000064e+01
-1.876999999999999957e+01
3.950000000000000178e+00
5.799999999999999600e-01
-2.729999999999999982e+00
8.220000000000000639e+00
5.320000000000000284e+00
-1.081000000000000050e+01
7.559999999999999609e+00
-9.730000000000000426e+00
-1.042999999999999972e+01
4.299999999999999933e-01
-2.509999999999999787e+00
2.160000000000000142e+00
1.348000000000000043e+01
-1.610000000000000098e+00
-1.630000000000000071e+01
1.283999999999999986e+01
8.460000000000000853e+00
-9.869999999999999218e+00
1.653000000000000114e+01
6.040000000000000036e+00
-4.830000000000000071e+00
1.485999999999999943e+01
4.290000000000000036e+00
-1.550000000000000000e+01
8.289999999999999147e+00
7.700000000000000178e-01
-9.500000000000000000e+00
9.429999999999999716e+00
2.240000000000000213e+00
-1.632000000000000028e+01
5.500000000000000000e+00
5.110000000000000320e+00
-2.750000000000000000e+00
1.048000000000000043e+01
-5.120000000000000107e+00
-1.346000000000000085e+01
4.750000000000000000e+00
-9.070000000000000284e+00
-1.823000000000000043e+01
5.750000000000000000e+00
4.699999999999999734e-01
-3.470000000000000195e+00
8.769999999999999574e+00
4.089999999999999858e+00
-9.189999999999999503e+00
1.214000000000000057e+01
-3.750000000000000000e+00
1.179999999999999938e+00
2.100000000000000089e+00
1.629999999999999893e+00
-5.570000000000000284e+00
-2.939999999999999947e+00
-8.299999999999999600e-01
-6.030000000000000249e+00
1.025999999999999979e+01
2.709999999999999964e+00
-1.380000000000000071e+01
5.400000000000000355e-01
3.099999999999999978e-01
-5.490000000000000213e+00
3.390000000000000124e+00
-4.929999999999999716e+00
-6.700000000000000178e+00
3.359999999999999876e+00
-2.479999999999999982e+00
-7.820000000000000284e+00
5.339999999999999858e+00
5.879999999999999893e+00
-1.036999999999999922e+01
-1.159999999999999920e+00
-5.549999999999999822e+00
-2.990000000000000213e+00
1.282000000000000028e+01
-4.799999999999999822e+00
-9.279999999999999361e+00
9.890000000000000568e+00
4.940000000000000391e+00
-4.140999999999999659e+01
2.219000000000000128e+01
4.509999999999999787e+00
-3.200000000000000067e-01
8.720000000000000639e+00
3.600000000000000089e+00
-3.850000000000000089e+00
1.442999999999999972e+01
-2.082000000000000028e+01
-4.428999999999999915e+01
2.096999999999999886e+01
2.903000000000000114e+01
-3.285000000000000142e+01
1.484999999999999964e+01
9.399999999999999467e-01
-3.359000000000000341e+01
1.399000000000000021e+01
9.880000000000000782e+00
3.669999999999999929e+00
3.130999999999999872e+01
1.657999999999999829e+01
-4.903000000000000114e+01
8.699999999999999289e+00
-3.020000000000000018e+00
1.257000000000000028e+01
5.309000000000000341e+01
1.561999999999999922e+01
-1.716000000000000014e+01
1.435900000000000034e+02
3.953999999999999915e+01
-2.082299999999999898e+02
3.339999999999999858e+01
-3.617000000000000171e+01
1.268100000000000023e+02
2.498000000000000043e+01
-3.721999999999999886e+01
-4.214999999999999858e+01
6.756999999999999318e+01
-6.509999999999999432e+01
7.460999999999999943e+01
-8.570999999999999375e+01
-8.551000000000000512e+01
2.765000000000000000e+02
-8.285999999999999943e+01
4.488000000000000256e+01
3.146999999999999886e+01
5.964000000000000057e+01
-4.342000000000000171e+01
4.731000000000000227e+01
-1.976000000000000156e+01
3.696999999999999886e+01
1.967000000000000171e+01
5.100000000000000089e-01
4.400000000000000355e+00
-4.732999999999999829e+01
-5.411999999999999744e+01
3.253999999999999915e+01
2.085000000000000142e+01
-9.369999999999999218e+00
-4.685000000000000142e+01
2.612999999999999901e+01
1.472000000000000064e+01
3.611999999999999744e+01
-4.696000000000000085e+01
5.099999999999999645e+00
1.409999999999999964e+01
5.839999999999999858e+00
4.032999999999999829e+01
7.684999999999999432e+01
-1.723799999999999955e+02
-7.859000000000000341e+01
4.703000000000000114e+01
7.419999999999999929e+00
-1.559999999999999964e+01
2.605000000000000071e+01
-4.530000000000000249e+00
5.320000000000000284e+00
9.399999999999999467e-01
-1.069999999999999929e+01
3.300999999999999801e+01
6.059999999999999609e+00
-1.199999999999999956e+00
1.445699999999999932e+02
-3.264999999999999858e+01
-1.306800000000000068e+02
2.640000000000000124e+00
-5.299000000000000199e+01
-3.357000000000000028e+01
-1.030300000000000011e+02
5.428999999999999915e+01
5.240999999999999659e+01
1.457700000000000102e+02
-7.129999999999999893e+00
-2.267700000000000102e+02
3.669900000000000091e+02
-1.631299999999999955e+02
-2.861200000000000045e+02
2.576999999999999957e+01
8.275000000000000000e+01
-2.057999999999999829e+01
8.276999999999999602e+01
-6.854999999999999716e+01
5.371999999999999886e+01
1.560000000000000053e+00
-2.737000000000000099e+01
9.300000000000000488e-01
2.826000000000000156e+01
1.425999999999999979e+01
-7.670000000000000284e+01
-1.552999999999999936e+01
8.193000000000000682e+01
-1.470999999999999943e+02
-1.510999999999999943e+01
3.861999999999999744e+01
-3.359000000000000341e+01
1.590000000000000036e+01
7.776999999999999602e+01
2.050000000000000000e+01
-5.874000000000000199e+01
6.448999999999999488e+01
-5.089999999999999858e+00
-1.112800000000000011e+02
3.785999999999999943e+01
-2.630999999999999872e+01
1.036999999999999922e+01
3.370000000000000284e+01
2.167999999999999972e+01
-6.959000000000000341e+01
6.222999999999999687e+01
-9.779999999999999361e+00
-7.218999999999999773e+01
3.740999999999999659e+01
-5.320000000000000284e+00
-3.400999999999999801e+01
2.321999999999999886e+01
-1.869000000000000128e+01
-8.920999999999999375e+01
2.239699999999999989e+02
1.155000000000000071e+01
-1.498300000000000125e+02
5.471999999999999886e+01
5.671000000000000085e+01
-1.936899999999999977e+02
6.726999999999999602e+01
4.167000000000000171e+01
2.251999999999999957e+01
6.889000000000000057e+01
4.532000000000000028e+01
-5.850999999999999801e+01
7.700000000000000178e-01
1.362199999999999989e+02
-9.396999999999999886e+01
-1.701000000000000156e+01
1.466699999999999875e+02
4.186999999999999744e+01
1.020000000000000018e+00
-8.079000000000000625e+01
-8.215000000000000568e+01
7.595000000000000284e+01
9.715000000000000568e+01
-1.030600000000000023e+02
-1.057800000000000011e+02
-9.039999999999999147e+00
-3.499999999999999778e-01
3.789999999999999858e+01
-4.900000000000000355e+00
-1.053400000000000034e+02
-6.667000000000000171e+01
-1.474300000000000068e+02
1.279899999999999949e+02
1.976999999999999886e+02
5.332999999999999829e+01
7.909000000000000341e+01
8.606999999999999318e+01
-2.076599999999999966e+02
-1.700099999999999909e+02
-1.290500000000000114e+02
-1.249800000000000040e+02
1.155199999999999960e+02
2.125300000000000011e+02
1.657000000000000028e+01
-1.021899999999999977e+02
3.717999999999999972e+01
4.699000000000000199e+01
6.160000000000000142e+01
2.195300000000000011e+02
7.554999999999999716e+01
-3.284900000000000091e+02
-3.500400000000000205e+02
-1.765699999999999932e+02
2.824900000000000091e+02
3.929999999999999716e+01
2.156599999999999966e+02
1.208000000000000007e+01
-2.373300000000000125e+02
2.980400000000000205e+02
-3.192999999999999972e+01
-1.271899999999999977e+02
-5.363000000000000256e+01
-1.822299999999999898e+02
1.928999999999999915e+01
2.576200000000000045e+02
2.739000000000000057e+01
-5.889999999999999680e+00
4.006000000000000227e+01
1.416800000000000068e+02
-3.155400000000000205e+02
-3.076000000000000156e+01
-6.415999999999999659e+01
-3.853000000000000114e+01
4.415999999999999659e+01
1.205000000000000071e+01
-5.245000000000000284e+01
4.472999999999999687e+01
9.230000000000000426e+00
-1.269099999999999966e+02
2.057400000000000091e+02
-9.165999999999999659e+01
-7.670000000000000284e+01
-3.032000000000000028e+01
-2.376999999999999957e+01
-2.451999999999999886e+02
2.549000000000000057e+02
1.095999999999999943e+02
-5.302000000000000313e+01
1.708999999999999986e+01
8.699999999999999289e+00
-4.328000000000000114e+01
3.896999999999999886e+01
6.554000000000000625e+01
1.437599999999999909e+02
1.748999999999999844e+01
-2.351100000000000136e+02
-3.105899999999999750e+02
-4.116299999999999955e+02
3.455699999999999932e+02
1.199300000000000068e+02
9.519999999999999574e+00
-1.121000000000000085e+01
3.506000000000000227e+01
-3.668999999999999773e+01
-9.119999999999999218e+00
-1.008000000000000007e+01
7.420999999999999375e+01
-1.327199999999999989e+02
-7.971999999999999886e+01
1.076299999999999955e+02
3.575000000000000000e+01
-3.318999999999999773e+01
5.209999999999999964e+00
6.099999999999999867e-01
3.240000000000000213e+00
3.078999999999999915e+01
2.192999999999999972e+01
-1.951000000000000156e+01
1.453999999999999915e+01
7.290000000000000036e+00
-3.611999999999999744e+01
1.493999999999999950e+01
1.929999999999999938e+00
-1.147000000000000064e+01
1.555000000000000071e+01
6.759999999999999787e+00
1.729999999999999982e+00
-1.880999999999999872e+01
2.129999999999999893e+00
-1.025000000000000000e+01
1.399000000000000021e+01
3.200000000000000178e+00
-1.017999999999999972e+01
6.440000000000000391e+00
8.210000000000000853e+00
-8.080000000000000071e+00
9.939999999999999503e+00
8.109999999999999432e+00
-7.429999999999999716e+00
3.580000000000000071e+00
2.810000000000000053e+00
-5.690000000000000391e+00
-4.700000000000000178e+00
6.650000000000000355e+00
-3.899999999999999911e+00
-8.900000000000000355e+00
9.880000000000000782e+00
-7.929999999999999716e+00
-1.596000000000000085e+01
1.271000000000000085e+01
-4.059999999999999609e+00
-1.771999999999999886e+01
1.548000000000000043e+01
2.800000000000000266e-01
-1.632999999999999829e+01
1.646999999999999886e+01
1.570000000000000062e+00
-1.064000000000000057e+01
2.123999999999999844e+01
-1.090000000000000036e+01
-1.067999999999999972e+01
1.896999999999999886e+01
6.049999999999999822e+00
-1.034999999999999964e+01
2.058999999999999986e+01
1.100000000000000006e-01
-7.349999999999999645e+00
1.189000000000000057e+01
-9.200000000000000400e-01
-5.280000000000000249e+00
1.196000000000000085e+01
6.589999999999999858e+00
-1.109999999999999964e+01
1.446000000000000085e+01
3.290000000000000036e+00
-1.511999999999999922e+01
8.900000000000000355e+00
5.100000000000000089e-01
-4.769999999999999574e+00
9.099999999999999645e+00
7.110000000000000320e+00
-1.034999999999999964e+01
1.091999999999999993e+01
5.230000000000000426e+00
-1.025000000000000000e+01
1.205000000000000071e+01
3.609999999999999876e+00
-1.117999999999999972e+01
9.419999999999999929e+00
-4.879999999999999893e+00
-1.339000000000000057e+01
1.258999999999999986e+01
-3.330000000000000071e+00
-1.807000000000000028e+01
1.200999999999999979e+01
-8.399999999999999689e-01
-1.523000000000000043e+01
1.416999999999999993e+01
6.600000000000000311e-01
-7.809999999999999609e+00
1.828000000000000114e+01
-1.441999999999999993e+01
-1.043999999999999950e+01
9.900000000000000355e+00
-1.310000000000000053e+00
-1.780000000000000071e+01
8.259999999999999787e+00
-9.599999999999999645e-01
-1.313000000000000078e+01
1.133000000000000007e+01
2.299999999999999822e+00
-1.578999999999999915e+01
1.377999999999999936e+01
-2.439999999999999947e+00
-1.378999999999999915e+01
1.850000000000000000e+01
4.509999999999999787e+00
-1.184999999999999964e+01
6.600000000000000311e-01
4.469999999999999751e+00
-1.392999999999999972e+01
1.501999999999999957e+01
4.240000000000000213e+00
-1.213000000000000078e+01
2.069000000000000128e+01
5.530000000000000249e+00
-2.358999999999999986e+01
9.759999999999999787e+00
4.309999999999999609e+00
-1.960000000000000142e+01
1.430000000000000071e+01
-4.450000000000000178e+00
-6.160000000000000142e+00
1.509999999999999964e+01
-5.280000000000000249e+00
-1.944000000000000128e+01
1.600000000000000000e+01
9.380000000000000782e+00
-1.016999999999999993e+01
9.730000000000000426e+00
-1.840000000000000080e+00
-1.349000000000000021e+01
2.353999999999999915e+01
1.520000000000000018e+00
-1.368999999999999950e+01
7.139999999999999680e+00
6.459999999999999964e+00
-1.381000000000000050e+01
5.169999999999999929e+00
1.197000000000000064e+01
-6.190000000000000391e+00
7.389999999999999680e+00
1.610000000000000098e+00
1.679999999999999938e+00
-2.490000000000000213e+00
1.338000000000000078e+01
-8.929999999999999716e+00
-1.707999999999999829e+01
-5.600000000000000533e-01
-3.390000000000000124e+00
-1.233000000000000007e+01
2.071999999999999886e+01
-3.569999999999999840e+00
-1.547000000000000064e+01
1.483000000000000007e+01
-6.889999999999999680e+00
-1.583000000000000007e+01
1.035999999999999943e+01
-6.669999999999999929e+00
-1.758999999999999986e+01
1.415000000000000036e+01
6.199999999999999956e-01
-1.701000000000000156e+01
1.676999999999999957e+01
1.620000000000000107e+00
-1.648000000000000043e+01
1.469999999999999929e+01
5.690000000000000391e+00
-1.197000000000000064e+01
1.390000000000000036e+01
1.830000000000000071e+00
-1.258000000000000007e+01
1.951999999999999957e+01
9.400000000000000355e+00
-1.082000000000000028e+01
1.138000000000000078e+01
-2.129999999999999893e+00
-4.440000000000000391e+00
8.919999999999999929e+00
6.179999999999999716e+00
-7.040000000000000036e+00
-1.031000000000000050e+01
2.399999999999999911e+00
-5.839999999999999858e+00
-8.830000000000000071e+00
1.011999999999999922e+01
-1.919999999999999929e+00
-1.428999999999999915e+01
1.025000000000000000e+01
-6.700000000000000400e-01
-1.075000000000000000e+01
7.940000000000000391e+00
-2.459999999999999964e+00
-1.976999999999999957e+01
6.870000000000000107e+00
6.700000000000000400e-01
-1.443999999999999950e+01
1.721000000000000085e+01
2.500000000000000000e+00
-1.585999999999999943e+01
1.259999999999999964e+01
3.979999999999999982e+00
-1.071000000000000085e+01
1.232000000000000028e+01
1.449999999999999956e+00
-1.433000000000000007e+01
2.250000000000000000e+01
7.230000000000000426e+00
-1.068999999999999950e+01
8.210000000000000853e+00
8.339999999999999858e+00
9.519999999999999574e+00
-8.960000000000000853e+00
-1.425999999999999979e+01
-3.899999999999999911e+00
-3.169999999999999929e+00
1.367999999999999972e+01
-5.700000000000000178e+00
-1.510999999999999943e+01
9.859999999999999432e+00
-2.209999999999999964e+00
-1.755000000000000071e+01
1.808999999999999986e+01
-1.439999999999999947e+00
-1.664000000000000057e+01
1.284999999999999964e+01
2.810000000000000053e+00
-1.059999999999999964e+01
1.314000000000000057e+01
4.940000000000000391e+00
-6.179999999999999716e+00
1.255000000000000071e+01
-4.000000000000000222e-01
-8.000000000000000000e+00
9.050000000000000711e+00
1.025999999999999979e+01
-8.029999999999999361e+00
-1.379999999999999893e+00
8.150000000000000355e+00
-2.330000000000000071e+00
-1.033999999999999986e+01
8.699999999999999289e+00
-3.069999999999999840e+00
-1.416999999999999993e+01
1.100000000000000000e+01
-4.799999999999999822e-01
-1.930000000000000071e+01
1.133000000000000007e+01
2.319999999999999840e+00
-1.783999999999999986e+01
1.405000000000000071e+01
1.969999999999999973e+00
-1.405000000000000071e+01
1.264000000000000057e+01
5.360000000000000320e+00
-1.078999999999999915e+01
1.369999999999999929e+01
-1.199999999999999956e-01
-1.056000000000000050e+01
1.530000000000000071e+01
3.450000000000000178e+00
-8.740000000000000213e+00
3.099999999999999978e-01
4.709999999999999964e+00
-9.070000000000000284e+00
-3.660000000000000142e+00
1.798999999999999844e+01
-1.389999999999999902e+00
-1.780000000000000071e+01
9.259999999999999787e+00
3.439999999999999947e+00
-1.917999999999999972e+01
1.150000000000000000e+01
-4.199999999999999845e-01
-1.430000000000000071e+01
1.068999999999999950e+01
-5.209999999999999964e+00
-9.529999999999999361e+00
3.214999999999999858e+01
-8.800000000000000711e+00
-1.350999999999999979e+01
1.259999999999999964e+01
8.859999999999999432e+00
-8.339999999999999858e+00
1.120000000000000107e+00
4.959999999999999964e+00
-4.780000000000000249e+00
-2.259999999999999787e+00
1.109999999999999964e+01
-7.740000000000000213e+00
-1.660000000000000142e+01
-5.700000000000000178e+00
-1.976000000000000156e+01
3.246999999999999886e+01
5.967999999999999972e+01
6.257999999999999829e+01
-5.100000000000000000e+01
-1.258000000000000007e+01
2.807999999999999829e+01
3.001000000000000156e+01
8.689999999999999503e+00
2.270000000000000018e+00
-3.835000000000000142e+01
4.350999999999999801e+01
2.573999999999999844e+01
-1.259800000000000040e+02
2.280000000000000071e+01
-5.934000000000000341e+01
-1.008700000000000045e+02
1.868799999999999955e+02
1.548700000000000045e+02
-3.026600000000000250e+02
-3.960999999999999943e+01
-3.517999999999999972e+01
5.668999999999999773e+01
2.089999999999999858e+01
2.217599999999999909e+02
-1.791800000000000068e+02
5.742000000000000171e+01
9.985999999999999943e+01
6.717000000000000171e+01
-1.321699999999999875e+02
9.212999999999999545e+01
-1.508499999999999943e+02
5.350999999999999801e+01
1.646000000000000085e+01
2.135000000000000142e+01
-9.060000000000000497e+00
2.740000000000000213e+00
-9.880000000000000782e+00
-1.458000000000000007e+01
2.232999999999999829e+01
4.419999999999999929e+00
-1.919999999999999929e+01
1.248000000000000043e+01
8.640000000000000568e+00
-9.320000000000000284e+00
1.471000000000000085e+01
3.484000000000000341e+01
-1.071000000000000085e+01
-2.048000000000000043e+01
-1.232000000000000028e+01
-7.719999999999999751e+00
7.849999999999999645e+00
2.212999999999999901e+01
4.349999999999999645e+00
-1.528999999999999915e+01
1.377999999999999936e+01
3.740000000000000213e+00
-1.664999999999999858e+01
1.069999999999999929e+01
6.999999999999999556e-01
-1.174000000000000021e+01
1.597000000000000064e+01
-7.500000000000000000e-01
-1.912999999999999901e+01
6.500000000000000000e+00
-6.019999999999999574e+00
-1.544999999999999929e+01
1.316000000000000014e+01
1.657000000000000028e+01
2.549999999999999822e+00
-4.500000000000000111e-01
-1.169999999999999929e+00
-1.419999999999999929e+00
3.069999999999999840e+00
9.089999999999999858e+00
-6.919999999999999929e+00
-5.099999999999999645e+00
5.379999999999999893e+00
-4.919999999999999929e+00
-1.041999999999999993e+01
8.970000000000000639e+00
-2.390000000000000124e+00
-8.349999999999999645e+00
1.301999999999999957e+01
-1.525999999999999979e+01
-1.932000000000000028e+01
9.650000000000000355e+00
-7.700000000000000178e-01
-1.425999999999999979e+01
1.150999999999999979e+01
7.440000000000000391e+00
-1.989999999999999858e+01
1.126999999999999957e+01
8.810000000000000497e+00
-3.470000000000000195e+00
5.919999999999999929e+00
1.208000000000000007e+01
-5.669999999999999929e+00
-1.129999999999999893e+00
1.168999999999999950e+01
1.770000000000000018e+00
-5.250000000000000000e+00
-8.679999999999999716e+00
-1.889999999999999902e+00
-1.662000000000000099e+01
1.093999999999999950e+01
-7.000000000000000666e-02
-1.538000000000000078e+01
1.331000000000000050e+01
6.500000000000000000e+00
-1.260999999999999943e+01
6.200000000000000178e+00
1.750000000000000000e+00
-1.258999999999999986e+01
1.366000000000000014e+01
3.240000000000000213e+00
-1.273000000000000043e+01
1.098000000000000043e+01
4.450000000000000178e+00
-1.560999999999999943e+01
1.328999999999999915e+01
6.309999999999999609e+00
-4.209999999999999964e+00
-3.850000000000000089e+00
1.582000000000000028e+01
-1.005000000000000071e+01
-2.323999999999999844e+01
-7.370999999999999375e+01
-1.558000000000000007e+01
3.709000000000000341e+01
-2.723999999999999844e+01
-3.669999999999999929e+00
-2.379999999999999893e+00
7.498000000000000398e+01
5.484000000000000341e+01
-4.654999999999999716e+01
3.051999999999999957e+01
3.546999999999999886e+01
-3.746999999999999886e+01
-3.240999999999999659e+01
2.105000000000000071e+01
1.805000000000000071e+01
-1.391100000000000136e+02
-5.602000000000000313e+01
-7.320000000000000284e+00
-1.179999999999999938e+00
7.906000000000000227e+01
6.709000000000000341e+01
-1.196000000000000085e+01
1.354199999999999875e+02
2.580000000000000071e+00
-3.600000000000000089e+00
2.773999999999999844e+01
-1.169999999999999929e+00
-1.682000000000000028e+01
1.760000000000000009e+00
1.882999999999999829e+01
-1.168999999999999950e+01
2.955999999999999872e+01
-9.134000000000000341e+01
1.614000000000000057e+02
1.488100000000000023e+02
-7.731999999999999318e+01
-9.115000000000000568e+01
2.092700000000000102e+02
-4.211999999999999744e+01
-2.380000000000000071e+01
-6.668000000000000682e+01
-1.401999999999999886e+02
1.792800000000000011e+02
6.392500000000000000e+02
-3.197400000000000091e+02
-1.197600000000000051e+02
2.410399999999999920e+02
1.784799999999999898e+02
-2.649800000000000182e+02
-1.690600000000000023e+02
-2.794999999999999929e+01
-7.349999999999999645e+00
2.282000000000000028e+01
1.780399999999999920e+02
-8.269999999999999574e+00
-1.361999999999999922e+01
-3.306000000000000227e+01
-4.197999999999999687e+01
4.252000000000000313e+01
-5.969999999999999751e+00
-1.632999999999999829e+01
3.729999999999999982e+00
6.469999999999999751e+00
-3.375000000000000000e+01
2.653999999999999915e+01
-1.785000000000000142e+01
-5.700000000000000178e+00
2.716000000000000014e+01
-2.157999999999999829e+01
1.675000000000000000e+01
-5.599999999999999645e+00
-2.753000000000000114e+01
8.609999999999999432e+00
3.100000000000000089e+00
-1.424000000000000021e+01
8.990000000000000213e+00
8.919999999999999929e+00
-4.719999999999999751e+00
7.549999999999999822e+00
-1.732000000000000028e+01
1.083999999999999986e+01
5.580000000000000071e+00
-2.676999999999999957e+01
3.339999999999999858e+00
-1.533000000000000007e+01
-1.630999999999999872e+01
5.292000000000000171e+01
-7.723000000000000398e+01
-2.730000000000000071e+01
3.543999999999999773e+01
5.769999999999999574e+00
3.729999999999999716e+01
-3.610999999999999943e+01
-3.632000000000000028e+01
-4.131000000000000227e+01
-1.282000000000000028e+01
9.348000000000000398e+01
-6.229999999999999716e+01
-5.115999999999999659e+01
-6.415999999999999659e+01
1.436999999999999922e+01
1.075600000000000023e+02
-3.260000000000000142e+01
-7.662000000000000455e+01
-4.677000000000000313e+01
1.149599999999999937e+02
-3.577000000000000313e+01
-8.032999999999999829e+01
-7.881000000000000227e+01
-5.799999999999999600e-01
1.538100000000000023e+02
-1.073299999999999983e+02
-8.181999999999999318e+01
-6.481000000000000227e+01
4.620000000000000284e+01
1.280999999999999943e+02
-4.260000000000000142e+01
-3.750999999999999801e+01
3.302000000000000313e+01
1.100999999999999943e+02
-1.495800000000000125e+02
-6.795000000000000284e+01
-2.632099999999999795e+02
1.119599999999999937e+02
3.492999999999999972e+01
6.129999999999999893e+00
9.980000000000000426e+00
-2.300000000000000000e+01
1.021000000000000085e+01
-1.932999999999999829e+01
-1.030000000000000027e+00
4.681000000000000227e+01
-2.580000000000000071e+00
-1.218999999999999950e+01
5.167000000000000171e+01
-8.699999999999999956e-01
-7.389999999999999680e+00
-1.017399999999999949e+02
-9.009999999999999787e+00
-7.120000000000000107e+00
2.780999999999999872e+01
1.029800000000000040e+02
-4.714999999999999858e+01
-1.139300000000000068e+02
1.516699999999999875e+02
6.389999999999999680e+00
-4.603999999999999915e+01
-2.377299999999999898e+02
1.174899999999999949e+02
-6.465000000000000568e+01
2.473799999999999955e+02
1.951999999999999957e+01
-3.631000000000000227e+01
2.966000000000000014e+01
-2.375600000000000023e+02
-9.599999999999999645e-01
1.903999999999999915e+01
2.133999999999999986e+01
6.718999999999999773e+01
9.730000000000000426e+00
6.184000000000000341e+01
4.825999999999999801e+01
-3.539000000000000057e+01
-3.574000000000000199e+01
-1.163799999999999955e+02
1.141400000000000006e+02
1.046800000000000068e+02
9.337000000000000455e+01
-1.255600000000000023e+02
-3.503000000000000114e+01
6.814000000000000057e+01
-3.806000000000000227e+01
-4.724000000000000199e+01
1.100999999999999943e+02
-7.950000000000000178e+00
-7.737000000000000455e+01
8.784999999999999432e+01
-1.712999999999999901e+01
-3.910999999999999943e+01
3.265999999999999659e+01
-4.686999999999999744e+01
4.420000000000000284e+01
1.075999999999999979e+01
-5.631000000000000227e+01
-6.831000000000000227e+01
1.169300000000000068e+02
7.231999999999999318e+01
3.580000000000000071e+00
-1.574199999999999875e+02
-3.757200000000000273e+02
1.283899999999999864e+02
2.414499999999999886e+02
6.676999999999999602e+01
-1.720000000000000000e+02
-3.317000000000000171e+01
-2.319999999999999929e+01
3.422999999999999687e+01
-1.785800000000000125e+02
7.067000000000000171e+01
-5.413000000000000256e+01
-2.380200000000000102e+02
2.030099999999999909e+02
3.430500000000000114e+02
-1.060499999999999972e+02
-3.859000000000000341e+01
5.799999999999999822e+00
-2.571000000000000085e+01
9.329999999999999716e+01
-1.582000000000000028e+01
-1.837100000000000080e+02
2.288300000000000125e+02
4.334000000000000341e+01
-7.239000000000000057e+01
2.369999999999999929e+01
3.806000000000000227e+01
5.407000000000000028e+01
8.248000000000000398e+01
7.850000000000000000e+01
-2.380999999999999872e+01
2.479999999999999982e+00
-1.669999999999999929e+00
5.256000000000000227e+01
-3.509999999999999787e+00
-5.971999999999999886e+01
-5.586999999999999744e+01
1.020000000000000000e+02
9.668999999999999773e+01
-7.084999999999999432e+01
3.493999999999999773e+01
9.295999999999999375e+01
-1.195699999999999932e+02
-1.159000000000000057e+02
3.552000000000000313e+01
-5.684000000000000341e+01
3.460000000000000142e+01
-8.589000000000000057e+01
6.529999999999999716e+01
-1.345300000000000011e+02
1.387199999999999989e+02
7.410000000000000142e+00
-8.765000000000000568e+01
-2.331599999999999966e+02
1.661999999999999886e+02
9.480000000000000426e+00
-1.751299999999999955e+02
1.183499999999999943e+02
3.285600000000000023e+02
-4.006000000000000227e+01
-2.783999999999999773e+02
1.355500000000000114e+02
3.519700000000000273e+02
-2.659200000000000159e+02
-1.012900000000000063e+02
2.442299999999999898e+02
-6.460999999999999943e+01
-1.241099999999999994e+02
1.149999999999999911e+00
-1.498000000000000043e+01
1.132999999999999972e+02
-5.006000000000000227e+01
-5.928000000000000114e+01
2.209999999999999964e+00
-1.458999999999999986e+01
-9.339999999999999858e+00
8.098000000000000398e+01
2.612000000000000099e+01
-2.329699999999999989e+02
1.127000000000000028e+02
6.895999999999999375e+01
-9.234000000000000341e+01
-5.486999999999999744e+01
-1.454199999999999875e+02
2.011299999999999955e+02
-7.465999999999999659e+01
-6.656000000000000227e+01
-7.368999999999999773e+01
-2.857000000000000028e+01
1.062099999999999937e+02
3.620000000000000107e+00
-1.224699999999999989e+02
-9.462000000000000455e+01
-5.345000000000000284e+01
-2.587000000000000099e+01
1.563799999999999955e+02
-3.618999999999999773e+01
-1.501500000000000057e+02
2.246299999999999955e+02
-9.554000000000000625e+01
1.251200000000000045e+02
6.885999999999999943e+01
-8.657999999999999829e+01
-1.668000000000000114e+02
1.142800000000000011e+02
-5.277000000000000313e+01
1.076800000000000068e+02
1.360699999999999932e+02
-3.450000000000000000e+02
-1.445500000000000114e+02
2.945400000000000205e+02
2.553000000000000114e+01
-8.079999999999999716e+01
-4.610000000000000142e+01
7.732999999999999829e+01
-7.790999999999999659e+01
-1.360200000000000102e+02
7.842000000000000171e+01
-9.630000000000000782e+00
-7.131000000000000227e+01
-2.176999999999999957e+01
-5.357999999999999829e+01
3.359999999999999876e+00
2.707999999999999829e+01
-6.904000000000000625e+01
-1.424000000000000021e+01
7.584999999999999432e+01
1.048900000000000006e+02
-9.062999999999999545e+01
-8.659999999999999432e+01
-1.589000000000000057e+01
1.382000000000000028e+01
1.181700000000000017e+02
-7.773999999999999488e+01
-4.514000000000000057e+01
1.318899999999999864e+02
1.254300000000000068e+02
-7.070000000000000284e+01
-1.531699999999999875e+02
-1.339399999999999977e+02
-1.194999999999999929e+01
3.737699999999999818e+02
-1.973100000000000023e+02
-5.692999999999999972e+01
3.839999999999999858e+00
1.573300000000000125e+02
-4.974000000000000199e+01
-1.739799999999999898e+02
-4.824000000000000199e+01
4.279999999999999716e+01
2.539000000000000057e+02
-1.677899999999999920e+02
2.257000000000000028e+01
3.399999999999999911e+00
1.121800000000000068e+02
-1.609600000000000080e+02
3.899000000000000199e+01
4.042999999999999972e+01
-1.235900000000000034e+02
7.837999999999999545e+01
-1.370000000000000000e+02
-9.015999999999999659e+01
7.748999999999999488e+01
1.007000000000000028e+01
2.103000000000000114e+02
-1.198799999999999955e+02
-1.067300000000000040e+02
6.147999999999999687e+01
7.656999999999999318e+01
9.014000000000000057e+01
-1.478400000000000034e+02
-2.775000000000000000e+01
6.389999999999999680e+00
2.065500000000000114e+02
-2.178000000000000114e+01
-9.042000000000000171e+01
2.332000000000000028e+01
8.945999999999999375e+01
-3.148000000000000043e+01
-4.910000000000000142e+01
-2.050200000000000102e+02
7.564000000000000057e+01
2.190300000000000011e+02
-9.410999999999999943e+01
-9.554999999999999716e+01
1.466000000000000014e+01
1.862100000000000080e+02
4.007999999999999829e+01
-1.437299999999999898e+02
1.400000000000000133e-01
8.109999999999999432e+01
1.598300000000000125e+02
-5.557999999999999829e+01
-1.382599999999999909e+02
-7.910999999999999943e+01
5.271999999999999886e+01
1.945699999999999932e+02
-1.115900000000000034e+02
-1.010799999999999983e+02
9.015000000000000568e+01
1.489300000000000068e+02
-1.788799999999999955e+02
-5.170000000000000284e+01
-1.789900000000000091e+02
6.814000000000000057e+01
2.783500000000000227e+02
-1.508499999999999943e+02
-1.152900000000000063e+02
8.451999999999999602e+01
1.525800000000000125e+02
-8.615000000000000568e+01
-9.012999999999999545e+01
-1.519799999999999898e+02
8.551999999999999602e+01
2.518700000000000045e+02
-1.011299999999999955e+02
-1.012699999999999960e+02
1.604699999999999989e+02
1.563700000000000045e+02
-9.062999999999999545e+01
-1.135000000000000000e+02
-1.395000000000000000e+02
5.821999999999999886e+01
2.107599999999999909e+02
-1.608199999999999932e+02
-8.376999999999999602e+01
5.185999999999999943e+01
2.014399999999999977e+02
-1.206500000000000057e+02
-1.154399999999999977e+02
-5.492000000000000171e+01
1.062900000000000063e+02
6.039999999999999858e+01
-5.640999999999999659e+01
-2.172100000000000080e+02
1.601500000000000057e+02
2.235399999999999920e+02
-1.571500000000000057e+02
-2.036500000000000057e+02
1.358799999999999955e+02
6.084000000000000341e+01
-1.477800000000000011e+02
-1.816000000000000014e+01
-1.348799999999999955e+02
1.026800000000000068e+02
2.369199999999999875e+02
-1.433400000000000034e+02
-7.714000000000000057e+01
2.310999999999999943e+01
9.684999999999999432e+01
6.982999999999999829e+01
-1.489600000000000080e+02
-1.435399999999999920e+02
2.623000000000000043e+01
2.879200000000000159e+02
-1.015600000000000023e+02
1.429999999999999938e+00
-5.750000000000000000e+01
6.199000000000000199e+01
-5.478999999999999915e+01
-5.632999999999999829e+01
-7.929000000000000625e+01
-5.532000000000000028e+01
2.892900000000000205e+02
-6.117000000000000171e+01
-5.840999999999999659e+01
1.359999999999999964e+01
4.261999999999999744e+01
1.651000000000000156e+01
-1.404600000000000080e+02
-5.175999999999999801e+01
8.169999999999999929e+00
1.296299999999999955e+02
-7.151999999999999602e+01
-7.346999999999999886e+01
-2.917999999999999972e+01
-2.288700000000000045e+02
2.753799999999999955e+02
1.905300000000000011e+02
-1.648100000000000023e+02
-8.282999999999999829e+01
1.161999999999999922e+01
5.382000000000000028e+01
3.784000000000000341e+01
-9.301999999999999602e+01
-3.517000000000000171e+01
5.700000000000000000e+01
-4.407999999999999829e+01
-7.309999999999999609e+00
1.726000000000000156e+01
4.170000000000000284e+01
1.810000000000000142e+01
1.527999999999999936e+01
-2.221899999999999977e+02
9.473999999999999488e+01
-8.459000000000000341e+01
1.119999999999999929e+01
3.300000000000000155e-01
6.826999999999999602e+01
6.990000000000000568e+01
8.839999999999999858e+00
-1.580900000000000034e+02
1.308999999999999986e+01
4.693999999999999773e+01
2.257000000000000028e+01
-2.339999999999999858e+01
3.603999999999999915e+01
-2.164000000000000057e+01
-1.714000000000000057e+01
2.025000000000000000e+01
1.286500000000000057e+02
-1.080000000000000071e+01
-1.104300000000000068e+02
2.666000000000000014e+01
-3.781000000000000227e+01
-5.769999999999999574e+00
8.076000000000000512e+01
6.853000000000000114e+01
6.440000000000000391e+00
-6.907999999999999829e+01
-6.267000000000000171e+01
7.717000000000000171e+01
-3.620000000000000284e+01
-3.129999999999999893e+00
-3.846000000000000085e+01
-1.837000000000000099e+01
-1.287400000000000091e+02
3.417999999999999972e+01
3.390999999999999659e+01
4.820000000000000284e+01
-3.296999999999999886e+01
5.165999999999999659e+01
1.060400000000000063e+02
4.253000000000000114e+01
-1.723799999999999955e+02
1.112199999999999989e+02
-5.804999999999999716e+01
-1.190999999999999943e+02
2.555999999999999872e+01
4.096000000000000085e+01
-8.751000000000000512e+01
-9.468999999999999773e+01
6.074000000000000199e+01
-7.115999999999999659e+01
3.290999999999999659e+01
6.211999999999999744e+01
5.410999999999999943e+01
-1.501100000000000136e+02
-1.198599999999999994e+02
7.656999999999999318e+01
8.782999999999999829e+01
2.676999999999999957e+01
1.486999999999999922e+01
1.440000000000000036e+01
6.363000000000000256e+01
-2.108999999999999986e+01
-5.867999999999999972e+01
-1.628000000000000114e+01
-4.996999999999999886e+01
-1.061800000000000068e+02
1.591800000000000068e+02
1.328400000000000034e+02
3.735000000000000142e+01
-1.420900000000000034e+02
-3.297999999999999687e+01
4.045000000000000284e+01
9.201999999999999602e+01
-5.282000000000000028e+01
-1.987999999999999901e+01
3.592999999999999972e+01
8.399999999999999689e-01
4.772999999999999687e+01
-1.948300000000000125e+02
7.685999999999999943e+01
1.101700000000000017e+02
-2.446399999999999864e+02
-1.316000000000000014e+01
8.089000000000000057e+01
-4.436999999999999744e+01
8.699999999999999289e+00
4.419999999999999929e+00
1.142999999999999972e+01
1.664000000000000057e+01
3.717000000000000171e+01
-1.360200000000000102e+02
-1.323000000000000043e+01
-7.509999999999999787e+00
1.050000000000000044e+00
6.167000000000000171e+01
-7.019999999999999574e+00
-1.022000000000000064e+01
-8.820000000000000284e+00
-2.414000000000000057e+01
2.719999999999999929e+01
6.860000000000000320e+00
-6.530000000000000249e+00
-5.629999999999999893e+00
5.000000000000000000e-01
3.200000000000000067e-01
8.179999999999999716e+00
-9.619999999999999218e+00
5.100000000000000089e-01
-6.500000000000000222e-01
8.599999999999999867e-01
6.250000000000000000e+00
6.040000000000000036e+00
-9.799999999999999822e-01
3.140000000000000124e+00
5.099000000000000199e+01
1.109800000000000040e+02
-1.761999999999999886e+02
-1.047800000000000011e+02
-9.580000000000000071e+00
-1.210999999999999943e+01
-1.144000000000000057e+02
-9.045000000000000284e+01
1.379399999999999977e+02
4.070000000000000284e+01
4.099999999999999645e+00
7.265999999999999659e+01
-6.762000000000000455e+01
5.092000000000000171e+01
1.399300000000000068e+02
-1.018999999999999950e+01
-8.519999999999999574e+00
-1.981399999999999864e+02
-1.065699999999999932e+02
9.282999999999999829e+01
1.547000000000000064e+01
-2.261599999999999966e+02
2.037999999999999901e+01
1.424300000000000068e+02
1.885999999999999943e+01
-3.431000000000000227e+01
-3.180000000000000071e+01
6.532999999999999829e+01
-6.889999999999999680e+00
-3.584000000000000341e+01
1.391999999999999993e+01
1.864000000000000057e+01
-5.230000000000000426e+00
-1.957999999999999829e+01
-2.705999999999999872e+01
2.680000000000000160e+00
4.022999999999999687e+01
2.228000000000000114e+01
6.632999999999999829e+01
4.607999999999999829e+01
2.239000000000000057e+01
-1.298100000000000023e+02
-1.117999999999999972e+01
8.468999999999999773e+01
-5.679999999999999716e+00
-3.010999999999999943e+01
-3.207000000000000028e+01
1.214000000000000057e+01
3.914000000000000057e+01
1.946000000000000085e+01
6.224000000000000199e+01
1.925000000000000000e+01
-1.303100000000000023e+02
-2.421000000000000085e+01
5.230000000000000426e+00
-2.028999999999999915e+01
-1.948000000000000043e+01
8.490000000000000568e+01
7.162000000000000455e+01
-7.801999999999999602e+01
-1.780000000000000071e+01
5.814999999999999858e+01
-8.221999999999999886e+01
6.132999999999999829e+01
-2.482000000000000028e+01
-1.632000000000000028e+01
-1.714999999999999858e+01
2.876999999999999957e+01
2.989000000000000057e+01
-2.660000000000000142e+00
2.007999999999999829e+01
-1.628000000000000114e+01
-5.639999999999999680e+00
7.280000000000000249e+00
-4.309999999999999609e+00
-1.290000000000000036e+00
8.299999999999999600e-01
5.410000000000000142e+00
2.187000000000000099e+01
8.500000000000000000e+00
-4.092000000000000171e+01
-8.609999999999999432e+00
2.396000000000000085e+01
2.746999999999999886e+01
8.796999999999999886e+01
3.779999999999999805e+00
-8.159000000000000341e+01
8.539000000000000057e+01
3.879999999999999893e+00
-5.328000000000000114e+01
-9.746999999999999886e+01
-1.761299999999999955e+02
1.872400000000000091e+02
9.470000000000000284e+01
-3.596000000000000085e+01
-5.286999999999999744e+01
4.853999999999999915e+01
3.611999999999999744e+01
2.753999999999999915e+01
-5.195000000000000284e+01
-2.412999999999999901e+01
1.395300000000000011e+02
-3.521000000000000085e+01
4.889999999999999680e+00
-3.130999999999999872e+01
1.462299999999999898e+02
6.575000000000000000e+01
-1.100000000000000089e+00
-1.494999999999999929e+01
1.012699999999999960e+02
-6.900000000000000355e+00
-1.215000000000000036e+01
-1.271000000000000085e+01
7.049999999999999822e+00
1.485999999999999943e+01
-3.750000000000000000e+00
-5.699999999999999512e-01
-2.979999999999999982e+00
-6.089999999999999858e+00
-1.728999999999999915e+01
6.139999999999999680e+00
-1.514000000000000057e+01
-2.185999999999999943e+01
-8.310000000000000497e+00
-7.570000000000000284e+00
-4.879999999999999893e+00
2.367000000000000171e+01
1.762000000000000099e+01
-1.635999999999999943e+01
9.199999999999999289e+00
-1.321000000000000085e+01
1.066999999999999993e+01
-3.879999999999999893e+00
-1.352999999999999936e+01
-8.669999999999999929e+00
8.390000000000000568e+00
-9.599999999999999645e+00
-7.049999999999999822e+00
5.400000000000000355e+00
2.410000000000000142e+00
9.099999999999999645e+00
2.292000000000000171e+01
-2.387999999999999901e+01
-3.153999999999999915e+01
2.817000000000000171e+01
-1.294999999999999929e+01
3.539000000000000057e+01
9.426000000000000512e+01
1.682400000000000091e+02
-9.110999999999999943e+01
-1.057500000000000000e+02
-9.250000000000000000e+00
4.129999999999999716e+01
-6.117000000000000171e+01
-9.630000000000000782e+00
8.246999999999999886e+01
-6.160000000000000142e+01
-1.392899999999999920e+02
6.196000000000000085e+01
6.484999999999999432e+01
5.332999999999999829e+01
1.135100000000000051e+02
-4.314000000000000057e+01
-3.615999999999999659e+01
8.000000000000000444e-01
-7.580000000000000071e+00
6.907999999999999829e+01
2.461500000000000057e+02
-1.573100000000000023e+02
-1.145199999999999960e+02
-1.105699999999999932e+02
-7.628000000000000114e+01
3.988000000000000256e+01
5.525999999999999801e+01
-1.144999999999999929e+01
-4.754999999999999716e+01
1.692800000000000011e+02
-2.446200000000000045e+02
3.046000000000000085e+01
-5.134000000000000341e+01
1.407000000000000028e+01
-1.361999999999999922e+01
-1.503999999999999915e+01
-2.692999999999999972e+01
3.307999999999999829e+01
1.100000000000000006e-01
-6.800000000000000488e-01
2.292999999999999972e+01
-5.184000000000000341e+01
-2.937999999999999901e+01
3.383899999999999864e+02
-9.782999999999999829e+01
6.750000000000000000e+00
-2.330000000000000071e+01
5.790000000000000036e+00
-2.773999999999999844e+01
5.017000000000000171e+01
-6.028000000000000114e+01
-2.312999999999999901e+01
-2.055999999999999872e+01
1.151999999999999957e+01
1.300000000000000044e+00
-1.264000000000000057e+01
7.599999999999999645e+00
7.759999999999999787e+00
-1.318999999999999950e+01
2.200000000000000000e+01
4.339999999999999858e+00
-2.033999999999999986e+01
2.228000000000000114e+01
1.264000000000000057e+01
1.741000000000000014e+01
-3.917999999999999972e+01
-1.549000000000000021e+01
5.330000000000000071e+00
5.832000000000000028e+01
2.819999999999999840e+00
-2.116000000000000014e+01
-1.550000000000000000e+01
-2.479999999999999982e+00
-1.260000000000000009e+00
4.257000000000000028e+01
-7.759999999999999787e+00
-1.985000000000000142e+01
1.930999999999999872e+01
-1.134999999999999964e+01
-1.459999999999999964e+00
1.409999999999999964e+01
-1.048000000000000043e+01
-6.259999999999999787e+00
5.599999999999999645e+00
1.179999999999999938e+00
3.162999999999999901e+01
1.651999999999999957e+01
-2.280000000000000071e+01
1.066000000000000014e+01
2.871000000000000085e+01
1.075000000000000000e+01
-1.286999999999999922e+01
1.850000000000000000e+01
2.649999999999999911e+00
-1.200999999999999979e+01
-1.300000000000000044e-01
1.238000000000000078e+01
9.669999999999999929e+00
-3.709999999999999964e+00
-5.639999999999999680e+00
-3.430000000000000160e+00
4.849999999999999645e+00
-1.035999999999999943e+01
2.300000000000000100e-01
5.570000000000000284e+00
-9.970000000000000639e+00
-5.059999999999999609e+00
1.422000000000000064e+01
-6.959999999999999964e+00
-1.566000000000000014e+01
8.050000000000000711e+00
2.560000000000000053e+00
-1.036999999999999922e+01
3.120000000000000107e+00
9.499999999999999556e-01
-1.548000000000000043e+01
3.112000000000000099e+01
-1.639999999999999902e+00
-1.309999999999999964e+01
3.678999999999999915e+01
2.516000000000000014e+01
-1.356200000000000045e+02
-2.446000000000000085e+01
9.179999999999999716e+00
3.600000000000000089e+00
-1.225000000000000000e+01
-1.689999999999999858e+01
-1.258999999999999986e+01
1.841000000000000014e+01
-9.470000000000000639e+00
-1.701999999999999957e+01
2.514000000000000057e+01
-1.491000000000000014e+01
-1.067999999999999972e+01
1.698999999999999844e+01
-3.770000000000000018e+00
-6.899999999999999467e-01
9.900000000000000355e+00
-4.781000000000000227e+01
-6.612999999999999545e+01
6.160000000000000142e+01
5.781000000000000227e+01
-1.024000000000000021e+01
-7.365000000000000568e+01
4.975999999999999801e+01
1.723999999999999844e+01
7.703000000000000114e+01
8.682999999999999829e+01
-1.064500000000000028e+02
3.120000000000000107e+00
2.041000000000000014e+01
3.203999999999999915e+01
-7.784000000000000341e+01
6.542000000000000171e+01
-3.121000000000000085e+01
4.153999999999999915e+01
4.669999999999999929e+00
1.251999999999999957e+01
1.484999999999999964e+01
-9.900000000000000355e+00
-2.064999999999999858e+01
-6.199999999999999956e-01
2.185999999999999943e+01
-3.800999999999999801e+01
8.390000000000000568e+00
1.926999999999999957e+01
5.629999999999999893e+00
1.852199999999999989e+02
-6.363000000000000256e+01
2.725000000000000000e+01
2.651000000000000156e+01
-1.525300000000000011e+02
9.798000000000000398e+01
4.771000000000000085e+01
1.030300000000000011e+02
-4.304999999999999716e+01
3.692999999999999972e+01
-4.546999999999999886e+01
-4.049000000000000199e+01
7.887999999999999545e+01
6.529999999999999716e+01
-2.735000000000000142e+01
9.004000000000000625e+01
-4.350999999999999801e+01
2.730999999999999872e+01
-1.116999999999999993e+01
2.620000000000000107e+00
-6.700000000000000178e+00
2.839999999999999858e+00
-1.764999999999999858e+01
1.540000000000000036e+00
4.928000000000000114e+01
-2.232999999999999829e+01
-2.335000000000000142e+01
2.562999999999999901e+01
3.699999999999999956e-01
-3.899999999999999911e+00
5.669999999999999929e+00
-2.419999999999999929e+01
1.359999999999999964e+01
1.526999999999999957e+01
-1.251999999999999957e+01
2.135000000000000142e+01
3.459999999999999964e+00
-2.894000000000000128e+01
1.550000000000000000e+01
6.780000000000000249e+00
-3.492999999999999972e+01
1.898000000000000043e+01
1.185999999999999943e+01
-3.349000000000000199e+01
1.182000000000000028e+01
-7.129999999999999893e+00
-7.360000000000000320e+00
4.490999999999999659e+01
-3.183999999999999986e+01
-4.952000000000000313e+01
4.810000000000000142e+01
2.137000000000000099e+01
5.719999999999999751e+00
5.110000000000000320e+00
-1.830999999999999872e+01
-1.414000000000000057e+01
1.810999999999999943e+01
-1.032000000000000028e+01
5.129999999999999893e+00
9.189999999999999503e+00
-2.769000000000000128e+01
2.532000000000000028e+01
1.116000000000000014e+01
-6.077000000000000313e+01
-1.436999999999999922e+01
2.961100000000000136e+02
-7.798000000000000398e+01
-1.845399999999999920e+02
-6.514000000000000057e+01
-5.584000000000000341e+01
1.267300000000000040e+02
-1.325900000000000034e+02
-8.278000000000000114e+01
4.017000000000000171e+01
-4.489000000000000057e+01
-2.135999999999999943e+01
1.905300000000000011e+02
-8.682999999999999829e+01
-1.245999999999999943e+02
3.642999999999999972e+01
-3.259999999999999787e+00
2.196999999999999886e+01
-9.300000000000000711e+00
1.221000000000000085e+01
1.630999999999999872e+01
-1.406000000000000050e+01
-2.419999999999999929e+00
9.939999999999999503e+00
-6.320000000000000284e+00
-4.759999999999999787e+00
8.039999999999999147e+00
-1.566000000000000014e+01
2.200000000000000178e+00
3.149999999999999911e+00
-4.660000000000000142e+00
-1.167999999999999972e+01
-5.570000000000000284e+00
2.107000000000000028e+01
-2.721000000000000085e+01
5.025999999999999801e+01
-5.963000000000000256e+01
1.479499999999999886e+02
1.118799999999999955e+02
-5.086999999999999744e+01
2.712000000000000099e+01
1.714000000000000057e+01
-3.069999999999999929e+01
5.200000000000000178e-01
6.620000000000000107e+00
-2.141000000000000014e+01
6.629999999999999893e+00
-2.080000000000000071e+00
-3.379999999999999893e+00
5.620000000000000107e+00
-8.380000000000000782e+00
9.060000000000000497e+00
1.090000000000000036e+01
-1.477999999999999936e+01
1.992999999999999972e+01
9.740000000000000213e+00
-2.464000000000000057e+01
7.759999999999999787e+00
6.280000000000000249e+00
-6.799999999999999822e+00
7.650000000000000355e+00
-7.000000000000000666e-02
1.600000000000000089e+00
1.935999999999999943e+01
-1.092999999999999972e+01
-1.419999999999999929e+00
6.089999999999999858e+00
-1.409999999999999964e+01
1.389000000000000057e+01
9.279999999999999361e+00
-1.552999999999999936e+01
2.267999999999999972e+01
4.580000000000000071e+00
-1.660000000000000142e+01
1.817999999999999972e+01
1.159999999999999920e+00
-1.930000000000000071e+01
7.309999999999999609e+00
-2.410000000000000142e+00
8.529999999999999361e+00
1.339000000000000057e+01
-7.589999999999999858e+00
-7.320000000000000284e+00
-1.700000000000000122e-01
-1.022000000000000064e+01
7.830000000000000071e+00
2.410000000000000142e+00
-1.024000000000000021e+01
2.330000000000000071e+01
-1.455099999999999909e+02
-2.640000000000000124e+00
-5.425000000000000000e+01
2.071000000000000085e+01
-3.982999999999999829e+01
-2.707999999999999829e+01
-4.988000000000000256e+01
-2.833999999999999986e+01
-6.207999999999999829e+01
7.429000000000000625e+01
9.650000000000000000e+01
9.748999999999999488e+01
-6.070000000000000284e+01
-5.899999999999999689e-01
2.189000000000000057e+01
-5.961999999999999744e+01
-9.890000000000000568e+00
-2.407000000000000028e+01
-4.295000000000000284e+01
-1.557000000000000028e+01
-1.067999999999999972e+01
-1.729999999999999982e+00
1.637000000000000099e+01
4.777000000000000313e+01
-7.400000000000000355e+00
-3.930000000000000160e+00
9.269999999999999574e+00
-2.644999999999999929e+01
-4.280000000000000249e+00
3.853999999999999915e+01
-6.554999999999999716e+01
-2.476200000000000045e+02
1.640399999999999920e+02
2.392800000000000011e+02
3.112999999999999901e+01
-3.350000000000000000e+01
-1.923000000000000043e+01
-7.093999999999999773e+01
5.139000000000000057e+01
-1.586999999999999922e+01
6.730000000000000426e+00
8.560000000000000497e+00
-8.509999999999999787e+00
3.160999999999999943e+01
-1.263000000000000078e+01
-8.880000000000000782e+00
1.980000000000000071e+01
-2.758999999999999986e+01
-5.250999999999999801e+01
5.625999999999999801e+01
1.919000000000000128e+01
-4.049999999999999822e+00
-3.117000000000000171e+01
-2.798999999999999844e+01
-2.073000000000000043e+01
7.509999999999999432e+01
-1.349000000000000021e+01
-1.558999999999999986e+01
3.129999999999999893e+00
-7.400000000000000355e+00
-9.060000000000000497e+00
8.390000000000000568e+00
-5.600000000000000533e-01
3.009999999999999787e+00
1.696999999999999886e+01
-1.211999999999999922e+01
1.184999999999999964e+01
4.889999999999999680e+00
-1.701999999999999957e+01
1.751999999999999957e+01
1.041000000000000014e+01
-7.509999999999999787e+00
1.330000000000000071e+00
-1.941000000000000014e+01
-9.899999999999999911e-01
1.493999999999999950e+01
3.140000000000000124e+00
9.439999999999999503e+00
1.107000000000000028e+01
-6.330000000000000071e+00
5.959999999999999964e+00
1.459999999999999964e+00
-1.855999999999999872e+01
1.108999999999999986e+01
6.669999999999999929e+00
6.740000000000000213e+00
2.076999999999999957e+01
4.899999999999999911e-01
-8.320000000000000284e+00
-6.600000000000000311e-01
-1.737999999999999901e+01
-1.360000000000000098e+00
6.059999999999999609e+00
-1.435999999999999943e+01
1.667000000000000171e+01
3.290000000000000036e+00
-2.726000000000000156e+01
1.426999999999999957e+01
1.633999999999999986e+01
-9.769999999999999574e+00
1.627400000000000091e+02
-2.336100000000000136e+02
-1.010199999999999960e+02
-1.860999999999999943e+01
1.876999999999999957e+01
7.487999999999999545e+01
-1.270999999999999943e+02
-8.321999999999999886e+01
-5.428000000000000114e+01
5.325000000000000000e+01
5.129999999999999716e+01
-7.599999999999999645e+00
5.110000000000000320e+00
6.110000000000000320e+00
-2.790000000000000036e+00
-1.342999999999999972e+01
-5.999999999999999778e-02
1.050999999999999979e+01
-2.851999999999999957e+01
9.419999999999999929e+00
1.285999999999999943e+01
-1.828000000000000114e+01
1.603000000000000114e+01
-1.007000000000000028e+01
-2.703000000000000114e+01
2.303000000000000114e+01
3.930000000000000160e+00
-3.468999999999999773e+01
-5.860000000000000320e+00
1.016999999999999993e+01
-4.860000000000000320e+00
2.503999999999999915e+01
4.509999999999999787e+00
-1.589000000000000057e+01
2.176000000000000156e+01
-6.530000000000000249e+00
-1.755999999999999872e+01
1.509999999999999964e+01
-2.029999999999999805e+00
7.929999999999999716e+00
6.440000000000000391e+00
-2.039000000000000057e+01
8.439999999999999503e+00
5.700000000000000178e+00
-9.140000000000000568e+00
1.422000000000000064e+01
-2.899999999999999800e-01
-9.279999999999999361e+00
8.570000000000000284e+00
-4.559999999999999609e+00
-8.289999999999999147e+00
3.839999999999999858e+00
-1.247000000000000064e+01
3.370000000000000107e+00
7.690000000000000391e+00
-1.218999999999999950e+01
7.070000000000000284e+00
-7.000000000000000666e-02
-1.932999999999999829e+01
9.619999999999999218e+00
-1.199999999999999956e-01
-1.739999999999999858e+01
1.493999999999999950e+01
-1.700000000000000122e-01
-8.640000000000000568e+00
1.174000000000000021e+01
-1.026999999999999957e+01
2.032999999999999829e+01
7.190000000000000391e+00
-2.700000000000000178e-01
1.157000000000000028e+01
5.629999999999999893e+00
-1.616000000000000014e+01
1.623999999999999844e+01
3.140000000000000124e+00
-1.449000000000000021e+01
-6.540000000000000036e+00
-5.332999999999999829e+01
2.298000000000000043e+01
1.745399999999999920e+02
3.828000000000000114e+01
-7.959000000000000341e+01
6.330000000000000071e+00
5.830000000000000071e+00
-6.450000000000000178e+00
-4.813000000000000256e+01
-3.560000000000000053e+00
2.655000000000000071e+01
-5.490000000000000213e+00
-3.885999999999999943e+01
4.934000000000000341e+01
-1.510000000000000009e+00
-8.820000000000000284e+00
3.949000000000000199e+01
8.800000000000000711e+00
-3.620000000000000107e+00
1.612999999999999901e+01
-4.330000000000000071e+00
-5.521999999999999886e+01
6.919999999999999929e+00
2.062999999999999901e+01
1.292999999999999972e+01
-1.621999999999999886e+01
-1.798999999999999844e+01
8.640000000000000568e+00
5.320000000000000284e+00
-1.373000000000000043e+01
-1.000000000000000000e+01
1.068999999999999950e+01
-2.642999999999999972e+01
-1.551999999999999957e+01
4.975999999999999801e+01
5.870000000000000107e+00
2.212999999999999901e+01
6.610000000000000320e+00
1.694000000000000128e+01
-5.921000000000000085e+01
1.764999999999999858e+01
2.953999999999999915e+01
-2.237999999999999901e+01
-2.164000000000000057e+01
8.640000000000000568e+00
2.928999999999999915e+01
-1.419999999999999929e+01
-1.047000000000000064e+01
-1.540000000000000036e+00
-4.899999999999999911e-01
-1.274000000000000021e+01
1.471000000000000085e+01
-2.200000000000000011e-01
-1.832999999999999829e+01
7.709999999999999964e+00
-1.060000000000000053e+00
-1.555000000000000071e+01
1.301999999999999957e+01
-5.600000000000000533e-01
-1.257000000000000028e+01
1.391000000000000014e+01
3.370000000000000107e+00
-3.892999999999999972e+01
-1.643300000000000125e+02
1.939600000000000080e+02
5.297999999999999687e+01
6.178000000000000114e+01
-3.589000000000000057e+01
4.280000000000000249e+00
3.770000000000000018e+00
1.796999999999999886e+01
-8.790000000000000568e+01
2.207999999999999829e+01
-1.753999999999999915e+01
-5.592000000000000171e+01
-4.007999999999999829e+01
-1.692999999999999972e+01
-1.255000000000000071e+01
1.966000000000000014e+01
-1.441999999999999993e+01
-2.089999999999999858e+01
-3.092999999999999972e+01
-1.168999999999999950e+01
1.580200000000000102e+02
-8.431000000000000227e+01
-6.009999999999999787e+00
1.239200000000000017e+02
-2.507000000000000028e+01
2.789999999999999858e+01
3.890999999999999659e+01
3.740000000000000213e+00
-5.104999999999999716e+01
1.796999999999999886e+01
9.830000000000000071e+00
-4.824000000000000199e+01
1.635999999999999943e+01
1.100000000000000000e+01
-2.648999999999999844e+01
2.546999999999999886e+01
-9.269999999999999574e+00
-5.184000000000000341e+01
1.241999999999999993e+01
1.753000000000000114e+01
-3.781000000000000227e+01
3.838000000000000256e+01
-5.839999999999999858e+00
-2.746999999999999886e+01
3.292000000000000171e+01
-2.260999999999999943e+01
3.339999999999999858e+00
2.862000000000000099e+01
-3.300999999999999801e+01
1.013000000000000078e+01
2.858999999999999986e+01
-2.669000000000000128e+01
1.751999999999999957e+01
2.453999999999999915e+01
-2.871000000000000085e+01
2.462999999999999901e+01
2.510000000000000142e+01
-2.778000000000000114e+01
1.546000000000000085e+01
1.971999999999999886e+01
-2.594000000000000128e+01
1.322000000000000064e+01
2.255000000000000071e+01
-2.241000000000000014e+01
7.339999999999999858e+00
2.223000000000000043e+01
-2.164999999999999858e+01
7.099999999999999645e+00
2.008999999999999986e+01
-2.448999999999999844e+01
-2.180000000000000160e+00
2.300000000000000000e+01
-1.247000000000000064e+01
1.320000000000000062e+00
8.880000000000000782e+00
-1.898000000000000043e+01
1.106000000000000050e+01
1.185999999999999943e+01
-2.455999999999999872e+01
2.676999999999999957e+01
1.530000000000000071e+01
-3.057000000000000028e+01
1.425000000000000000e+01
-2.289999999999999858e+01
-3.167000000000000171e+01
-1.755999999999999872e+01
1.180400000000000063e+02
-2.912000000000000099e+01
-1.928000000000000114e+01
-5.053999999999999915e+01
-3.661999999999999744e+01
1.269800000000000040e+02
-1.076299999999999955e+02
1.523199999999999932e+02
2.175399999999999920e+02
-1.063499999999999943e+02
-7.804999999999999716e+01
6.631999999999999318e+01
-1.131700000000000017e+02
5.431000000000000227e+01
2.071999999999999886e+01
3.889999999999999858e+01
-1.639600000000000080e+02
1.327199999999999989e+02
-1.061999999999999922e+01
-2.176999999999999957e+01
1.218999999999999950e+01
2.742000000000000171e+01
5.846999999999999886e+01
2.319999999999999840e+00
-2.376999999999999957e+01
6.269999999999999574e+00
3.932000000000000028e+01
-2.057000000000000028e+01
7.023999999999999488e+01
-4.781000000000000227e+01
-3.850000000000000089e+00
3.725000000000000000e+01
-4.907000000000000028e+01
8.378000000000000114e+01
-2.177299999999999898e+02
-1.010000000000000009e+00
1.203700000000000045e+02
3.550999999999999801e+01
3.475000000000000000e+01
5.381000000000000227e+01
-1.050199999999999960e+02
3.418999999999999773e+01
4.489000000000000057e+01
-1.009999999999999964e+01
1.262399999999999949e+02
-4.096999999999999886e+01
-7.398000000000000398e+01
1.789000000000000057e+01
5.247999999999999687e+01
1.167999999999999972e+01
-2.842000000000000171e+01
-2.569999999999999840e+00
-2.629999999999999893e+00
-3.407000000000000028e+01
-8.000000000000000444e-01
-3.879999999999999893e+00
-9.359999999999999432e+00
4.959999999999999964e+00
8.726999999999999602e+01
-5.370000000000000107e+00
-1.510000000000000009e+00
-1.016999999999999993e+01
1.308999999999999986e+01
3.331000000000000227e+01
4.230000000000000426e+00
-6.245000000000000284e+01
-8.471999999999999886e+01
9.864000000000000057e+01
1.141899999999999977e+02
4.525000000000000000e+01
-4.240000000000000213e+00
-1.243999999999999950e+01
1.828000000000000114e+01
3.840999999999999659e+01
-1.505000000000000071e+01
-1.680000000000000071e+01
-3.974000000000000199e+01
-1.998000000000000043e+01
1.485999999999999943e+01
2.910000000000000142e+00
-2.012999999999999901e+01
-1.580000000000000071e+01
4.040000000000000036e+00
4.390999999999999659e+01
-7.209999999999999964e+00
-7.650000000000000355e+00
7.950000000000000178e+00
7.459999999999999964e+00
-1.234999999999999964e+01
1.531000000000000050e+01
3.160000000000000142e+00
-2.232000000000000028e+01
1.475999999999999979e+01
-3.300000000000000155e-01
-4.900000000000000355e+00
6.950000000000000178e+00
4.500000000000000111e-01
1.363000000000000078e+01
9.330000000000000071e+00
7.530000000000000249e+00
-8.679999999999999716e+00
-5.330000000000000071e+00
1.451999999999999957e+01
-8.839999999999999858e+00
1.727199999999999989e+02
-2.838700000000000045e+02
4.342999999999999972e+01
3.627000000000000313e+01
1.810000000000000142e+01
7.759999999999999787e+00
4.521999999999999886e+01
-1.614999999999999858e+01
-2.898999999999999844e+01
-2.209999999999999964e+00
7.110000000000000320e+00
-8.349999999999999645e+00
1.664000000000000057e+01
5.629999999999999893e+00
-6.299999999999999822e+00
1.352999999999999936e+01
-1.370000000000000107e+00
-1.000000000000000000e+01
7.339999999999999858e+00
-1.010000000000000009e+00
-8.509999999999999787e+00
4.480000000000000426e+00
9.100000000000000311e-01
-1.117999999999999972e+01
1.050000000000000044e+00
9.370000000000000284e+01
4.954999999999999716e+01
4.010000000000000142e+01
1.655999999999999872e+01
7.543000000000000682e+01
-7.554999999999999716e+01
-8.112000000000000455e+01
1.523899999999999864e+02
2.835000000000000142e+01
-1.014000000000000057e+01
-8.580000000000000071e+00
-1.155000000000000071e+01
2.629999999999999893e+00
-1.657000000000000028e+01
3.990000000000000213e+00
-4.410000000000000142e+00
-1.041999999999999993e+01
4.870000000000000107e+00
-1.020000000000000018e+00
-1.182000000000000028e+01
1.538000000000000078e+01
-9.699999999999999289e+00
-5.299999999999999822e+00
1.016000000000000014e+01
-7.860000000000000320e+00
1.000000000000000000e+01
6.419999999999999929e+00
-5.570000000000000284e+00
1.935999999999999943e+01
7.690000000000000391e+00
-1.583999999999999986e+01
1.460999999999999943e+01
1.008000000000000007e+01
-1.837000000000000099e+01
1.400999999999999979e+01
8.339999999999999858e+00
-1.234999999999999964e+01
2.250000000000000000e+01
-4.370000000000000107e+00
-9.179999999999999716e+00
8.029999999999999361e+00
-9.200000000000000400e-01
-9.970000000000000639e+00
8.660000000000000142e+00
-2.240000000000000213e+00
-1.041000000000000014e+01
2.740000000000000213e+00
-6.599999999999999645e+00
-7.480000000000000426e+00
6.959999999999999964e+00
-1.669999999999999929e+00
2.180000000000000160e+00
-2.200000000000000011e-01
-1.033999999999999986e+01
1.577999999999999936e+01
2.020000000000000018e+00
-1.038000000000000078e+01
1.218999999999999950e+01
2.810000000000000053e+00
-2.464999999999999858e+01
8.640000000000000568e+00
-1.201999999999999957e+01
5.690000000000000391e+00
-2.237899999999999920e+02
2.088199999999999932e+02
-1.466899999999999977e+02
3.550000000000000000e+01
3.078999999999999915e+01
2.479999999999999982e+00
4.118999999999999773e+01
-3.813000000000000256e+01
3.180999999999999872e+01
4.493999999999999773e+01
-1.698999999999999844e+01
-1.533999999999999986e+01
8.300000000000000711e+00
-9.779999999999999361e+00
4.649000000000000199e+01
5.771999999999999886e+01
-8.787999999999999545e+01
-4.539000000000000057e+01
-2.439999999999999947e+00
-1.590000000000000080e+00
1.346000000000000085e+01
1.478999999999999915e+01
-1.325000000000000000e+01
-5.300000000000000266e-01
2.248000000000000043e+01
6.049999999999999822e+00
-4.009000000000000341e+01
-1.552999999999999936e+01
3.540000000000000036e+00
-2.101000000000000156e+01
6.000000000000000000e+00
7.392000000000000171e+01
-5.449000000000000199e+01
4.709999999999999964e+00
-4.199999999999999845e-01
1.471000000000000085e+01
2.183999999999999986e+01
-1.367999999999999972e+01
2.091000000000000014e+01
1.370000000000000107e+00
-1.360999999999999943e+01
4.897999999999999687e+01
2.096000000000000085e+01
-4.652000000000000313e+01
2.289000000000000057e+01
-7.181000000000000227e+01
1.178999999999999915e+01
-8.259000000000000341e+01
2.910000000000000142e+01
3.064999999999999858e+01
-8.196999999999999886e+01
7.395999999999999375e+01
-6.610000000000000320e+00
-4.074000000000000199e+01
5.536999999999999744e+01
3.471000000000000085e+01
1.591000000000000014e+01
-2.120699999999999932e+02
9.457999999999999829e+01
1.215100000000000051e+02
-1.015000000000000036e+01
7.065000000000000568e+01
2.742000000000000171e+01
1.900000000000000022e-01
-4.152000000000000313e+01
-1.319999999999999929e+01
8.004000000000000625e+01
2.560000000000000053e+00
1.298000000000000043e+01
-2.317999999999999972e+01
-1.439000000000000057e+01
-8.600000000000000000e+01
-4.999000000000000199e+01
-1.113000000000000078e+01
3.475000000000000000e+01
-2.982999999999999829e+01
-3.542000000000000171e+01
-5.320000000000000284e+01
1.851299999999999955e+02
-4.321000000000000085e+01
-5.790000000000000036e+00
-1.067000000000000028e+02
-5.729999999999999716e+01
-7.056999999999999318e+01
2.064199999999999875e+02
8.768000000000000682e+01
-2.217000000000000171e+01
-1.049699999999999989e+02
-2.175000000000000000e+01
-9.070000000000000284e+00
2.557999999999999829e+01
-5.190000000000000391e+00
6.843000000000000682e+01
2.109600000000000080e+02
-7.890999999999999659e+01
-5.718999999999999773e+01
-1.274000000000000021e+01
-9.330000000000000071e+00
7.620000000000000107e+00
-5.260000000000000142e+01
2.098999999999999844e+01
-8.960000000000000853e+00
2.439000000000000057e+01
3.429999999999999716e+01
-1.892000000000000171e+01
2.076000000000000156e+01
5.570000000000000284e+01
-1.273400000000000034e+02
3.467000000000000171e+01
5.409000000000000341e+01
1.521000000000000085e+01
6.481999999999999318e+01
-1.340900000000000034e+02
1.248400000000000034e+02
5.078000000000000114e+01
-2.466100000000000136e+02
-1.674499999999999886e+02
-3.060000000000000142e+01
7.526000000000000512e+01
3.295000000000000284e+01
-1.036200000000000045e+02
7.251999999999999602e+01
-1.969999999999999929e+01
-1.098000000000000043e+01
9.220000000000000639e+00
1.340000000000000080e+00
-3.180000000000000071e+01
-3.419999999999999929e+00
3.100000000000000089e+00
1.020000000000000000e+02
2.423000000000000043e+01
4.019999999999999574e+00
-7.096999999999999886e+01
4.963000000000000256e+01
-5.259999999999999787e+00
-4.165999999999999659e+01
8.000000000000000444e-01
7.201999999999999602e+01
-6.715999999999999659e+01
-1.467999999999999972e+01
3.972999999999999687e+01
4.789000000000000057e+01
-3.925000000000000000e+01
-1.978000000000000114e+01
2.553000000000000114e+01
7.309999999999999609e+00
-1.324000000000000021e+01
-3.075000000000000000e+01
4.220000000000000284e+01
4.378000000000000114e+01
-1.157600000000000051e+02
2.791000000000000014e+01
2.133999999999999986e+01
1.991000000000000014e+01
6.709999999999999432e+01
-3.231000000000000227e+01
-5.620000000000000107e+00
-3.759999999999999787e+00
8.410000000000000142e+00
-1.932999999999999829e+01
-4.902000000000000313e+01
1.798000000000000043e+01
3.652000000000000313e+01
7.040000000000000036e+00
7.429999999999999716e+00
6.948999999999999488e+01
-1.249000000000000021e+01
-4.730000000000000426e+00
1.590000000000000080e+00
-8.000000000000000167e-02
7.730000000000000426e+00
6.490000000000000568e+01
-2.344999999999999929e+01
-1.175000000000000000e+01
1.864999999999999858e+01
-6.313000000000000256e+01
4.660000000000000142e+00
5.185999999999999943e+01
-7.279000000000000625e+01
-9.550000000000000711e+00
1.044999999999999929e+01
-2.517999999999999972e+01
-1.760000000000000142e+01
1.023000000000000043e+01
-4.309999999999999609e+00
2.307000000000000028e+01
-4.918999999999999773e+01
-1.807000000000000028e+01
4.820000000000000284e+01
2.051999999999999957e+01
-4.560999999999999943e+01
3.264000000000000057e+01
1.423000000000000043e+01
-3.779999999999999805e+00
-2.770000000000000018e+00
-8.160000000000000142e+00
-1.900000000000000000e+01
1.101999999999999957e+01
2.970000000000000195e+00
-1.275999999999999979e+01
-2.700000000000000178e-01
-7.169999999999999929e+00
-8.949999999999999289e+00
1.441999999999999993e+01
1.790000000000000036e+00
-8.900000000000000133e-01
-1.293999999999999950e+01
8.789999999999999147e+00
1.553999999999999915e+01
-8.330000000000000071e+00
-3.410000000000000142e+00
2.091000000000000014e+01
3.939999999999999947e+00
-6.800000000000000488e-01
4.749000000000000199e+01
-9.909999999999999432e+01
-2.864000000000000057e+01
-8.150000000000000355e+00
-1.771000000000000085e+01
6.443999999999999773e+01
2.726999999999999957e+01
1.632999999999999829e+01
-4.090999999999999659e+01
-1.475000000000000000e+01
2.235000000000000142e+01
2.471000000000000085e+01
-9.062000000000000455e+01
-2.680000000000000160e+00
7.721999999999999886e+01
2.098300000000000125e+02
-8.895000000000000284e+01
-3.388000000000000256e+01
4.453000000000000114e+01
3.235000000000000142e+01
-1.191999999999999993e+01
-1.869000000000000128e+01
3.189999999999999858e+01
-6.024000000000000199e+01
8.860999999999999943e+01
-3.557000000000000028e+01
-3.265999999999999659e+01
-1.350999999999999979e+01
2.065099999999999909e+02
-8.904000000000000625e+01
-1.249500000000000028e+02
8.289999999999999147e+00
4.992999999999999972e+01
9.354000000000000625e+01
-4.960000000000000142e+01
-8.067000000000000171e+01
8.003000000000000114e+01
1.272399999999999949e+02
8.170999999999999375e+01
-4.110000000000000320e+00
1.365000000000000036e+01
-4.504999999999999716e+01
8.439000000000000057e+01
5.924000000000000199e+01
2.560299999999999727e+02
-1.413499999999999943e+02
-3.564000000000000057e+01
8.759999999999999432e+01
7.689000000000000057e+01
-6.512000000000000455e+01
-1.566000000000000014e+01
-1.463000000000000078e+01
5.288000000000000256e+01
-3.995000000000000284e+01
-4.267000000000000171e+01
-4.553000000000000114e+01
8.039000000000000057e+01
1.291999999999999993e+01
-6.254999999999999716e+01
-3.624000000000000199e+01
-1.461999999999999922e+01
3.010999999999999943e+01
4.171000000000000085e+01
2.823999999999999844e+01
-1.032399999999999949e+02
-1.973000000000000043e+01
2.294999999999999929e+01
-3.400000000000000000e+01
2.642000000000000171e+01
-3.428999999999999915e+01
6.002000000000000313e+01
-6.032000000000000028e+01
-8.269999999999999574e+00
9.269999999999999574e+00
6.750000000000000000e+00
1.040000000000000036e+01
3.310000000000000053e+00
-2.651999999999999957e+01
1.320000000000000062e+00
1.903999999999999915e+01
1.600000000000000000e+01
-6.639999999999999680e+00
-1.378400000000000034e+02
6.679999999999999716e+00
7.031000000000000227e+01
3.231000000000000227e+01
4.139000000000000057e+01
-7.589999999999999858e+00
1.901000000000000156e+01
2.109999999999999876e+00
-2.419000000000000128e+01
1.234999999999999964e+01
-1.939999999999999947e+00
-9.839999999999999858e+00
-4.279999999999999716e+01
-5.492000000000000171e+01
9.071999999999999886e+01
1.079699999999999989e+02
-2.939999999999999858e+01
-3.536999999999999744e+01
-1.751999999999999957e+01
3.140000000000000124e+00
-1.105000000000000071e+01
-4.842999999999999972e+01
1.476999999999999957e+01
1.040199999999999960e+02
8.089999999999999858e+00
-4.770000000000000284e+01
-5.743999999999999773e+01
-6.450000000000000178e+00
1.855000000000000071e+01
-3.660000000000000142e+00
2.607000000000000028e+01
6.929999999999999716e+00
-1.583000000000000007e+01
9.279999999999999361e+00
-5.000000000000000278e-02
-5.410000000000000142e+00
-1.360000000000000098e+00
-2.287000000000000099e+01
1.432000000000000028e+01
2.879999999999999893e+00
-3.870000000000000107e+00
4.860000000000000320e+00
1.689999999999999947e+00
-1.276999999999999957e+01
-2.389000000000000057e+01
1.832999999999999829e+01
1.789999999999999858e+01
-2.999999999999999889e-02
-1.157000000000000028e+01
2.114999999999999858e+01
-1.455000000000000071e+01
-2.970000000000000195e+00
9.789999999999999147e+00
3.100000000000000089e+00
-9.199999999999999289e+00
-2.180000000000000160e+00
6.099999999999999867e-01
-4.120000000000000107e+00
1.024000000000000021e+01
-1.653000000000000114e+01
1.241000000000000014e+01
8.339999999999999858e+00
-1.485999999999999943e+01
9.839999999999999858e+00
-7.820000000000000284e+00
1.908199999999999932e+02
-1.316899999999999977e+02
5.789999999999999858e+01
-3.720000000000000195e+00
3.750000000000000000e+00
-8.100000000000000533e-01
9.189999999999999503e+00
4.790000000000000036e+00
-1.000999999999999979e+01
-2.346999999999999886e+01
3.910000000000000142e+00
1.390000000000000036e+01
-1.355000000000000071e+01
1.216000000000000014e+01
-1.071000000000000085e+01
1.909999999999999920e+00
4.795000000000000284e+01
-5.010000000000000142e+01
-7.098999999999999488e+01
-6.246000000000000085e+01
5.631000000000000227e+01
-1.158999999999999986e+01
-1.855999999999999872e+01
-6.854999999999999716e+01
1.025000000000000000e+01
6.421999999999999886e+01
-8.119999999999999218e+00
-3.825000000000000000e+01
1.360000000000000098e+00
1.973000000000000043e+01
9.619999999999999218e+00
3.502000000000000313e+01
-4.731000000000000227e+01
5.250999999999999801e+01
-3.865999999999999659e+01
3.003000000000000114e+01
-1.149000000000000021e+01
-8.710000000000000853e+00
-3.191000000000000014e+01
-3.023999999999999844e+01
2.296000000000000085e+01
8.789999999999999147e+00
2.017999999999999972e+01
-1.426999999999999957e+01
-1.976999999999999957e+01
3.636999999999999744e+01
9.753000000000000114e+01
-4.754999999999999716e+01
-1.459099999999999966e+02
-2.196999999999999886e+01
6.050000000000000000e+01
-6.382000000000000028e+01
3.717999999999999972e+01
-7.051000000000000512e+01
1.058400000000000034e+02
-8.020999999999999375e+01
-6.039000000000000057e+01
8.782999999999999829e+01
4.817999999999999972e+01
-4.228999999999999915e+01
-1.070199999999999960e+02
1.441500000000000057e+02
2.055600000000000023e+02
-1.432800000000000011e+02
-1.024300000000000068e+02
1.688499999999999943e+02
-5.820000000000000284e+01
8.148999999999999488e+01
-4.763000000000000256e+01
6.756999999999999318e+01
-5.511999999999999744e+01
-5.771999999999999886e+01
1.668000000000000114e+02
8.392000000000000171e+01
-9.745000000000000284e+01
-1.683799999999999955e+02
-1.351699999999999875e+02
4.291700000000000159e+02
3.952000000000000313e+01
-2.264000000000000057e+01
1.054099999999999966e+02
-1.354000000000000057e+02
-6.257000000000000028e+01
-6.542000000000000171e+01
2.664999999999999858e+01
1.538700000000000045e+02
-3.871000000000000085e+01
-2.030999999999999872e+01
-5.219999999999999751e+00
4.034000000000000341e+01
-4.361999999999999744e+01
-4.570000000000000284e+00
2.326999999999999957e+01
5.271999999999999886e+01
2.528000000000000114e+01
-3.017000000000000171e+01
-5.999999999999999778e-02
-1.055000000000000071e+01
-5.543999999999999773e+01
1.241599999999999966e+02
-1.006000000000000050e+01
-6.770999999999999375e+01
-1.156200000000000045e+02
1.925000000000000000e+02
-7.526999999999999602e+01
4.265999999999999659e+01
-1.305800000000000125e+02
1.208599999999999994e+02
1.190100000000000051e+02
-2.017000000000000171e+01
-7.115999999999999659e+01
5.928999999999999915e+01
-5.603000000000000114e+01
5.331000000000000227e+01
-1.158999999999999986e+01
1.050000000000000000e+01
-4.200000000000000178e+00
6.049999999999999822e+00
2.317000000000000171e+01
1.742000000000000171e+01
-5.190000000000000391e+00
1.407000000000000028e+01
-2.198000000000000043e+01
-5.320000000000000284e+01
-3.247999999999999687e+01
2.310000000000000142e+01
5.028999999999999915e+01
3.310999999999999943e+01
-1.944000000000000128e+01
-4.759000000000000341e+01
-8.956000000000000227e+01
-4.750999999999999801e+01
2.631600000000000250e+02
-2.794200000000000159e+02
-4.797999999999999687e+01
3.847999999999999687e+01
1.113100000000000023e+02
-1.745000000000000000e+02
2.746200000000000045e+02
6.061999999999999744e+01
-1.160999999999999943e+01
7.004000000000000625e+01
3.750000000000000000e+01
-8.759999999999999432e+01
4.896999999999999886e+01
4.211999999999999744e+01
-8.550000000000000711e+00
3.300000000000000155e-01
-1.737999999999999901e+01
-3.699999999999999956e-01
5.992999999999999972e+01
-1.969000000000000128e+01
-7.181000000000000227e+01
-3.162999999999999901e+01
2.242999999999999972e+01
3.319999999999999840e+00
-5.500999999999999801e+01
-4.053999999999999915e+01
1.022300000000000040e+02
-3.410000000000000142e+01
-3.421000000000000085e+01
-4.997999999999999687e+01
-1.835999999999999943e+01
-2.666000000000000014e+01
-2.295300000000000011e+02
6.889000000000000057e+01
-6.660000000000000142e+00
1.574499999999999886e+02
1.726999999999999957e+01
-7.392000000000000171e+01
-3.252000000000000313e+01
9.009999999999999787e+00
-7.589999999999999858e+00
2.600000000000000089e+00
2.414000000000000057e+01
-3.570000000000000284e+01
-2.057000000000000028e+01
-1.423000000000000043e+01
-4.690000000000000391e+00
2.819999999999999840e+00
-1.075999999999999979e+01
-2.719000000000000128e+01
-1.559999999999999964e+01
2.987999999999999901e+01
-8.299999999999999600e-01
-2.535000000000000142e+01
-5.850000000000000000e+01
7.712000000000000455e+01
-1.094999999999999929e+01
-4.900000000000000355e+00
8.509999999999999787e+00
-1.258000000000000007e+01
-1.150000000000000000e+01
1.066000000000000014e+01
-1.543999999999999950e+01
-2.037999999999999901e+01
4.367000000000000171e+01
-8.570000000000000284e+00
5.036999999999999744e+01
-7.320000000000000284e+00
-3.546999999999999886e+01
4.500999999999999801e+01
-2.914999999999999858e+01
-1.919999999999999929e+01
1.705999999999999872e+01
-1.358999999999999986e+01
-1.982000000000000028e+01
-1.648000000000000043e+01
2.082999999999999829e+01
2.160000000000000142e+01
1.757999999999999829e+01
-3.838000000000000256e+01
-6.800000000000000488e-01
-1.209999999999999964e+00
7.490000000000000213e+00
-2.360999999999999943e+01
-2.389000000000000057e+01
3.289000000000000057e+01
4.057999999999999829e+01
-8.939999999999999503e+00
-2.521999999999999886e+01
-3.215999999999999659e+01
4.879999999999999716e+01
2.512999999999999901e+01
-1.452999999999999936e+01
1.370000000000000107e+00
-1.322000000000000064e+01
6.129999999999999893e+00
-2.330000000000000071e+00
-3.222999999999999687e+01
-5.150000000000000355e+00
-1.450000000000000000e+01
1.516000000000000014e+01
-1.503999999999999915e+01
-3.044999999999999929e+01
2.359999999999999876e+00
5.440999999999999659e+01
3.754999999999999716e+01
2.416000000000000014e+01
-3.581000000000000227e+01
-4.479999999999999716e+01
6.496999999999999886e+01
-1.732000000000000028e+01
2.066000000000000014e+01
-7.150000000000000355e+00
-2.378000000000000114e+01
2.300000000000000000e+01
7.200000000000000178e+00
-3.189999999999999947e+00
-2.058999999999999986e+01
5.110000000000000320e+00
4.268999999999999773e+01
-2.500000000000000000e+00
-4.034000000000000341e+01
-2.742000000000000171e+01
3.647999999999999687e+01
4.849999999999999645e+00
-2.335999999999999943e+01
-3.209999999999999964e+00
3.029999999999999805e+00
3.479999999999999716e+01
1.407000000000000028e+01
-2.580000000000000071e+01
-3.339000000000000057e+01
3.520000000000000284e+01
3.140000000000000124e+00
-2.332000000000000028e+01
2.189999999999999947e+00
-4.707000000000000028e+01
3.479999999999999716e+01
4.878999999999999915e+01
3.950000000000000000e+01
-3.850000000000000000e+01
-7.389999999999999680e+00
2.621999999999999886e+01
-1.310000000000000053e+00
-2.398999999999999844e+01
-2.544999999999999929e+01
1.871000000000000085e+01
1.766000000000000014e+01
-2.640000000000000124e+00
-1.388000000000000078e+01
6.314999999999999858e+01
-1.291000000000000014e+01
-2.876999999999999957e+01
-3.839999999999999858e+00
-2.855000000000000071e+01
2.237999999999999901e+01
4.043999999999999773e+01
-1.108999999999999986e+01
-1.164000000000000057e+01
-3.139000000000000057e+01
9.169999999999999929e+00
7.780000000000000249e+00
-2.644000000000000128e+01
8.570000000000000284e+00
-2.430999999999999872e+01
2.294000000000000128e+01
-1.250000000000000000e+01
-4.396000000000000085e+01
2.262000000000000099e+01
3.087999999999999901e+01
2.244999999999999929e+01
3.859999999999999876e+00
-5.910000000000000142e+00
-3.640999999999999659e+01
1.418999999999999950e+01
1.614999999999999858e+01
7.230000000000000426e+00
-2.275000000000000000e+01
-3.600999999999999801e+01
4.577000000000000313e+01
-2.014000000000000057e+01
-3.549999999999999822e+00
-1.258999999999999986e+01
3.140000000000000124e+00
3.275000000000000000e+01
-5.230000000000000426e+00
-5.339999999999999858e+00
-3.320000000000000284e+01
5.500000000000000444e-01
4.842999999999999972e+01
-1.076999999999999957e+01
9.919999999999999929e+00
-4.260000000000000142e+01
6.820000000000000284e+00
2.223999999999999844e+01
-1.846999999999999886e+01
9.220000000000000639e+00
-1.432000000000000028e+01
1.375999999999999979e+01
-9.039999999999999147e+00
2.700000000000000178e-01
-1.926999999999999957e+01
2.029999999999999805e+00
3.371999999999999886e+01
2.205000000000000071e+01
-2.730000000000000071e+01
-4.696000000000000085e+01
1.896999999999999886e+01
2.979999999999999982e+00
1.880999999999999872e+01
-4.440000000000000391e+00
-4.738000000000000256e+01
3.053999999999999915e+01
-1.673000000000000043e+01
1.596000000000000085e+01
1.709999999999999964e+00
-3.504999999999999716e+01
3.311999999999999744e+01
-1.880999999999999872e+01
-8.526000000000000512e+01
4.340999999999999659e+01
9.890000000000000568e+00
-4.209999999999999964e+00
5.807000000000000028e+01
-3.239000000000000057e+01
-3.890000000000000124e+00
1.215000000000000036e+01
2.600000000000000000e+01
1.830000000000000071e+00
-2.019000000000000128e+01
9.589999999999999858e+00
-2.244999999999999929e+01
-2.303000000000000114e+01
2.039000000000000057e+01
-5.650000000000000355e+00
-2.007000000000000028e+01
-2.885999999999999943e+01
1.501999999999999957e+01
3.546999999999999886e+01
-2.226000000000000156e+01
-5.428000000000000114e+01
2.853000000000000114e+01
1.082000000000000028e+01
-1.284999999999999964e+01
-7.610000000000000320e+00
-7.889999999999999680e+00
1.901999999999999957e+01
-2.759999999999999787e+00
-1.671000000000000085e+01
6.790000000000000036e+00
-1.006000000000000050e+01
2.062000000000000099e+01
1.309999999999999964e+01
6.899999999999999467e-01
1.346000000000000085e+01
-1.305000000000000071e+01
-4.900000000000000355e+00
-3.681000000000000227e+01
3.450999999999999801e+01
2.741000000000000014e+01
-3.141000000000000014e+01
-1.241999999999999993e+01
3.927000000000000313e+01
-1.208999999999999986e+01
-9.720000000000000639e+00
-3.235999999999999943e+01
-3.342000000000000171e+01
4.070000000000000284e+01
-4.080000000000000071e+00
-7.679999999999999716e+00
-1.612999999999999901e+01
-3.396000000000000085e+01
1.810000000000000053e+00
4.253000000000000114e+01
-5.003999999999999915e+01
3.570000000000000284e+01
-5.690000000000000391e+00
-2.408999999999999986e+01
-1.099000000000000021e+01
4.882000000000000028e+01
2.442000000000000171e+01
-2.035000000000000142e+01
-1.744000000000000128e+01
-2.470000000000000195e+00
1.728000000000000114e+01
-1.056000000000000050e+01
1.113000000000000078e+01
-2.514000000000000057e+01
7.634000000000000341e+01
9.910000000000000142e+00
1.049000000000000021e+01
2.503000000000000114e+01
-5.828999999999999915e+01
4.647999999999999687e+01
-9.699999999999999734e-01
3.379999999999999716e+01
2.330000000000000071e+00
-4.895000000000000284e+01
5.314000000000000057e+01
-1.353999999999999915e+01
1.621000000000000085e+01
2.233999999999999986e+01
-4.727000000000000313e+01
6.096999999999999886e+01
-2.192999999999999972e+01
-5.299999999999999822e+00
1.705999999999999872e+01
-7.779000000000000625e+01
5.909000000000000341e+01
-1.380000000000000071e+01
1.022000000000000064e+01
1.456000000000000050e+01
-6.640999999999999659e+01
6.990000000000000568e+01
-4.139999999999999680e+00
-2.912000000000000099e+01
1.408999999999999986e+01
-4.589999999999999858e+01
6.864000000000000057e+01
-2.928000000000000114e+01
-6.950000000000000178e+00
2.475000000000000000e+01
-1.928999999999999915e+01
3.119999999999999929e+01
9.119999999999999218e+00
-2.426000000000000156e+01
1.297000000000000064e+01
-3.779999999999999716e+01
4.904999999999999716e+01
5.769999999999999574e+00
-2.639999999999999858e+01
3.295000000000000284e+01
-1.664999999999999858e+01
2.064999999999999858e+01
1.066000000000000014e+01
-1.862000000000000099e+01
1.213000000000000078e+01
-2.080000000000000071e+01
-1.589000000000000057e+01
3.917000000000000171e+01
-3.971999999999999886e+01
-8.934000000000000341e+01
1.568499999999999943e+02
3.350999999999999801e+01
1.242999999999999972e+01
8.499999999999999778e-01
-4.603000000000000114e+01
-1.388000000000000078e+01
-3.689999999999999947e+00
2.278000000000000114e+01
-1.748000000000000043e+01
-9.509999999999999787e+00
2.112999999999999901e+01
7.980000000000000426e+00
1.317999999999999972e+01
1.359999999999999964e+01
-4.757000000000000028e+01
-2.585999999999999943e+01
3.029999999999999805e+00
3.946000000000000085e+01
4.957999999999999829e+01
-4.081000000000000227e+01
-2.755000000000000071e+01
-1.621000000000000085e+01
8.009999999999999787e+00
-8.750000000000000000e+00
2.303999999999999915e+01
-2.696999999999999886e+01
-6.990000000000000213e+00
2.880000000000000071e+01
-4.390999999999999659e+01
5.685999999999999943e+01
-2.435000000000000142e+01
1.161999999999999922e+01
4.318999999999999773e+01
-3.253000000000000114e+01
1.022000000000000064e+01
-5.150000000000000355e+00
-9.289999999999999147e+00
7.339999999999999858e+00
-1.050999999999999979e+01
3.254999999999999716e+01
1.469999999999999973e+00
-5.228999999999999915e+01
1.801000000000000156e+01
-4.243999999999999773e+01
4.040000000000000036e+00
1.701999999999999957e+01
2.009999999999999787e+00
3.329999999999999716e+01
-3.028999999999999915e+01
-1.189999999999999947e+00
4.030000000000000249e+00
-7.240000000000000213e+00
1.067999999999999972e+01
-4.669999999999999929e+00
-3.103999999999999915e+01
1.717999999999999972e+01
-2.139000000000000057e+01
-4.081000000000000227e+01
1.503999999999999915e+01
1.910999999999999943e+01
2.153999999999999915e+01
-7.214000000000000057e+01
3.721999999999999886e+01
-1.067999999999999972e+01
5.129999999999999893e+00
3.842999999999999972e+01
1.471000000000000085e+01
-4.954999999999999716e+01
5.600000000000000000e+01
-3.151000000000000156e+01
-3.871000000000000085e+01
-3.430000000000000160e+00
1.489999999999999991e+00
-1.178999999999999915e+01
-7.650000000000000355e+00
7.679999999999999716e+00
8.039999999999999147e+00
-5.820000000000000284e+00
2.305999999999999872e+01
1.032000000000000028e+01
-3.496999999999999886e+01
4.671000000000000085e+01
-2.520000000000000018e+00
-1.930999999999999872e+01
3.590999999999999659e+01
1.951999999999999957e+01
-3.799000000000000199e+01
7.240000000000000213e+00
-1.191000000000000014e+01
-2.944999999999999929e+01
2.485000000000000142e+01
-5.600000000000000533e-01
6.570000000000000284e+00
-4.549999999999999822e+00
-4.740000000000000213e+00
4.429999999999999716e+00
1.546000000000000085e+01
-3.504999999999999716e+01
1.623999999999999844e+01
-5.110000000000000320e+00
-8.404000000000000625e+01
9.720999999999999375e+01
-9.140000000000000568e+00
-3.878999999999999915e+01
3.264999999999999858e+01
1.525999999999999979e+01
3.752000000000000313e+01
-2.567999999999999972e+01
-1.263000000000000078e+01
-5.980000000000000426e+00
-1.778999999999999915e+01
1.628000000000000114e+01
3.062999999999999901e+01
-2.210999999999999943e+01
-6.509999999999999787e+00
-1.330000000000000071e+00
-4.031000000000000227e+01
5.249000000000000199e+01
-1.171000000000000085e+01
3.470000000000000195e+00
-3.020000000000000018e+00
-2.880999999999999872e+01
3.202000000000000313e+01
2.108999999999999986e+01
-4.954999999999999716e+01
2.307000000000000028e+01
-1.090000000000000080e+00
-2.899999999999999800e-01
2.364999999999999858e+01
-2.923000000000000043e+01
2.044999999999999929e+01
8.800000000000000711e+00
-5.085000000000000142e+01
3.041000000000000014e+01
2.328000000000000114e+01
-3.657999999999999829e+01
-1.020000000000000018e+00
-2.580999999999999872e+01
1.289000000000000057e+01
-1.410999999999999943e+01
1.676999999999999957e+01
4.518999999999999773e+01
-1.411999999999999922e+01
-4.786999999999999744e+01
3.500000000000000000e+00
7.360000000000000320e+00
2.729999999999999982e+00
1.735999999999999943e+01
-3.457000000000000028e+01
3.452000000000000313e+01
-5.599999999999999645e+00
-4.335999999999999943e+01
3.579999999999999716e+01
7.849999999999999645e+00
-2.621999999999999886e+01
2.460999999999999943e+01
-1.250999999999999979e+01
1.540000000000000036e+00
1.084999999999999964e+01
-1.982999999999999829e+01
2.946999999999999886e+01
1.148000000000000043e+01
-2.000000000000000000e+01
2.989000000000000057e+01
2.270000000000000018e+00
-2.835000000000000142e+01
1.193999999999999950e+01
-6.299999999999999822e+00
-1.100000000000000000e+01
9.869999999999999218e+00
-1.250000000000000000e+01
8.499999999999999778e-01
9.259999999999999787e+00
-1.807000000000000028e+01
2.014999999999999858e+01
3.100000000000000089e+00
-2.319999999999999929e+01
1.939999999999999858e+01
-3.609999999999999876e+00
-1.305000000000000071e+01
1.397000000000000064e+01
-1.036999999999999922e+01
1.703000000000000114e+01
4.910000000000000142e+00
-2.535000000000000142e+01
1.667999999999999972e+01
-9.820000000000000284e+00
1.110000000000000098e+00
1.102999999999999936e+01
-2.385999999999999943e+01
1.411999999999999922e+01
-1.293999999999999950e+01
-2.332999999999999829e+01
2.060000000000000142e+01
-2.649999999999999911e+00
4.519999999999999574e+00
-2.290000000000000036e+00
-1.705000000000000071e+01
1.651000000000000156e+01
-1.003999999999999915e+01
7.509999999999999787e+00
7.059999999999999609e+00
-2.398000000000000043e+01
2.519999999999999929e+01
-3.529999999999999805e+00
-6.030000000000000249e+00
1.242999999999999972e+01
-1.430000000000000071e+01
1.717999999999999972e+01
6.400000000000000133e-01
-2.312000000000000099e+01
2.039999999999999858e+01
-5.929999999999999716e+00
6.300000000000000044e-01
8.480000000000000426e+00
-2.505999999999999872e+01
1.610000000000000142e+01
6.860000000000000320e+00
-2.173000000000000043e+01
8.720000000000000639e+00
-1.030000000000000071e+01
-2.870000000000000107e+00
6.299999999999999822e+00
-1.496000000000000085e+01
1.742999999999999972e+01
1.000000000000000056e-01
-5.580000000000000071e+00
9.339999999999999858e+00
-1.076999999999999957e+01
9.449999999999999289e+00
-1.510000000000000009e+00
-2.723999999999999844e+01
1.348000000000000043e+01
-4.839999999999999858e+00
1.188000000000000078e+01
1.125999999999999979e+01
-1.848999999999999844e+01
1.441000000000000014e+01
-2.029999999999999805e+00
-6.199999999999999956e-01
1.060999999999999943e+01
-1.792000000000000171e+01
2.873000000000000043e+01
-4.500000000000000111e-01
-2.189000000000000057e+01
1.566000000000000014e+01
-7.240000000000000213e+00
-2.585999999999999943e+01
1.466999999999999993e+01
7.000000000000000666e-02
1.719000000000000128e+01
4.740000000000000213e+00
-2.146999999999999886e+01
2.114000000000000057e+01
-3.490000000000000213e+00
-2.437999999999999901e+01
1.357000000000000028e+01
-4.719999999999999751e+00
6.849999999999999645e+00
1.014000000000000057e+01
-1.764999999999999858e+01
2.039000000000000057e+01
1.106000000000000050e+01
-1.971999999999999886e+01
2.157999999999999829e+01
3.459999999999999964e+00
-2.360999999999999943e+01
1.846999999999999886e+01
2.049999999999999822e+00
-2.342999999999999972e+01
1.571000000000000085e+01
-9.699999999999999734e-01
-2.012999999999999901e+01
1.488000000000000078e+01
-3.700000000000000178e+00
-9.710000000000000853e+00
9.099999999999999645e+00
-7.320000000000000284e+00
5.040000000000000036e+00
4.669999999999999929e+00
-1.486999999999999922e+01
9.769999999999999574e+00
7.179999999999999716e+00
-2.030000000000000071e+01
1.052999999999999936e+01
-8.399999999999999689e-01
-1.798000000000000043e+01
1.207000000000000028e+01
-8.279999999999999361e+00
1.236999999999999922e+01
1.138000000000000078e+01
-1.460999999999999943e+01
1.673999999999999844e+01
3.160000000000000142e+00
-2.073999999999999844e+01
1.322000000000000064e+01
-4.870000000000000107e+00
-7.290000000000000036e+00
9.410000000000000142e+00
-9.099999999999999645e+00
1.151999999999999957e+01
5.129999999999999893e+00
-1.794000000000000128e+01
1.208999999999999986e+01
-4.919999999999999929e+00
-2.328999999999999915e+01
1.401999999999999957e+01
3.129999999999999893e+00
-8.599999999999999645e+00
4.419999999999999929e+00
-8.710000000000000853e+00
8.380000000000000782e+00
1.290000000000000036e+00
-1.776000000000000156e+01
-5.839999999999999858e+00
1.168999999999999950e+01
1.369999999999999929e+01
2.962999999999999901e+01
-7.023000000000000398e+01
-2.007999999999999829e+01
8.487000000000000455e+01
4.392999999999999972e+01
7.820000000000000284e+01
-9.634999999999999432e+01
-9.031999999999999318e+01
1.701999999999999957e+01
2.360000000000000142e+01
-2.083999999999999986e+01
2.805000000000000071e+01
1.860000000000000098e+00
-1.397000000000000064e+01
1.494999999999999929e+01
-9.980000000000000426e+00
-4.150000000000000355e+00
1.147000000000000064e+01
-1.391000000000000014e+01
9.439999999999999503e+00
1.155000000000000071e+01
-1.653999999999999915e+01
2.303000000000000114e+01
-1.219999999999999973e+00
-7.870000000000000284e+01
5.046000000000000085e+01
7.593999999999999773e+01
-7.832999999999999829e+01
1.143599999999999994e+02
-8.689000000000000057e+01
-2.712999999999999901e+01
-2.600000000000000089e+00
-1.083000000000000007e+01
1.219999999999999929e+01
2.646000000000000085e+01
-3.600999999999999801e+01
-4.150000000000000355e+00
6.382999999999999829e+01
-3.324000000000000199e+01
8.429999999999999716e+00
-1.955000000000000071e+01
-3.453000000000000114e+01
1.475000000000000000e+01
2.996000000000000085e+01
1.855000000000000071e+01
1.600000000000000000e+01
-5.689999999999999858e+01
-2.521000000000000085e+01
2.069999999999999929e+01
-1.880000000000000071e+01
6.837000000000000455e+01
-8.720000000000000639e+00
-2.962999999999999901e+01
-1.676000000000000156e+01
-4.292999999999999972e+01
5.504999999999999716e+01
1.094899999999999949e+02
-8.179000000000000625e+01
-5.296999999999999886e+01
-4.610000000000000142e+01
6.962999999999999545e+01
1.226700000000000017e+02
-2.723999999999999844e+01
-3.689999999999999947e+00
-5.513000000000000256e+01
-1.189999999999999947e+00
1.778999999999999915e+01
9.939999999999999503e+00
-8.334000000000000341e+01
-2.892999999999999972e+01
6.681000000000000227e+01
5.799999999999999600e-01
1.846000000000000085e+01
-3.992999999999999972e+01
-2.128000000000000114e+01
1.338499999999999943e+02
-9.668000000000000682e+01
2.744999999999999929e+01
-4.161999999999999744e+01
6.830000000000000071e+00
3.403999999999999915e+01
2.362000000000000099e+01
-4.006000000000000227e+01
-3.173000000000000043e+01
8.410999999999999943e+01
-5.774000000000000199e+01
3.725000000000000000e+01
-5.503000000000000114e+01
4.953999999999999915e+01
7.100000000000000000e+01
7.639999999999999680e+00
-5.628000000000000114e+01
-7.656999999999999318e+01
6.168999999999999773e+01
